start,duration,0,1,2,3,4,5,6,7,8,9,10,11,12,13,14,15,16,17,18,19,20,21,22,23,24,25,26,27,28,29,30,31,32,33,34,35,36,37,38,39,40,41,42,43,44,45,46,47,48,49,50,51,52,53,54,55,56,57,58,59,60,61,62,63,64,65,66,67,68,69,70,71,72,73,74,75,76,77,78,79,80,81,82,83,84,85,86,87,88,89,90,91,92,93,94,95,96,97,98,99
36.56610107421875,1.9217987060546875,-59.230868288504766,10.344017869430608,10.358351356035783,-31.681333310990695,37.10377327704065,-14.857510822423794,-30.678165616399493,19.547073576670403,12.249779120659207,10.964167309489284,25.129162232721956,19.738248935457474,-11.979810565676482,-11.366317651753747,-11.447828676565427,23.11885941625193,7.885005435065046,-12.251090615322385,-2.0777805596799688,8.852951635070792,17.61938908471781,17.36495762774676,13.532886506095855,18.579163716634103,15.75406813496534,-2.426315636575893,-16.75701996593817,-23.9692115306434,3.3500101467372403,4.257241612837939,15.873813371643223,-22.9334922313296,2.640196418528992,8.22677576761931,13.723027799249666,7.874060636405437,-3.3850739161606582,0.9827238895624886,4.605026832805896,-2.2732031246516398,0.7936485763163206,3.2561122363376347,-7.403484256906592,4.6475573940887305,7.840928521696238,-6.215167006392715,-2.6661519257983897,-6.865538955965571,-7.204270094874086,-8.991670125076755,8.32198959375954,18.34631494257033,1.4297075135276627,10.56837574586887,10.82108113535453,-13.049189191707942,-19.631739943204146,-3.7852127741156227,-0.7699274977574015,6.5023963347822695,-9.617133208946054,0.9450488634599019,8.801974195062627,-3.3299931597801997,-0.8402981584805409,48.27798011429126,15.569010096079733,6.668671401934831,-5.255463245022022,-10.369643285746035,-25.94283323724489,-2.642776352181691,23.182445825306374,-29.51281911308247,-25.045597037762533,-26.18502820336279,-9.879760981854542,0.3282835494612464,30.59400928831551,24.702505033903638,-0.8998945783966732,-14.401945151137712,-11.369093206113394,-12.587216283952817,-11.868579237558675,-1.7512973201159991,6.420801811453876,13.09846493785716,17.758419092351197,17.4585763957379,9.965917756022547,12.36305983771983,17.80626701762322,-52.94370877016408,-27.613801555154126,9.99261270409443,10.030983561454466,51.36057526484489,-11.751368487613593,45.37706023363355
38.48789978027344,2.03179931640625,22.013065817274324,30.07387566935607,6.7756212066528665,-2.947919654938089,15.983606511909192,-26.141793349291724,48.604407769647175,-21.31329052511837,-9.639687065079919,-19.760418578167936,-22.172843135056315,-44.849474012988864,7.764276392189495,-11.068081863077172,63.49175614083361,-63.52333111003164,27.54354770855725,-27.68167678164134,-3.002769591929294,-22.370395331554622,9.751292155364279,-14.502237105490309,-22.486838325621243,-8.642350618537687,7.8249132787076485,-10.983552025712603,51.07507453918019,29.601315613014126,15.805343674377795,-15.680451542380371,-42.14819061218414,54.03437945894786,3.2960227978058363,21.426662365229248,-60.356070079663546,11.437753912780266,21.826061520429846,14.878181529554743,56.99615517274925,21.159366578071445,-11.79947334159607,18.425029063646797,-8.07754171691088,13.096309937396217,4.89588376583138,0.37037316839727824,-1.1360868164602298,-3.284335532671885,33.26169734714243,4.377311147915179,-12.035275471203082,-3.172148595616592,-0.3371048409485542,-3.176706126810621,-11.217861955057334,7.720613690064853,-2.7418104725752324,-4.14151352237333,3.998110859225755,-10.158886792590344,4.1011788033231245,15.228989701148498,7.960002407667901,7.286799729697877,8.051933530281044,-0.761411650033148,3.2916121377975527,-3.4556928713533615,5.674446930208356,6.438280392760405,-41.04040437148211,-26.98651665602931,2.0415566258539,-13.469974704893342,6.002237443717513,3.869465045097578,-7.932728400166585,-10.523066959029816,7.649016103093314,-3.554420987931424,18.287421317364412,20.357489315842233,-14.677172227377516,28.76967290119364,-24.778356797925476,-23.984933392106946,35.60517296842367,37.55622655781657,-37.63868430027071,21.43953269900303,-16.85226687753637,-0.7580774570180591,-14.68273622693324,-0.0912182782591707,-7.167566491109259,-10.58242692667297,-11.407004045662665,13.762460249391141,-9.57752214595276,30.378401741584465
40.51969909667969,1.8921012878417969,23.838246282967514,32.69672465765571,25.98031109085081,-19.01142256229648,54.89949659671262,-49.1958923417712,50.08854149825133,76.39114418343881,13.23626602873231,16.061972141946985,-33.01093145154827,-92.8509565509997,21.435707374298843,-58.24897570997995,-19.421610664511697,-95.90621321359475,-12.869156476714654,-48.039169996481846,30.074370534334786,-50.282389736750815,18.174458887377735,-18.636919701568946,4.906816026805933,-63.1056938318601,-4.483982605432629,77.01786232719296,33.55182007493407,-49.530161391602206,-50.952851107376276,44.374718694217876,-5.704582772081054,25.610254708673423,-37.06442345883924,-41.409000876186724,29.96443367476501,-176.3348859138932,-31.087184431198,9.312502960962862,-33.45404304322564,-4.576582065094,-34.84669940915647,-20.316360504468,-23.771001341817016,13.824786745438573,-6.004300922547708,-6.511888845741316,16.75868640312381,-34.154925883212584,-14.79728169010519,-5.818690088197341,-13.36508153622312,4.683954491512678,-33.95980064536953,13.009092798948743,-20.302591248033163,-7.257546288807379,-8.79419488176125,-18.57961894214509,-23.306455188923803,-22.352384291312482,15.763574066195316,4.336026937835978,-2.1762446215678066,-0.10580494558933462,2.284201751213309,-1.6408554664964035,-2.365278955175414,0.929365362831234,-3.1015629943488943,-0.549883796379222,19.829832645495827,9.056718288797338,18.806750753211084,14.796843535261187,15.289866681612986,2.859817656089061,-13.751509211672857,-4.426137459697925,9.631034328214355,29.23217968458505,-14.304961736843833,16.619768058462572,-23.414258728211333,-29.184782773568912,22.082333244887447,13.855303730117821,-12.301088157359985,26.458204834249884,-21.830783318665233,13.089917331516075,24.68229782455995,-1.7355995661702814,25.58031120584201,-3.3750539103878867,-30.213266648875738,-3.28755372328669,15.712694128789632,-12.939296226014903,-11.916859610888093,29.3109394857942
42.411800384521484,0.6208000183105469,37.49043856723149,-79.89721972241502,-47.628334959355314,-20.875017249747955,12.869108402422926,-27.00446953144322,6.113239040428717,50.97188183470589,-18.811311378102367,12.235500871586432,78.96321942192964,91.09638448538209,-47.902837660750585,11.719641696684064,20.46957293113267,-41.117464364739206,-24.870684741315724,31.159632302220036,31.897533894019965,-31.650736916906776,21.41370264344308,9.649893235875854,-42.92043208328033,-2.6787949348872386,9.450617082641106,1.2973987832569325,42.618476595354096,-44.23783672925319,-40.54931805078507,21.08235987320199,60.24394867164765,-54.677554413500694,-18.993112246966554,50.26736047723186,3.298307485568505,-9.232560434014495,-4.307892869233985,25.054060177190205,-4.683007615204806,-6.717738939322876,5.588589015367299,19.096952381162552,25.691000186616236,8.373859567809092,1.0757855236612386,-1.9924400393346215,-1.4324969509577399,9.77511713635487,-12.51653300895461,12.909221375414477,1.3426469050312062,3.2441784923532477,-1.1966866183172984,13.97509149887381,-11.227006642277425,3.0222011172913383,-0.4266348929748926,-8.896693295475806,-8.051925735348867,7.916897117847559,2.5140005012581987,-1.0784131043153797,-0.8722030385975578,-3.085121340843466,-1.9095368793131229,3.961814558313116,11.371983201912755,-5.930563309791806,-15.82734817811832,18.3451784260265,4.9798968361594556,-7.427624863143242,20.73850544892312,2.98181488569204,-17.181744062318373,-2.743065319801751,-0.37601533950969523,-20.42382850283344,9.091895746901466,31.512130188755613,-50.008741483137186,34.68301876916375,-12.919195569547771,6.992289275667667,27.901808202639174,28.7406437300076,22.87111553282947,12.572420602433878,-37.067822357266834,13.851446304285528,6.203779523589239,9.84423242267616,16.985066106370375,28.677119162174883,14.187909387220168,-31.76949880565516,13.472018925689076,-21.141304961885357,20.74897344289486,-24.441193110091252
43.03260040283203,1.3614006042480469,-15.052898371246995,21.120474777168685,-3.5296633938999293,-40.662244458331635,80.89125925888095,-132.41121841945753,47.67703679898231,14.661665515710919,-32.443183785846976,52.52472212986042,11.051133435264797,-97.9706596295664,74.42362520300418,-71.58897586762556,66.52414838910151,-20.201766247392626,-4.809908227298634,17.48759055676573,-84.01076844905361,24.39000326317395,-29.70625381950852,-13.754628446987638,-1.460101613373665,0.14075643471658772,9.049173593230513,-61.02728100034407,13.475942448667334,6.862653487383556,30.90444892571444,-6.398654596250517,8.285507232614261,-17.340842272305757,17.396347434772167,8.861943749082961,24.94737760385858,-20.06483637817371,-14.565098735486849,23.429930403871168,-23.76960781770411,27.020837585321825,-39.51481380452967,-30.464669715996994,54.417834625847775,-67.64071227108091,36.70227217258115,-5.560160746595065,-15.557343118569428,0.7195329649757272,8.155907708321745,-52.13261537371322,28.416971582606173,29.889204994047475,-36.08891603968935,29.28211258458131,-42.28259423133975,-8.841377243551044,42.2893389563772,-27.38919260926393,33.751324892467,-39.732144859934046,-29.867609856138248,-16.926367123380533,30.491920110092774,-30.473760983017595,41.67066557799813,7.68156697903211,-27.00550364437419,3.60731164034131,12.641933159542024,-46.61170281720121,21.546105776256535,-52.599105964772995,5.497856616369127,53.09919457012716,-11.733472449147824,30.90452968275282,-4.075014919767649,-10.02510970498313,26.629522938522744,-30.184125851834672,6.630230913536817,25.14956623511734,-15.254604798803877,-1.648879322256537,48.29629978789446,-30.06139800592816,62.083769024160404,-17.95805642537265,-26.001049792708372,21.138666441922325,-16.239933442342423,61.854577575689746,8.228822272228712,16.888856398650056,7.508740030243311,14.06831916980115,61.726653543467066,-38.60790818843157,2.4524872843424292,7.179009164189427
44.39400100708008,1.9511985778808594,3.805710406404307,15.769220947863676,30.19069805167285,8.056975319315589,2.6730523770594754,1.0418961918297707,19.976036533860764,7.985271592579208,-11.782831874889743,26.204493836527625,38.729694025917205,12.880646403614072,12.91867728884653,5.934907099630267,2.066704086884017,-3.126452931742773,-4.496474926316109,-17.91813006109773,3.1417054015094066,10.099726347423491,-2.02552623371811,13.048788806175569,4.096979577531632,-0.6863908547720969,8.208251164440656,5.426544749657891,6.663622075994879,4.800650546297376,-7.137685501536241,14.682481045597008,1.300411404916394,-2.7654558342908793,5.819992361479778,12.947014649213626,-7.446526068099664,1.3560658835866364,10.325487749167603,9.996743624782745,14.91188669260053,-9.3775396631312,0.7252696582050301,3.389131296103893,-0.6886239752190132,9.596379382376995,-5.580801325515906,2.07885175359508,3.87344791746477,0.9493757651282877,-10.539595990148609,2.1671597162764766,-0.391587705403303,3.8057775017864657,-1.2341285673513807,6.255871312615625,11.673447289258506,13.006711754450949,-10.769216354835258,-23.685540238715312,-37.15360963358507,-4.929349228557561,-17.263510906599475,-5.94588884477367,0.6330603480572119,11.43599658636434,15.054321311673167,1.9999754956075142,-16.841985317207843,-27.387335706158748,10.171453828398176,25.470157704114186,-25.934574235121236,46.42229500989096,47.59111436582645,-39.06173096898685,-3.277736290855682,-11.082258546437306,25.826667233569516,-8.281216750433586,4.612041966500323,1.8568544834362397,0.22330875443811515,-12.359074863055662,-20.712310222373226,-26.331511414220646,-12.084541340229235,-4.295052757964171,-13.231971158179382,2.0026831349245393,17.78354935312278,-7.28448149519454,20.332251039662857,18.55370685761179,-32.896656001960935,-26.009450754194273,20.891106915730276,3.430755424880532,14.764716004537137,18.749757793497942,-23.452495039244393,-6.253088056550499
46.34519958496094,2.0027008056640625,-3.37400212009603,-2.486811080476681,-22.316740512092352,-9.536200313690221,19.942431534895533,12.850711031850867,68.34073051043075,-24.98595714150549,-10.029345447625563,-6.063682831704167,-59.29103003850064,44.61463763110779,-2.77442793326429,26.064143561634836,-32.48418488066114,-0.7375157107166199,47.42345750036087,-23.25194694565473,41.58250912158652,-54.34219805064453,-52.11879594094057,6.523348148307605,9.011447906443514,-45.33722732709593,-12.607221760242004,-15.239494040307468,32.13811464732027,39.363136888674866,27.095723723570583,-17.401025686755876,21.536064399075656,-40.84360916144125,33.012193055915446,31.404861111999814,-51.068617679074436,29.53275628534065,-3.6025986501655014,-28.161142226131165,-47.0080787752344,-28.90666068185093,-6.024127960263372,3.5517551667124176,11.333073452972263,-6.761604016491484,8.26165995019091,21.536141778881717,-31.437055935202732,43.394579380716436,14.183063246063465,-6.396453854348837,2.2142012060913907,1.3174573835537495,-2.6337558966904213,-2.3388501493781977,9.269017115334723,11.355778617607434,-2.566699572913782,0.43733285370266506,16.744407149166594,12.459144118431851,20.816858076242063,7.626788404722688,-5.005247754416682,-12.390256101295927,-17.962319697153315,6.24583017702126,-18.96652254389328,5.695692487716477,4.397826672010405,12.099827400938022,-1.1594437052380182,-1.4063703544609165,19.90738388965366,2.280740268088925,13.922532302807575,-2.5613516547108746,-17.817662210881995,-18.036635045331572,1.6782719766801524,-8.216008612090747,10.931026141735332,22.39000140409444,23.897054883164248,-26.874702554866186,-23.090790324909978,10.27406050108674,-0.8332944388304875,18.396748119757643,9.514204751928345,-18.46303404316552,7.192210625891516,-9.02352112617814,0.47483750328579655,17.943611022579283,10.006868839444309,-6.787268833980173,10.044073078298817,-9.61864065831684,-25.49495667070403,-0.5270127772055311
48.347900390625,1.9516983032226562,0.36639934984578915,13.947606316012386,17.198666537230466,-11.66862306173469,-16.22296319185381,-9.153933861143223,-32.684662253330444,6.969909748483668,-47.90154734617028,-31.582903157616297,-50.72639665443169,10.454115559749031,12.930530044419298,43.90961063066124,46.72347763392843,39.53897740971521,-55.18714692383951,9.738120120286066,25.388689935824303,19.599211423060414,21.97200967438829,30.30633409853993,-14.872083866064486,-54.042445980960494,3.80726821086442,-19.608147289191443,5.472576052954943,-9.51130530227806,3.5259829549649933,19.954738072543737,50.12353541182739,2.5762260201408935,28.507695416356626,-28.691952043369277,7.488033648747095,16.05587653165903,3.9941057530864565,34.19074557038739,-30.427656213994158,70.94052694043762,-11.71500789247039,-3.717423513944725,7.908696220262854,11.432467363747893,11.021344257451585,1.7426282429906117,-14.08462708025803,6.989118110897671,1.8854197318667791,2.812080303344365,-5.639237444633495,-12.868504380683206,-8.332951696776151,2.775020990571768,-3.7443171636963855,6.205186940494308,12.415759825782672,-1.5123094665799974,3.8542952228647005,-8.77341683317009,1.7562910285135407,-5.143409729276563,7.693375203956195,-3.092556425019553,17.284603736665247,-1.984025710045512,-22.19890218918371,-0.6746663642170994,-2.62214243372502,-20.924117607389146,6.0641486404726805,19.811140242047358,-10.436366904379902,8.958220637754415,-4.205838555992971,10.509918694131379,26.117729720720245,-17.831765235453226,5.257135815709903,0.5764591839678399,-24.43444402685146,-15.895339805925035,20.195750089271666,-4.421330904680778,-2.719711524219666,-0.18483923366168464,11.036132723209152,-5.118678975152937,-11.284842623376083,-3.247607545290286,-11.128689536712267,26.733615926210366,7.092329771463676,7.590838337756485,-15.704682078224316,-12.465509309125482,1.8021270223392243,19.956122015585112,-6.546399631850193,34.461962066085874
50.299598693847656,2.2019004821777344,20.44514172662302,-55.464339904417585,9.667404139079386,-36.97080426948859,-3.7740855901684447,34.2910423966121,-63.899671020855415,31.419576239274136,11.623770637200225,-0.614902716153012,46.20105427403946,-77.77658874307588,19.21979904641619,29.94577307477912,39.205411072524925,71.04891355268684,11.99301620660597,42.85029901819978,23.70557842703365,0.05922737680635315,45.559001436099315,4.791583129293621,-36.27471628354667,-0.527888510594301,-29.50998848552849,-28.206940584935758,39.294897122455545,9.76749588151246,16.03046949523611,7.2071611249732115,-25.55125191164362,29.072005808771205,-6.131587937738903,22.68864880177017,41.117951892576656,32.751839714976654,-24.67314090533749,-23.98755812210561,28.852886833939383,-23.974377488864306,-10.21123355286731,-8.786101968397409,-1.0444527959517762,3.8494355917519334,6.334388097718238,-3.495234867714008,7.746636934344569,9.007458391914563,1.9802697178445468,5.999359294092904,-7.368985679287065,6.964563097015369,4.790565486795681,5.551478874520925,3.14948096186982,5.9063411769797085,-1.2484436834162027,11.133184986674173,-3.3647509653493515,-2.265467966429109,9.044871727915726,-3.2241325513592214,-0.4850110989879024,-3.313988486305867,-24.65496451146652,-18.09275389401018,0.5132459557305302,-4.590347646640498,-14.817132042767605,3.7494208355164758,-5.457823784607495,19.52859841006433,-21.775264132508497,-9.262842105901521,4.351578729563485,-3.685640470896732,8.119739171009837,11.756156453568014,29.48221742760849,-8.392929852882306,22.200094392086534,-18.624572909638793,-27.876704076397814,3.3934143249970123,27.166112904273078,8.432511757683447,-44.48719760350466,2.567400812153151,-10.146154983100867,11.971001275277779,-16.2149976656391,33.367501203871676,-33.43838179494417,-10.906566245668419,2.982151133289029,27.970498319231652,45.71768970833597,1.0374382954673238,17.574619950873693,-11.412636546491093
