start,duration,0,1,2,3,4,5,6,7,8,9,10,11,12,13,14,15,16,17,18,19,20,21,22,23,24,25,26,27,28,29,30,31,32,33,34,35,36,37,38,39,40,41,42,43,44,45,46,47,48,49,50,51,52,53,54,55,56,57,58,59,60,61,62,63,64,65,66,67,68,69,70,71,72,73,74,75,76,77,78,79,80,81,82,83,84,85,86,87,88,89,90,91,92,93,94,95,96,97,98,99
37.464698791503906,1.1925010681152344,0.10066473347524264,0.3307172229110113,0.29653162771763314,-0.30340965404831455,0.14417003014790802,0.09489059125234828,-0.04182998885653598,0.0898285024166402,0.585249237965305,0.4090024926396105,-0.23341243673476397,-0.6694388804762532,-0.5834733852957171,0.06348384432185565,0.05033283161373552,0.21085321569994536,0.17549633368088774,0.2589511611859504,0.1283416616382758,0.3062112961343596,-0.1961367340102648,0.15208605510545517,-0.11060889068619212,-0.030727344061510523,-0.13760504662932635,-0.18818077476567288,-0.3415656100887725,-0.333398431217649,0.6235686437410698,0.13000828315458793,-0.1191234873517306,0.17067255907664935,-0.041766781122064375,-0.017255141835862818,0.16290071013982638,0.15855644686998754,-0.061643246329731824,-0.009980987792865431,0.05907976230403002,-0.10653722272916746,-0.18349810810035241,-0.28477558811377957,0.38139740274474265,0.19052831072756007,-0.050882878220064154,0.29239511180529587,-0.02877208144377616,0.15578419284887546,0.013710886409067289,-0.06670297386163464,-0.0028393866980104543,-0.0705148540886249,-0.050099473265049356,0.025183141610439955,-0.00979185779208869,0.036732416808946636,-0.24243324594667398,-0.013163378239271523,0.1153500655695472,-0.08841091319032593,-0.27897354532866386,-0.22263356935244125,-0.2906245274127612,-0.1498092246733936,0.14610035289719783,0.7134292257555749,0.07019233056488933,-0.3270586680865911,-0.16538297221762968,0.0023988881127326514,0.0023285980083275113,-0.059239378004342924,0.10880040996725075,-0.05185772351016216,-0.05707683985815973,0.1190258406312637,-0.022529595347591587,-0.10329774749918819,-0.2591926660820843,0.36464608848564345,-0.11304083337123365,0.055753158368958236,-0.0777873358840462,-0.11517750620454809,0.024340268800898145,-0.09050099306217048,-0.028439638184783893,-0.06797701924262124,0.15101734648121024,-0.13479650273404786,0.10798206977214522,0.22225916117971956,0.07905853644391632,0.2610936883609698,-0.110277525881529,0.16354198774013007,0.07034796227238538,0.03153791659508616,-0.29271336386353985,-0.07555135396594244
38.65719985961914,1.172698974609375,-0.06237431191769387,0.38915826842475226,0.04550799129209164,-0.07551827017655344,-0.013401858357023226,-0.49304185553074775,-0.5733262075849992,-0.18521893382730026,0.17364839481649402,0.5301117499230613,0.15609470832927008,-0.42277559002169357,-0.6044366788716329,-0.04142165516305463,-0.04424322647028905,-0.07601585395572087,-0.026537522114747386,-0.29693871026061386,0.17273166521811836,-0.42717278734268493,-0.3938269041414438,0.05682770939645963,-0.12609605854990089,-0.25766535650796146,-0.2860887421580437,-0.2779296799851856,0.5803864983157133,-0.25395121403450766,-0.20832185725124008,-0.13858377335274383,0.18619641233807266,0.1078971603592474,-0.07937101951867194,-0.06633939315402665,-0.18324973495399416,0.24893146775307623,-0.07769601169094353,-0.1428176574337551,0.022437770472402918,-0.12473900500318293,0.15655563969425657,-0.17567746544521712,-0.25946791294221877,0.00636936203892538,-0.028506223977767878,-0.03897702247161454,0.10151574122485833,-0.010981062926818143,0.0592780205604109,0.04992010475431964,-0.021232432292962854,0.05574953217456869,-0.09189231718661449,-0.003578567273415994,0.041704325096167755,-0.05971658387406081,0.029709637024478985,-0.07932799448559585,0.046489357454943474,-0.06082032499373545,0.007205231319700595,0.1603924532065919,-0.2370953295628362,-0.2522825629295581,0.12834474118269779,-0.25647328128670926,-0.0436611145498543,-0.04958167716591096,0.30833688290978933,-0.019702387285845765,-0.002995222266962248,-0.10997046219024481,-0.004858930789371733,0.051340508209377425,0.01187061416037738,-0.047374200704267434,-0.2153705472418033,-0.0403749144062864,-0.03536518713634906,-0.20188870947015725,-0.20622867358973804,-0.16949377113465,-0.4314930988799288,0.2531344729751654,0.3791513798806714,-0.007898041652243198,-0.1466279018781794,0.5261670037045484,0.31111976528426205,-0.32910456367004415,-0.028401764946891197,-0.11760583104085773,-0.6567167629005157,0.31995072262644453,0.5754312721778703,-0.06816115529145558,-0.13682329669810317,0.16568952707144835,0.27646542594904894,0.3460891039344275
39.829898834228516,1.16290283203125,0.4744824131446236,0.1634024130204963,-0.24542500791984093,0.4363578777029389,0.17466398841344266,0.1300440310874621,-0.3043569204270932,0.12282559008802764,0.3571453250780387,-0.09963123979574282,0.23683004123183116,-0.34950943204801205,0.1859917104348864,0.03549121532716624,-0.110268499541896,-0.016862778101141868,0.165710653666306,0.2559830466874249,0.23024369324947894,8.286981936760085e-05,0.06299411859721346,0.2502438097070948,0.354472412099899,-0.03035754093947718,0.045788479138135794,0.11158004877143568,0.0607187422038862,0.20170009300975839,-0.0021819765710080962,0.11870083906369978,0.037657871566871975,-0.18523831613786543,-0.12680133270212302,-0.09808208441082253,-0.005987801875439444,-0.08127468035471595,-0.09471448750633923,-0.13824331774556878,0.005340332735187864,0.11696648764596128,0.0859349366231003,0.015900988834536015,-0.0195299589258602,0.01954840113337343,-0.09641406929080276,-0.06276906515167018,-0.057419549954922794,0.050544095606820036,-0.040220681475568766,0.07624150778246339,-0.02842842393068263,-0.05117726812013389,0.07736603640877503,0.033052750739835164,0.07572207311302301,0.09415671109758443,-0.026993837936569027,-0.06627900607741039,0.07610337392945321,0.06949587492601393,-0.04472451829762172,-0.046761624046056265,-0.6084963193842582,-0.04836007791056434,0.6560083475082833,-0.13529030007891427,-0.4017761622579381,-0.34092422037052106,0.19706988360531302,0.13187274720559816,0.05268994724552457,0.018213304972019066,0.03576483487136774,0.05460335997195049,0.11642974676882009,0.01720706199984285,0.012959837203428276,0.020564735461801903,-0.058258784098402724,-0.013944574539334415,0.05987374659024253,0.3819944926679682,-0.007241648604549314,0.04478907164707245,-0.04149649499040185,0.09881548229801113,0.3412299114839119,-0.2749121222116885,0.3269284841207403,-0.17749234701300756,-0.023929813871297227,0.052709946838118416,0.015334023452701857,0.03156996174519292,-0.01898477180373729,0.22392440468928113,0.11911588617387647,-0.23407464613794418,0.03644899985292727,-0.16338619496354084
40.992801666259766,1.2931976318359375,-0.1763911325613814,-0.17243355555237352,0.20883836447977727,0.1814074723739603,-0.02804314376343679,0.10989266471091745,0.21600231173381612,0.0713082432958905,-0.054772474082595515,-0.3871363003802338,-0.30204095929582764,-0.023803495460824022,0.09792015487901161,-0.12510347171966388,0.25219061811900667,-0.09351475918218137,-0.27839892647504283,0.02135489234745698,0.0629707966995643,0.26435228561583,-0.22173441271320957,-0.16096953304753478,0.14197929179304755,0.13808296784391555,0.013169988026580884,0.05855487104640544,0.1351065944889963,-0.21222771828486353,-0.12941351146744923,-0.1774412916911069,-0.09229017281717694,0.030442213173194857,-0.1744781866040465,-0.0195594897536157,0.03402995239864826,-0.07560327989155681,0.20044997947366083,-0.003954830683023922,0.031214325302323036,-0.02279779465658731,0.3031062759645064,0.1012874329454698,-0.06602166759824474,0.03515290270890148,0.18095213132624502,-0.09740417516731635,-0.1351807598031264,-0.0401970783876844,0.15273853291008843,0.14178888106160148,0.03230633783861863,0.06953490433064646,0.014799634429444222,-0.007636799022615744,0.06695664378467855,0.084190427962052,-0.07041645917222167,0.03221280028472843,0.46134295615205256,0.18572381366522173,-0.1307775953462514,-0.2037673194201034,-0.17262964990744245,-0.028746299836868893,-0.45769477761394733,-0.5259003045542691,-0.11578328314259008,0.09634523450326962,0.028778848592409742,-0.05867873603893282,0.04719261069422756,-0.04369734108200576,-0.08533751792038864,-0.10537041021175321,-0.06860046912451925,-0.2673186923142137,0.07481375352863151,0.11448017083933787,0.1463413627216064,-0.028792820190952945,-0.012505093603180736,0.10335556422671789,0.38575096570353157,-0.3320241367327123,-0.28652851609229457,0.9906465065083866,-0.04434977671458068,0.16537849255371748,0.00752349281027144,-0.0034013128041659874,-0.14095113430000597,-0.0656140103395492,0.1238540920841984,0.07721450444063177,0.25460083136564055,0.008903684644808618,-0.2662564452817272,0.3278008825054003,0.2055095954941042,0.020459333072327945
57.38119888305664,1.2022018432617188,-0.2273552402672497,-0.4590655756117917,0.17181420842174286,0.6753321412420793,0.26837938658766264,-0.14408279537182664,-0.3237626613360537,0.07613207633256006,0.039169492299729575,-0.10321033651298625,-0.2276672588452244,0.9403154751488076,-0.19995363745238692,-0.13116075965503,0.27960570453627154,0.26117121467484794,0.15145131219847843,-0.07741061590270404,-0.06735135313743218,-0.29713826757686007,-0.3160746067249369,-0.16487654938247162,-0.5224448273521941,0.25379582450340726,-0.003029562225514454,-0.2853968120312472,-0.33459180327633137,-0.17016392867051136,0.22598565404304966,-0.1176572722040572,-0.014224863795006882,0.015385848899171606,-0.4036919342832667,-0.6608125519318413,0.25877453069467465,0.305466168870586,-0.15758233845277445,-0.16397392789781562,-0.0376685291528764,0.02601933187934505,-0.06373665761984033,-0.09106285998274943,-0.13647517890236527,-0.0727431948350333,-0.053105973645036414,0.045091907213710446,0.009786923065266347,0.11202615043740279,-0.027431167353983647,0.014880129284204222,-0.008972270263846666,-0.09401439695540201,0.13202239346860642,-0.06835504440253425,0.07362476732564037,0.006463526782700048,0.0051358720899506854,0.011730926985828666,0.06732609498536271,-0.030778763809048447,-0.015073288236379719,0.031054316657319107,-0.3953155140465032,-0.26488233547832024,-0.07102232291315388,0.3467218585429975,0.3496973897495106,0.510930033524453,0.4296537768706693,0.11229410156607506,0.006392223955160088,-0.0022006419364215533,-0.16847161518267478,0.07841063460461906,0.013187084239454111,-0.062057706056139,-0.08850647854672786,0.07582576749271257,-0.0033982623887745117,-0.05850992950263883,0.09746224850144407,0.042806530939953104,0.028844423861264935,-0.22000504340130145,1.1188944774793284,-0.06721356746627832,0.17508167342287098,0.3241486147418177,-0.4785481424246263,-0.18361422483485698,0.18112934190807445,-0.5943131744561695,-0.19650103888550852,-0.23909965040610553,-0.03194690445189896,-0.5154179224867934,0.22656794072975484,0.10292514642667734,0.25662743974040764,0.18604558554710213
58.58340072631836,1.1833000183105469,0.18475464812916736,-0.09071587459670659,-0.11533964017706497,0.2705592630136492,-0.15088275160488612,-0.17414664124046283,-5.7576596196998175e-05,-0.21821370020777112,-0.47134549798031466,0.7243006838127064,0.04646422247101058,-0.4203437616757931,0.635077815389141,-0.4457577454614717,-0.2005399201142806,0.06745154788464455,-0.10294357317403077,0.1758468785425757,0.26692346266973466,0.6451980614392516,0.2501130682891658,-0.004500255178044871,-0.26073669249351283,-0.27558831022009483,-0.40529112967974784,-0.1184034376358408,0.10607426985581078,0.03922642727629229,0.6876422057910685,0.015621197419885297,-0.36319734208371485,0.2375718729934979,0.002479826728337242,0.23966830520955235,-0.025428289519493497,-0.1422259169382934,-0.05331073594071098,-0.13302443103854442,0.07489297351806706,0.226190810046696,0.13107966624859674,0.05494673698210986,-0.0023711731529538864,0.03559006021521152,0.07037018509815794,0.010416462225232095,-0.13197456660523083,0.09339539060359195,0.01010455327445662,0.033391997797126094,0.07216018946923763,0.004124677410851494,0.01138564000733032,0.08082150250542217,0.08676785414902291,-0.09068352139891639,0.023264619225782646,0.06191237897773385,0.07517256938472719,-0.05164713726489224,-0.04012363980446929,-0.11025813677342029,0.03954232806667114,-0.12669916599401415,-0.06304249136544351,0.8146153790614057,-0.24779634339270226,0.061123873721166705,0.9523179575668731,0.3538753871927385,0.06685542109277165,-0.13319308841045616,-0.023667300959069226,0.04882667600535145,-0.030941744099646007,-0.13698221440604855,-0.03404983655515816,0.26992111049490586,-0.311620174143902,-0.08392647212130737,0.1964398640202616,0.4527607496477295,-0.3452562058793912,0.17234781843603156,-0.603243136825338,-0.32829767372397284,-0.16753608105812332,-0.08081312992581303,0.14107640065779004,-0.25531341198934326,-0.14058885742636285,-0.21740472421480617,-0.12124365667291495,-0.021958270051180798,0.25476845570605927,-0.028696675712668356,0.08786303681496771,-0.15292741626569945,0.1959362104800823,0.3941222660599567
59.766700744628906,1.1324996948242188,0.5476296852065267,-0.07183422414195906,0.2823166940946484,0.3328062675650022,-0.21522489331420253,-0.03355365951137036,0.33912441257063164,0.011792057678924696,0.5122301262480042,-0.26189604279684764,-0.6668407625432942,-0.04142616564427293,-0.3715041048738102,-0.5502059475003646,-0.5499778880108244,-0.5480529024337408,0.05482259796089606,-0.08050519455748209,0.4540228820541268,-0.4967624156543755,0.24350074576255604,0.028052167751621393,-0.36503478410163703,-0.296623569898584,-0.16679334412488112,0.20510571653217097,-0.017760515186252088,-0.10713327707870851,0.10716669611121131,-0.3669986774379242,0.06389657890962493,0.24624041251124423,0.10820535013909717,-0.044979899693647976,0.2644738888156966,-0.16093221281821896,0.14380581943368267,-0.06461034979029918,0.0419496309862599,0.04118118688796962,-0.03505911721420406,0.30109575753057644,0.25111485631040514,0.22776130955376134,0.023862986450849867,-0.22399018625140196,-0.2753903175102464,-0.3530019252595877,-0.09030189632727957,-0.0929676443795578,-0.03229798967729543,0.08987786791994229,0.1827651429391231,-0.02423209753583784,0.06820894985313783,-0.06617428119582142,-0.26125224259112106,-0.15761704780865987,0.04677919277480494,0.24727598047033542,0.4253952801423079,0.014856163766416405,0.00776863626303399,0.0896782644421924,-0.01862341102847359,0.8151745665839819,0.5645083741210497,-0.5765943514742733,-0.567866454666133,0.01883514773653508,0.09918571958213557,-0.03901682921934381,-0.07308600742724729,-0.0663873605556253,-0.036474743532137935,-0.0481813179513416,0.2175141121424296,-0.13078246212750547,-0.019808176972880925,0.21994887783573555,-0.03754886421412458,-0.1034959772480622,0.11388092646778135,0.017872026332231512,0.3060749052762234,-0.4836009347219463,-0.21594471860404804,-0.04013745910628648,-0.048749467923119724,-0.0826742536066731,-0.33961702740415917,-0.14910823396839176,0.06889471924002755,0.03676849802134312,0.05197150817499601,0.09755592880837734,-0.19135917742733702,0.32778602106786037,-0.11179857874627483,0.09969645398072675
60.899200439453125,1.2527008056640625,0.10658877875809522,0.37803018989844167,-0.0058877764528971754,-0.41087588752163706,0.24300432592467117,0.48175505075278696,-0.1537355695403086,-0.24720543471496026,0.3885017107996422,-0.14928581785265885,0.0960410177204077,-0.41789574738734964,0.24421015970491314,-0.06909778821703938,0.0022042585041987597,-0.1437232919915427,0.24018800487536107,-0.0019362631313699788,-0.44802779512123386,-0.18860139809013948,0.3613527554597758,-0.28713756828680204,0.6527643650334171,-0.07851247989978108,0.16091112720258507,0.06353986210750415,0.22107995545786394,-0.059671889074096485,-0.10224091503159781,0.34589587714346637,0.08218116825013559,-0.0161585178552619,0.28298171755676127,-0.053509455282856576,0.23275172137799516,0.003229883502999735,-0.08053215201522443,0.2654911804117607,0.45176138392963205,-0.022903528780425564,-0.2271824291230548,-0.0002489592362834442,0.1419362296664071,-0.06223983359845517,-0.028852919344378516,0.02839151744076957,-0.16694307514289786,0.025736623180573272,0.06272565281293029,0.1377632718706611,0.0003863630924309455,0.0791479874129911,0.12366422199110291,-0.006109472489639287,0.05635435744846727,-0.015081341507460856,0.08394608525997345,0.046122505689256715,-0.06222045662120824,0.056592680098479876,-0.10147370826639424,-0.365214898752047,-0.2630466709612339,-0.025724015585251715,0.027145492934736302,0.7217456438381491,0.5690585396779119,-0.08105653492308627,-0.20226852882336335,0.08988721941533331,0.0028435320540897997,-0.16726239317915115,-0.06930537953176327,0.03878505731728582,0.05508287129463567,-0.12622297234290736,-0.028429184581415787,-0.020277217636836518,-0.25681939328693293,-0.19116994497200449,0.033218295435062654,0.05041715706873773,-0.008110028809575287,-0.811585284769625,0.08154153151483852,0.08611595587579748,0.5857547266324137,0.02824385493354973,-0.01216299026884108,-0.0028221584652818044,-0.2730309395423558,0.10901822932550137,0.2315019606515889,0.09268304294147017,-0.2585610095683112,-0.1169166280582859,0.14509561613466965,0.29702377952065195,0.34604332137232907,0.12944862234985466
