start,duration,0,1,2,3,4,5,6,7,8,9,10,11,12,13,14,15,16,17,18,19,20,21,22,23,24,25,26,27,28,29,30,31,32,33,34,35,36,37,38,39,40,41,42,43,44,45,46,47,48,49,50,51,52,53,54,55,56,57,58,59,60,61,62,63,64,65,66,67,68,69,70,71,72,73,74,75,76,77,78,79,80,81,82,83,84,85,86,87,88,89,90,91,92,93,94,95,96,97,98,99
46.063350677490234,2.3395004272460938,807.1709629318352,540.5167075394228,3731.8103203370465,-1693.1046105851945,212.2737118822609,-3231.485813374172,44.63783127213577,-437.9184400083573,-1304.523048562469,-235.62128119971516,2429.2464801719743,2912.970946763173,-665.0081954117265,2394.9161791207166,-3631.768725289783,495.25440269018253,-3947.149766523731,-381.9507555558208,1036.1441580616283,404.7644071306593,560.2904532653484,3698.976298794805,-425.70071570660457,463.2559507506845,-3397.4305545321963,19.602106739711076,-349.56452204236535,-1240.942099526335,-225.97519725326157,1790.7112735305666,2402.7491642318464,-889.6011387145356,2322.307573716994,-3696.655622901998,364.9858173272576,-3353.747634348494,-831.6253288879808,1201.2884920864744,425.1046724536081,549.6402385741626,3422.395691459661,-1730.676744721041,722.8127863697459,-3042.270356936971,-600.3296419046926,-388.59153289946283,-1146.7196390671295,243.97210112580797,1313.8629880864955,2975.3609647593034,-551.3491782638622,2101.514685913131,-3259.5444547779166,61.44805783649074,-3090.327958319087,-1000.2287106123849,821.5647641760033,186.66394243770742,520.3343354225927,2885.1327880318045,-1757.2245289946845,893.6134203445591,-2295.3236129530906,-296.24020560719777,-24.464179607819922,-1300.2913032424951,101.51299116187734,1087.5535713131412,2493.384370240337,-332.59369603685616,1855.7011748295783,-2451.755486143848,100.56143541495211,-2938.4751370374684,-557.0057844303994,360.0195732935276,-328.1054065472324,275.9227482556495,3308.215848974136,-377.4031159447263,545.5812583791009,-1572.4939873135745,-889.8314328171784,-8.443358131964509,-2170.817217851903,443.082267350634,1167.429104390239,2901.012977410749,-109.59383253038877,2950.5195519781687,-3149.759601638582,-487.86869076433356,-3080.046699414104,-530.1884370055312,383.66972443063133,286.42762533962366,31.726590669013063,3837.693797262592,1629.0898305743963,462.316872881123
48.40285110473633,2.199298858642578,829.7203448363355,-5057.037949993781,-312.3427092297876,240.11348614158118,-864.8607728360562,1557.1145355272454,2834.4492426076986,1649.5334916907364,-177.8292202608009,-202.31777720731088,-921.2498317414851,-741.9198592267704,-2014.1550297845408,-547.3376009809431,987.4277754792367,3075.9533201872764,-182.34246532523485,4330.568393337586,-2865.35311914653,665.0608785023193,-4812.061112486523,-521.5746325756913,501.8746106742211,-1647.3937302634777,1059.7307543235515,2556.5849052039957,2563.5576091632456,51.02014441427765,504.52186163183956,-1079.711719564117,-753.3058284064783,-2964.666595757617,-354.77111530692065,527.4665130455364,2089.800379050401,-394.06073338097167,4611.335473354257,-1198.9767879392416,479.6974910021632,-3141.63518347044,-782.8833642295309,689.880964110765,-2393.3774351923057,570.2272534527795,1872.4850162457838,3398.934650936858,170.62208262127214,1119.4084213685487,-1335.209805448321,-444.4766355896587,-3503.6060848511083,-256.83003491218636,19.39547620322199,1250.0704766425488,-717.349809207208,4504.412520575287,-205.8689765023421,235.61738168370397,-1851.4502273911903,-1278.5621751416224,735.9308624334403,-2208.992395336079,270.05608221060834,1285.4990632812978,3458.344563851011,254.44818805793471,1613.5192568290215,-2050.8142871734576,-18.543960313832624,-3669.698771992427,-277.24134559807254,741.2656187284164,535.9047266725629,-95.06819188878188,3950.659099405514,2062.233441480357,213.14867585412404,-666.4513476379386,-2048.2921009381216,260.6434803634222,-2650.250545007659,188.22514557361308,1114.4358696148283,3083.6879942466485,391.73214134051017,3164.1552085427443,-2755.1306659144393,42.64568678408817,-4043.2821839938783,-705.4218078600684,-116.6638319522848,-52.02107615322723,-101.26709247447864,3610.89057272588,3609.1245927947,130.42469062186774,473.1559126744062,-2434.9053075146685,379.14096631958887,-3704.1192111490686
50.602149963378906,2.5699996948242188,-1247.037097762075,-2222.3298013656618,739.8117922442093,374.8482296270686,-3696.642868138014,-639.6754507443761,-73.45339323956938,153.21031556617217,3506.8792209195763,936.2439220420988,-574.1300186795721,771.2099840159236,1639.645414866773,-3718.55254074423,-2560.509705377788,-129.4381109751112,99.64491885602737,1201.0586236255785,3131.899784293635,-442.1498009991127,829.0747165389973,3842.207024794793,-2503.6168134425143,-2280.6888201114557,-52.67944535455556,75.35931727614769,-1729.5345572022036,3525.322020229279,-3.305029592535078,668.6131998299674,3953.3043824614147,-966.2521312016837,-697.3354090115431,-43.215135670217414,374.84314046679947,-3875.594879974743,-1014.7365994150487,-35.34943094355293,562.5686996062675,2420.8934413562347,733.9252376272138,-99.24875947719815,39.50257813307912,1540.2618387553782,-2723.564479780718,-2772.2848867764474,-1.0863249762704754,559.6020857584145,375.1196001873791,2394.351747364268,127.93487240688279,-38.69182420216535,3108.2378529684725,-1139.9841868891397,-2251.123582481776,98.18078251571444,515.3171312273404,-2248.990165279949,2052.4860667189023,238.16754955623503,131.4776131972094,2992.001874741852,-42.45394863207156,-1760.8959606396675,221.57346018941962,901.9245504432747,-2956.152176162258,-2534.7100731168885,380.0809199643892,10.511537997225563,1117.4702445175274,1929.8926963811746,-278.13823336152734,153.92096103645468,2362.419802447703,-2801.7922894373887,-2702.0156074738766,142.89059383089335,36.51235068142755,-510.26904744082594,3745.9762243687496,-321.6510659815865,112.33694512042636,4686.629850328517,-1831.06704910779,-2566.0754025204506,209.5395482409702,218.2162950221965,-3619.0897785241013,1739.12768752767,-19.949359266073756,139.71186082329618,3353.9551981329505,255.0299929646178,-823.3136768311508,207.27512688231727,658.0978873549095,-4148.681031855409,-1715.4911796580395,-46.35022692693178
53.172149658203125,2.4396018981933594,-51.64854399853573,-1129.780693693279,64.63034671288949,-1714.0026644670781,1565.6588808317626,346.313534527062,245.5383226124074,105.04709754063516,-1625.5570050425806,1452.5742510398657,201.87096742361138,396.1064033447749,239.23332120436797,-1278.464522502586,1315.798890158137,181.97673363459748,1672.6067408228673,252.84407685452126,-1225.4554578636037,1372.1469996633136,-68.2432661022269,2055.7080459080917,5.002436246427877,-921.6131957955741,116.12704714303186,147.62954947347112,1954.7728898765104,104.42921251167168,-632.4393385870009,-425.4143805535789,245.11266909822294,1927.5034988066154,194.16630131090938,-627.9120828006933,-428.7074195730902,159.9040276335283,2435.455396324008,361.0859191473052,-745.0343804227416,-538.6460282396165,133.86093572283536,2861.337066331842,279.7172219804651,-408.0929272543941,-1037.1268422820297,45.297504807927794,2552.458338537823,57.46525931167772,-219.61079184077335,-1770.119138288243,127.16725570784318,3312.504095286973,67.93273769999251,-450.7844583394651,-2061.2823535258344,244.56573099310629,1962.1898617105003,357.277194987169,-535.9583300123141,-2254.738802357177,-207.2789936195618,2462.7945862833376,816.296695091746,-373.56523188931686,-2273.881906672343,-37.4514738159182,3680.87251289166,420.1728252877075,-166.69653975343277,-2532.230065065697,111.00969002389522,2235.415214729853,487.7503757182222,-24.96754599309611,-3697.4757981804078,280.0222390334567,1553.206144931003,983.9291560850863,-60.43270009154511,-4120.808235310845,115.18810701192415,1542.7724658095435,1139.7457783653103,-182.02464798118035,-3672.790252871881,195.42577957965798,2333.470467789253,1444.1297913097128,-95.63988917184747,-3708.7216390792046,158.81590946176104,3047.091343468247,1255.876722327989,-151.72617628893283,-3646.440361831401,91.80556324545152,1794.7427675800363,1638.6729811707082,-32.339489940768054,-5086.007909860501
55.611751556396484,2.499797821044922,-2418.966768222986,1169.8553627030703,-4187.670022874986,1521.256910352526,1245.234479671557,77.5093182323714,3682.382869236851,-752.5187393678181,2290.0031776878427,-2926.940685762712,201.02492651338818,-11.094525470973622,149.88880235706006,3676.3147220839783,72.98185344865958,-460.8090105479956,104.61719439141521,-3270.031746076725,191.39626678250147,-2428.81314683174,-2.6951069486095847,2346.652642109383,-295.69404275200725,4315.849936448677,-1524.8637399336753,1041.401753957753,-2774.8219262375446,103.20678033614436,3114.340478804762,19.45630049987991,1768.9940057704268,143.57129629641236,-1485.683343614522,101.83395248979113,-3599.2458095465277,1.446056630922314,-357.4101619180001,28.904825497861996,3120.967343007458,-699.6231592552333,3050.776824234879,-2141.270791327072,441.7141743811834,-1428.5236615364852,164.5227595896838,3920.998685491759,175.88033908429858,438.60478863800995,79.04007686485369,-2321.35383375876,105.2700425143555,-2896.3921430738847,49.62986666970373,1228.804831190188,-54.98622936886786,3700.1370103455197,-568.9594308254641,1631.9604279524106,-2427.935018322717,237.96107219549717,675.9565055858607,-338.0678444370369,2914.979538645446,366.71278366300925,-456.5741315692829,27.097762473686117,-2886.4188445901855,-42.8160493045061,-1329.48589724693,80.55699456386684,1762.3539724843047,-70.23438961093058,3474.382638948757,-2290.0248029641575,770.1344713868099,-2291.2711791246224,56.471801907501955,3056.4343268314137,68.97755300745669,376.23485601077596,249.3645929996623,-1678.349111798674,258.92562251555296,-3455.144831462687,168.7735703022421,619.851154454283,-3.8892639426822626,3732.2945138049645,-800.4346082740489,2501.37752304632,-3745.2763704548865,273.5501353210976,-253.14901401258066,75.96548974966416,2860.363462378222,117.13732617072664,-173.39908356381466,102.02626759139227,-3186.2852468847937,341.4126001484831
58.111549377441406,2.4696998596191406,280.1696458598986,-1393.0984938139522,125.69744740010444,2537.217301177864,642.5517923860173,3337.6579326290175,-861.3589306702248,-3281.9959307444324,1384.69085441724,-1178.3005373773824,3868.057324451687,-216.48367925044784,1777.2253941077715,76.05245711616358,-2943.8861148420274,89.08990574241244,-3486.988886373767,179.21872160535588,-807.5370911616881,124.86169266689774,2452.290345752602,97.94552383857324,35.09475627646498,153.5616233312792,-2838.399040353438,1580.9270204909228,-946.3533447659506,3643.185625598608,-101.72401688640329,1296.4324682339209,49.95933251403316,-2989.260664945624,144.57100197262878,-2988.1205257457473,112.21928793999878,-440.4734475767641,174.47573973390777,3364.4644782725954,153.31765366151467,-1402.6687749955977,159.51428453096975,-2185.6860904711166,1810.5555864248515,-666.4708134178445,3816.004881840743,-161.0352655427902,1107.8307508981206,180.67944124006635,-3619.0015023437973,98.54692637915188,-2430.0752720470005,145.8999571244113,-510.8878597074604,118.06889188289361,2433.8028785241486,124.8307308006512,-1408.935173034107,0.013931746664866296,-1992.7427964295161,2377.6142826472515,-236.7134813593526,2988.0081103525017,-59.822715464246585,-21.609092376697845,24.05326294268537,-3417.217750833354,67.25048169292828,-1428.1505906555549,296.5069213077545,64.3768198329019,112.83836119428699,2620.2264979279726,125.52726426984397,-1940.5684443460432,366.3954056856065,-1900.4501335943746,3053.7565983461473,-747.8791205997222,3094.343530698494,-73.53069809311509,-515.581077727918,85.12794087415838,-3715.0700948003764,156.91111572643882,-2033.1240730130367,124.85137734096051,1230.6029918771392,134.1222067456874,3019.7206344152546,104.75021275685589,-3097.1713244015714,624.5399889167815,-1555.88267454588,3029.1793840644596,-291.8364673105857,2590.5889629381627,47.56999998886218,-847.1410957116367,129.391323927557,-4726.224723078625
60.58124923706055,2.52960205078125,-1971.1855758444754,222.57663194588469,-3205.3432155204036,-1148.00796404701,-304.6132249952219,-496.42935864660996,-1831.7967744330526,173.69112362215267,-2374.253628557872,222.76614917895407,-2392.981233358302,204.17748850708114,-2170.203328199618,198.01751636036042,-2452.4090469068797,243.5603254175387,-2483.3144735534643,208.81367700930528,-2357.6796766391017,234.28552089956287,-2711.8900351375396,213.8454145380585,-2672.8490808093165,238.02046430577536,-2427.3254557762702,282.99849598877466,-2582.8794561510576,227.8372058846546,-2622.3105319048746,164.4583644710795,-2343.5032034125293,217.98655811012225,-2585.905596099169,181.28023076364292,-2647.339907393262,153.67748147284587,-2630.209208907616,198.74946956746433,-2957.079245928608,175.7298728225999,-2567.880666914633,116.07890846159914,-2539.2930504146925,139.67260385907738,-2653.869626187842,220.32450467295422,-2769.504763230555,163.77212670752186,-2481.672995946389,128.75494197011014,-2948.6222794124787,157.44107575477832,-2864.9744809375843,117.17384145371499,-2796.202960288288,202.2392804019324,-3017.673381126155,146.55262845581169,-3031.9514775317903,214.5599029405833,-2732.8443112460427,110.96609109528498,-2984.6923720219743,116.84612495290597,-2943.08056261824,66.39989932586964,-2583.941582254409,88.10319378962556,-2681.885870167409,180.14778303278771,-2277.7363769602975,32.96825496278211,-2596.5769957401344,92.29709875609045,-3258.6758402137657,99.03887682395654,-3422.8850114904176,120.419033982883,-3294.1901293345245,135.04539235906077,-3742.9862998333397,217.37955457709924,-3698.833375920495,124.7927611932078,-3483.9335135200754,80.48025132449767,-3993.9030714435785,36.15932858054066,-3913.282312346896,13.962720710505995,-3802.489001995935,83.4304368849989,-4477.692588045158,107.72409037990586,-3893.468202457768,96.07715729345526,-3779.1643754930874,41.964178905818834,-4462.441578524114,134.89288340489827
63.1108512878418,2.499797821044922,98.4803450402315,-644.6540550498216,-172.85234279225557,-3084.9089123789,1581.9299893867383,-550.5350721043078,1170.0460959890816,2.6885184344240116,-2833.9440426118267,-5.092267696667225,2699.558332193622,52.656279488317075,-2789.8846515462383,3521.5955959393277,16.1692936256392,-2482.1282441423245,139.03226256315537,-967.790913886543,-6.219934217457862,1749.5556277607009,240.64857232489982,-835.0191643499224,3066.3422108538166,148.02991132057082,-4566.22355940395,187.93430304752815,431.30889530515253,211.13751029322393,-3230.1506346289643,1892.2316921090587,-146.7552014587119,508.4795440390574,118.45337092529195,-2585.5123276535755,222.06547536956293,2484.620106689243,257.7362728940913,-2616.037467820571,3433.04608680988,-113.12114079824191,-2523.586253597735,9.368071164692504,-264.3782398853309,88.02258761914118,-772.085395022521,330.01524334693653,-846.7573488349094,2631.1772412450755,274.4159072482191,-4103.274633030571,-11.833923762500588,1660.9474342484737,-149.24942583414597,-3006.410732251569,1982.7166712268163,68.7212059124538,-49.42898482229725,212.47135761409467,-2014.1670406058072,175.30604206135527,2240.567783076619,39.580070874931714,-1719.9146220899195,3075.418796557296,196.38097093497015,-2967.0661765454565,311.8343544711481,-262.64522861217984,111.03431851030726,-1345.6187277379177,550.506765133154,-508.5971234323471,1996.223089387051,144.22845529060143,-3594.3604282842366,179.1467250054143,2165.7107576690805,207.63128223163213,-3208.221223508943,2633.974910718322,-299.53864752169477,-256.4637348473186,144.1364686916456,-1830.8001107002335,84.44337477888281,2206.6742580232103,140.66105697835084,-1712.2487898818895,3618.460044637467,139.59757453784013,-3574.728605426251,114.75275413945324,-26.239920916109668,113.1739518041509,-1804.6827961873605,796.6175143559435,-399.9866063633674,2029.7479316757735,265.3098807726889,-3952.477861856635
65.61064910888672,2.3994979858398438,-1436.9807182314346,291.3743006561484,1982.2829358338308,458.5882339299396,628.2605105732505,300.1526910295229,-2879.9217021872237,853.3992697010368,-2641.9172006235444,4402.866285650339,-289.3114075607292,2514.5411463146056,-34.50464405393114,-2419.272837815573,26.112417314856287,-3626.4121455784707,207.56272317279794,-968.3752568386401,274.2719640299569,2148.2626965419277,272.8110419199089,1260.5889778295664,321.4566893170899,-3584.6318205220273,1694.502935292864,-1291.8166042610862,3918.0548300635323,-319.3931015530959,1698.0053633380628,-141.09605685285942,-2969.7572613536763,-164.03626184273682,-2690.97366812177,-233.48106853520736,-433.87241938435045,-27.324052480262697,3120.6440161950536,-96.80551284652017,1041.6116062166652,-28.799349622039678,-2590.5401780793436,1543.3919984738966,-784.1330738936622,3280.3662348497755,12.979086732053972,944.3071327767198,107.05247258446511,-2873.040906402892,148.88329040722067,-2764.632537590742,196.87730473603202,-91.3427531066393,1.3516145986338017,3686.034723444551,32.23445380008116,522.1926502903325,129.54382718050644,-1454.044191208528,1788.1939778728424,-516.4335889269175,3718.079773877714,68.79359524101075,608.1066393495726,270.574287256893,-3711.358625371177,110.99673199308582,-2353.1955386920345,234.39038076156896,344.5216879450769,167.82231750871364,1998.4414712864468,233.59994145841995,1001.8232182096262,340.8891829978347,-1962.8078227545823,2474.605930946556,-431.3774511570163,3317.056561877449,24.45368023231481,114.3222178304386,45.70576894559018,-3890.3637509271166,93.57786373771643,-1938.1361768612242,157.5862099760069,522.6795358344959,197.09031782026506,3027.911430450351,158.9119292006821,-2042.073855942208,333.8573114026693,-2444.4691319405974,3624.6050261481428,-728.1125518187505,3412.94874677568,-175.7437045990244,-291.99268633551674,93.84015735874146,-3556.935434333089,-168.90170548210597
68.01014709472656,2.4197998046875,-185.13442326970727,-4609.7571104929575,-12.426465598433452,4912.314529521159,-2384.670225122159,288.23087745353484,2608.0775028615067,58.82611537547207,-3974.1563068088535,-120.52421869969173,4445.241295011174,-2375.8447989328306,359.06874240113973,1927.4047126409707,332.0078943508115,-4474.0356544872575,41.32473932545898,4422.039909587952,-2196.4615374693603,301.2064241637217,2421.080632992695,387.6224539615693,-4538.0392812943655,330.76290963918456,3605.3164710695073,-1865.7668477577577,-15.453588454225898,2836.3052373886267,191.42447826124283,-4499.153949597138,180.4908015067045,3294.6659330192415,-1756.9512898224823,-82.39619865027522,3347.7566158708905,76.05427936665833,-3709.4996326835035,35.471005529911984,3212.6417255227907,-2280.2516090054346,62.26383873532374,3579.188153566489,-64.10751209345386,-3540.5896883235096,-161.36871198956203,3517.4284751103364,-1763.7025102836192,270.0259011373758,3276.7862934988093,118.98646534708679,-3398.8409605123434,-37.22666864044585,3573.324573321922,-1778.9995265509017,431.8060123914162,2894.274124958507,264.43412811637484,-3436.112305280373,134.4850581997872,3154.4508261729293,-1475.9149243412267,103.27582487608205,2709.2502041415246,155.0725652995471,-3380.875292218609,210.77793738483507,3129.643865544646,-1323.5254990072601,58.88481634437434,2504.892789483286,65.56854650711873,-3478.17655515256,78.60364311925419,3634.264204787132,-1889.7717292323002,127.33809449873343,2219.2037286236623,3.0513646761771787,-3739.519650244883,208.44727355222386,4046.2453062711716,-2034.265157120225,97.13210785437037,2479.6721445016456,5.966959905591239,-4169.002643242044,-15.14927160682671,4286.19525792419,-2199.4522458840784,230.26196992052303,2415.3261498386987,157.08692726726088,-4458.229492490747,80.8965195114937,3969.0213524121073,-2098.6469753148235,149.75447833535029,2560.1645625177307,341.4402106958445,-4973.16000364386
70.42994689941406,2.5290069580078125,-2406.2156344459654,312.7317911735719,-2067.3180871436925,2.0987717744465044,3556.079152632924,-1600.1618535546602,180.3998961403692,90.70591866321274,242.34977108166802,64.32820026570721,326.2628420059161,-4831.763678112669,230.8116362297967,2361.64177544106,-758.8278060975131,1650.8222660515546,-2840.463381076045,101.56868753976363,3357.3944539018175,50.59854834036122,-2693.0289353850008,74.08931430195778,-323.39117395209223,-96.29596764819402,4290.591678859959,-2263.314079447906,18.74514066824078,2632.442981533495,-67.77450430104982,-451.37122040399635,-165.38290068297744,-3282.534393584836,-193.05432867506624,3193.673667554087,-1114.1086429980428,839.0230521099938,-1755.453425989952,162.0367575256967,1662.5979755712287,18.866899815210303,-3148.005877142237,-142.86710900205617,669.3147480264274,-361.27445631007294,3153.301467731345,-2536.0310160367303,355.5837311394655,3114.3309651611407,161.6892414014694,-1162.3066832677441,108.65667279667477,-2541.5749873835316,139.43171513620564,3470.2821815529046,-958.7536183108459,873.3133038475621,-1026.8919295721273,721.1781782945985,-110.2681052497592,322.4785097282976,-3212.9911767884687,203.44667547281043,855.5807797362816,122.84339855164957,2434.7768760468553,-2525.069705127553,-36.12307848153103,2107.029835528951,197.50054958531416,-1451.2793990409943,125.36493256120683,-2227.453910214642,30.77587525920903,3101.276433531656,-1200.9015192707573,214.60899189400834,-110.15289486655684,-1.5871468131195652,271.5691139133578,66.51273930933368,-3946.6431943015036,100.58205356750737,2324.416388820817,-756.9292750733707,2096.6952226160442,-2533.2788684086227,-38.44711259061995,3252.8407963035797,15.322997494706915,-2448.029181065599,-146.58980211326946,-769.9211036846798,-171.46053787276975,4387.543656313645,-1535.5492165438302,145.1625761678021,1194.2822133851491,116.56117581592474,-451.7031323829606,-200.349548995693
72.95895385742188,2.4700927734375,-359.7792818651349,1060.7756193506204,338.5304990051149,-3947.5250113215443,4044.963509554243,-401.29609124095487,-420.5103664223594,-74.56718664603898,-1342.509545059927,-77.86530647854596,2898.4881834079642,76.97824252852291,-1488.5482172717361,4015.3228697131144,145.86061561176928,-3405.740604428664,146.51550689755462,55.17169832224977,6.426414437966352,-557.0546549669705,901.8604122008996,-1464.6743094900776,2476.6244072865456,139.73000606633872,-3831.731055713967,290.5155607083808,2060.9011121951744,267.3772525479534,-2092.9387889164614,2602.0689071197253,-356.38868999785564,266.54638411967426,93.43917936174107,-2315.824074648559,223.81244696359786,2891.6183033294333,241.50915428657672,-2115.7178515377445,3920.564161389476,-308.1070407174542,-2361.608761246448,-106.50703220559595,-850.0531569959924,-60.423670399507344,-137.96202728141998,142.53234925827982,-791.5005071282285,3146.456212742408,-37.37987007713589,-4369.803700287797,23.373742790585688,42.25238534266694,-61.00857413865888,-2580.1301402366184,891.9189457581969,-229.1917721755799,1190.4985382999341,191.83936115675402,-3131.202059281302,157.618045534841,2282.1637353140886,120.76919169408237,-2549.39233336971,2817.660231538196,5.5122463348534865,-870.5824729280762,338.1508974108443,-1149.275016869697,234.158874383251,1655.7769638794066,284.1790316153988,-2050.0807048850024,3321.5835152894415,-18.1140221246931,-2856.978632664602,124.8021891958733,-68.71208340128601,127.0187676489936,-554.1782611598583,921.3353524931113,-680.0034124609006,2715.316949795002,-15.996585551687971,-4003.718859252533,146.23210838721337,2102.064929413063,70.07465582503873,-2690.291441516985,2457.9714480628363,-156.84137069933752,806.2067087785886,134.87781419288822,-2417.9807276069205,129.21380251853176,3671.1495153759847,168.52838705867154,-2123.978786962125,4223.225629645186,104.14775337564402,-1874.1330227919307
