start,duration,0,1,2,3,4,5,6,7,8,9,10,11,12,13,14,15,16,17,18,19,20,21,22,23,24,25,26,27,28,29,30,31,32,33,34,35,36,37,38,39,40,41,42,43,44,45,46,47,48,49,50,51,52,53,54,55,56,57,58,59,60,61,62,63,64,65,66,67,68,69,70,71,72,73,74,75,76,77,78,79,80,81,82,83,84,85,86,87,88,89,90,91,92,93,94,95,96,97,98,99
27.891250610351562,1.130899429321289,-0.1113047835239849,0.20016113510278793,0.16381401201195805,-0.08772474543657033,0.044056863435861425,0.15867668858627434,0.4896658850969359,0.27345698478907976,-0.30582790885465827,-0.21232794537636784,0.06631480810940184,0.2187788113436453,0.33489444603534774,-0.15186003659782998,-0.2025925014577081,-0.21601112643013948,0.1365127168751464,-0.3198571083022905,-0.0037980800044948174,-0.058889335818935365,-0.12643524689287733,-0.050024648770075,-0.06663224377252408,-0.192375944768607,0.005332616323363499,-0.10504936917552628,-0.058201854863773404,-0.13253560882222565,0.011466294657754242,-0.2280805456960513,0.06173287344910571,-0.2285862274566642,-0.007165214924017066,-0.033385518751226584,0.01152295302289083,0.003975685785988762,-0.12166325758038136,-0.10519788122479841,-0.11057856947436949,-0.09799637686208429,0.09226380023138864,0.07458492037496305,0.0921182547568198,-0.10433096319513377,0.12997729792973667,-0.00017134734612143931,-0.011509857636412532,-0.025140411979516608,-0.005053064582657842,-0.0007709901679386344,0.0013919635338005673,-0.025336066960737633,0.11196205597615685,-0.019009538009352834,-0.02196789045690522,0.041212038183327485,0.02639005420041969,0.0066168041925367335,0.0038130678655994357,0.035727889220715625,0.017087996550293545,-0.004278490533181215,0.028996627083024494,0.02764572006264948,0.036672107579172705,-0.07175670126236587,0.0029578320004180203,-0.03700902304188124,0.005119796265423868,0.039213615015108005,-0.0953233060837427,0.016888875229858477,0.0004545519965305375,-0.09422787746519934,-0.011304293697196018,-0.06622727633096114,0.08914443430559642,0.2752561513401147,-0.05091824072030616,-0.12770486192970326,0.15169727570274757,-0.03747610660448397,-0.37196222891983377,-0.09107918396165754,-0.1753829160975726,0.30425482387200753,-0.16100216294920344,0.18849801828108287,0.21917877071004782,-0.07099138298045743,-0.18461036543772485,-0.04335227004807151,0.004880946483046669,0.08495495586257101,-0.16032874855619123,-0.20450067953547196,0.04783783837101491,0.033035248592864885,0.10013952492214388,-0.4371622064937005
29.02215003967285,1.170999526977539,-0.4298697444203412,-0.5535990158246615,-0.12653512330675867,-0.3406833419554191,-0.23902021822953887,0.22961794649051848,-0.14346021407576198,-0.090282798283169,0.1624440232282791,-0.30171968524054465,0.3158795166111685,-0.43813681542581406,-0.11440976195649365,0.06205871986128535,0.35760102960207285,-0.1436237896043176,0.3142096034699065,-0.0747896956412292,0.018567770708341563,0.1992112860803543,0.14316601614630453,0.3161715257632564,-0.20115348527961754,-0.20060877210053943,-0.027721885390095184,0.15739545194506102,-0.13695686180638594,-0.021721223466598674,-0.14939755573368071,-0.09471652998958713,0.041861522440308815,-0.023308488328909832,-0.07648337603462953,0.09502687461999382,0.2461483806461916,-0.048555287884210076,-0.2706771076624492,-0.06969070751810148,-0.1944763250316371,-0.09970621318587966,0.11307017813127276,0.061782029305417645,-0.04566722165239841,0.010898551587667832,-0.2329424296832933,-0.08064498671305696,0.10819346325686403,0.04099849096942734,0.022915546484165383,0.07414143984462838,0.015420055087166071,-0.03483280447193751,0.08610665331829293,0.11778367148922388,0.20151201427776597,-0.05683353918059285,-0.16066508639784224,-0.032133745876714075,-0.04275892713044315,0.13837457006741496,0.03240975174605528,-0.026044100200275793,-0.1405022945241848,-0.1018260709868539,0.10980054576334938,0.058594804248765904,-0.026007726949567985,-0.034406078838242746,0.09986232624409679,0.058108536684455786,0.018777017603611612,-0.2729388050768344,-0.13607116892859464,-0.046897219505674353,-0.0949726942347331,-0.06398925134414926,-0.0488667144476618,0.18811794671153553,-0.09105243395742461,0.08466147051828327,-0.06577915046681365,0.10836668444569653,0.2861516938352427,0.09095021605449548,-0.05506045109506071,-0.04095300243759853,0.10506099615168556,0.1915360755120286,0.014703219699298144,-0.059687140750778064,-0.27942681455459834,0.02083043189320891,0.22475734979370796,-0.3675314283210059,0.14421397457229448,-0.01238290036663009,0.06340982323373373,0.4415340243280914,-0.1091719617722203,0.17819711901203777
30.19314956665039,1.1518001556396484,0.17718728945639148,0.11133283520888626,-0.18480413011199284,0.05054827683808445,0.19189792999648186,0.2541647387972252,-0.1285528836435056,-0.44201833159179105,-0.08236333412468527,0.17837919680611924,0.12084146117903893,-0.22703990809448496,0.16033282001584467,0.1304290571140551,-0.26970658641388134,-0.26386335740927225,-0.06207516648652145,0.07804826083037322,-0.07823571430742178,0.12880671928649837,-0.10012481879512912,-0.25734685751876585,-0.06450120653510517,-0.1412572877444452,0.007986888477801293,-0.12536795606891987,-0.3462449356862849,-0.16493731468493328,-0.06428012848840144,-0.06481318834574591,-0.034775192139376784,0.23899209533224808,-0.07271581598774644,0.04926076904367167,-0.010779817556377124,0.09488851909800966,0.15808354191986276,0.04777594162870573,-0.06592955643656431,0.1557669652299528,-0.029052912782275758,0.00891473878521614,0.02714022854105902,-0.044265637286865105,0.04935603804335026,-0.07350815324128272,-0.01403375680515393,-0.06963468377596457,0.04232076331970284,-0.05138894804986455,-0.09908150750699193,0.04359454178505753,-0.0719994040974501,0.12438723021187069,0.12414060139298043,0.16276512607438548,0.10643165177572375,-0.006692353120584487,0.07765355307449164,0.003479136439350508,-0.014125963308062721,-0.18473226988174243,0.02173730358059439,0.020253925442506853,0.153817479337226,-0.07607161134675658,-0.031688591733464944,-0.28630744603877967,-0.059209487986212915,0.12875237065187373,-0.04929058454285675,0.0576111270591359,-0.21516647158147117,0.0043166457013090465,0.1331864283945311,0.075100285545503,-0.012941679704768885,-0.029252172640314406,-0.06471290763703721,-0.03604481926907642,-0.20477698232782285,-0.10695938744205996,-0.15970274759821207,-0.07775500577560851,0.1891176135073384,-0.00038134610772550676,-9.436097124659176e-05,0.13431717504856017,0.08472606121700041,-0.18028556737752885,0.07238990896269712,0.021287507417598037,-0.3178582648496048,-0.09996650266911665,0.03260588958937668,-0.2364074878027721,0.03272738453846433,-0.13167213322647828,-0.14019397273873696,-0.29036184208664184
31.34494972229004,1.1311016082763672,-0.04174426143315657,-0.09553034388824794,0.012922916825221748,0.09150393604545866,0.12337759394517402,0.24781982104655984,-0.16496364249701273,0.11982680673254119,-0.07824949085527229,-0.02665870193961639,0.19970072232833208,-0.11282176767225019,-0.3061964904212739,0.17020264635424326,0.2531929303292754,0.008227472163377467,0.030234665034404216,0.01238327177445735,0.0015063306492543098,-0.038363271682567805,-0.0180441170049562,0.042496958639967705,-0.1255905322716059,-0.18663122693977585,-0.30739603228719636,-0.013730847965193055,0.285214929083818,0.18470318331153396,0.21084403811631053,-0.04495399152758801,-0.11872961410070229,-0.11994743175366915,0.09148756401151992,0.09700596297599957,-0.1031047085643019,0.18544200166313735,0.03204756226954096,-0.0151434040159846,0.06261047158948098,0.07172624102621639,0.09067120641975988,0.021352448837186136,0.04523018269447343,0.12112383298728037,0.14368445561719043,-0.01940512424046877,-0.13027288264792108,-0.12938688120341346,-0.1004852774170761,-0.014045991664499595,-0.0018913613969879371,0.042079771749732035,-0.023448236779496284,-0.11018893759265529,0.03769375286888626,-0.0063660277868006765,0.08692796988984866,-0.0389308995280809,-0.1711053626515138,-0.1282209154892904,-0.004706835278946439,0.008990615552367354,0.11160444566129045,-0.08590350227155058,0.012781935759933541,-0.011047419141874838,0.09107998541849921,0.005971365122417211,-0.20173767934670422,-0.0030311031377384936,-0.047696312171118666,0.16569940025366744,-0.021633531708973436,-0.04578429369632313,-0.040227543172429645,-0.13130185696264737,-0.1728520513487753,-0.1689810232220783,-0.05978708907177813,-0.05490471835889168,-0.11819840760046313,-0.041849914628685606,-0.09652184110031709,-0.1336172836441981,0.07677688114809145,0.09515500926581659,-0.040857760452234035,-0.07732954893960192,0.06152038856932781,0.04354982479303113,-0.1861566936358951,0.04614447974585439,0.17809076301816384,0.11201174918136374,-0.022045196461847452,0.11101392389192274,-0.29550062133761335,-0.12214095470950094,0.30378968878522294,0.06698219411356485
32.476051330566406,1.1310997009277344,-0.07683027893186872,0.22670374138238522,-0.16935541208487823,-0.21214953584501425,0.48637911862346234,-0.40651705287723433,-0.10481254106359215,0.3521296434135822,-0.03149019243431771,0.27802509025415484,0.0006330546242665491,-0.016904546395611453,0.026613559433141396,0.01572517701132678,0.01504159002589317,-0.15552101418673653,-0.1321344115282337,-0.03336386942094496,-0.14832546403838198,-0.22871950795284396,-0.13984739317239345,0.1288484670326996,0.1339600443352122,-0.3761189833252086,0.14075990998347382,0.32161138764856767,-0.0633069972956596,0.154732897865374,0.4504652725092063,0.036867181845364555,-0.17822525646013182,0.02098940934574281,0.16073516606416743,-0.056239588012368835,-0.09152615350655778,-0.11110686212724129,-0.08071128531082518,-0.22764519357113877,0.07748594169521705,0.04562693204446392,0.02354946428281289,0.0029746888807166156,0.13082397172860644,0.04019380802068173,-0.09780377441660723,0.007420222001556315,-0.11585084810733041,-0.032871830968269525,-0.06699848715549767,0.032859151472386945,-0.16564835647974763,-0.03853663286290081,-0.07279256830493303,0.1325518510372064,0.12870631473655558,0.1143971324461215,-0.008163695958806314,-0.09985261572481445,0.05950344447147772,0.02023814612074456,-0.07873434862110325,0.06414836743605067,0.08000118482569182,0.005295882308845324,-0.0709600597452984,0.15773812776234342,-0.05777502555603165,-0.11300056851012648,0.08872711776682914,-0.06455837564093915,0.07089601946618376,0.08765731484499095,-0.007596629539627844,-0.1469261241312344,-0.17224198247908365,0.21244693048897462,-0.2603953489212508,-0.12548141607757926,-0.21498103562743795,0.22823170501100926,-0.12876483719639042,-0.0772553448250476,0.05204274536439254,-0.05920205130539296,-0.07296608556198748,0.11220127625734783,-0.07433804579968649,-0.030342043049682205,-0.019163746192386373,-0.12850543207570422,0.029463091893601995,-0.13373441300015282,-0.32658738896639544,-0.11341581954787544,-0.29130029503828353,-0.09595961284738808,0.01052163921506191,0.1399007040201577,-0.12540912635989956,0.29970430765970896
33.60715103149414,1.1413993835449219,0.31590282891587496,0.29881628916808045,0.01129556173844948,-0.04512890609278414,0.111686643132006,0.0036015872987899145,0.0865540171649796,0.15730580499798077,-0.2503355111300178,-0.5217588142679337,0.11644031103008148,0.18543612703268228,0.021274636632341495,0.003921749963196499,0.11666393000817994,-0.1788487682571518,-0.06848949907758613,0.10625273480275685,0.2609788980142984,0.006252607987879272,0.05961815747968623,-0.02898709170762264,0.014877051132181473,-0.22412621923398268,-0.002735942258024926,0.17150870261674542,-0.12845828346068977,0.05419506059036807,0.1462645124026554,-0.03333772816185291,-0.15495218348502612,-0.04539504360198398,0.04394054599380228,0.051331889036659924,-0.04370918478518115,0.0018929133811784935,-0.05370589972652157,-0.04673924712553083,-0.03544134224475361,0.18919027379813536,-0.07112066842309032,0.06793004665526797,0.08549436907747944,0.05627861528968432,0.09533249173467942,-0.03866510648152045,-0.10317425899493168,0.0898191617140696,-0.013107878383174829,0.0009630704289971467,-0.05355041273490363,-0.05519924716387391,-0.04751282756699038,-0.021536111941033824,0.10085932436755742,-0.11377713391262254,-0.10947799279345252,-0.02037262118853638,-0.10578140534894497,-0.05737010958752933,-0.08966669349952569,-0.035501414035065675,0.010412992860729466,-0.12895374927582992,0.0008730546345828219,0.06510095762692665,-0.022921244674886158,0.03355609940351312,-0.0023064807158246835,0.028740290368328918,-0.08825961034569793,-0.07099049713763456,-0.08375468526906987,-0.026425168262426923,-0.02190319728025728,0.033372359521925916,0.07044923196353813,0.04853293245295488,0.697999684405661,-0.11307998190305504,0.07218971396234258,-0.10282515567646354,0.05509130971656283,-0.20394075911980564,-0.028079418086975377,0.38052535359065576,0.12643994548670157,-0.026993992607975477,-0.0538086813562184,-0.004817986766825051,-0.14716162853742049,0.022659643652706757,0.13031565599601763,0.21268021531509365,0.07275710961980858,-0.02695080515964515,0.035178699626393445,-0.04323925019094989,0.11956366349810149,-0.13609318858215924
34.74855041503906,1.1711006164550781,-0.2734555387465493,-0.02022619719776738,0.21544755663466914,-0.14297633105632662,-0.38435923171330744,0.12902974086964222,0.016212407834953396,0.0878213576742041,0.11529997149297151,0.2261661339156603,0.1086195966371522,-0.5145181722926686,-0.0886573093676555,0.011008122997892639,-0.03616673543863614,0.12202898099066137,-0.2371399378383207,0.022110762367304415,-0.061585608708727306,0.04793082567651364,-0.07688794236932239,0.1199319769222756,-0.056935981513223724,-0.16998709327633238,-0.06640099267169801,-0.050241476081133295,0.11995826540642539,-0.15321527148499509,-0.08705725255955586,-0.03766013641116478,0.0658255210058629,-0.04731384251098286,-0.13051000256103698,0.2019399828408364,-0.10778512172040144,-0.0570819295929215,0.13777523130671407,-0.04639629349661419,0.10190049064368906,0.04980599772957816,-0.02389532945028333,-0.04658092778004132,0.025890512639406844,-0.11909791948006965,-0.04167830871890914,0.024893900489287503,0.08268047994462467,0.0011898521468843293,-0.05401651840093317,-6.975791860213939e-05,-0.03792296016291839,0.07653528906305168,0.02195768516395093,0.0710746702110662,0.10265188448726639,-0.07112145558565787,-0.05300078386579183,0.044405238810031555,-0.029588043061681214,-0.00955671454551891,0.03384129933406252,0.03642067906503406,0.1708624747230367,-0.04868093197980403,-0.006445442258575233,-0.015895596097547482,0.05487878085510741,-0.021491148516070556,-0.12873763982672834,-0.1340734419544246,-0.10100856508047963,-0.15209118437464217,0.08415989236476701,-0.18967272723432502,-0.06260097242873454,-0.35191475733665356,0.14940242324229897,0.030865363494815067,-0.014380590070586879,0.2888715500884331,0.10538082399531454,-0.217851246060684,0.18970935769587233,-0.13316307968177438,-0.12213982134579106,-0.11332889061610629,-0.10692918620597992,-0.3081349630569254,-0.05309543896272519,0.14174217365483455,-0.13920014511082382,-0.09478895186263013,-0.0037995147666147443,0.172582871025206,0.008338667023258504,0.0047772153588814415,0.3544724758664536,-0.15421598779466875,-0.02998281265083035,-0.1837084690184264
35.91965103149414,1.1313972473144531,-0.1664711040781542,-0.0484249135147206,0.003588152772814872,0.08702952557614389,0.0037187885625020057,0.11615337582045464,0.0634333133883115,-0.25819090027011943,-0.2099621697663345,0.1840952098203735,0.2205832982747265,-0.10830939337603683,-0.2699997902899883,-0.25010956093497927,0.6522345496782133,0.03823686363948475,0.042636020458443294,0.02556067193213439,-0.016189904784033104,-0.005996921756307479,0.020835138986355528,0.05679457413287864,-0.24473459280878096,-0.12627465674514113,-0.10925829282396787,-0.06663126570535066,0.11018764812176197,0.0695406653727571,0.16386011170078307,-0.16459542509504507,0.07955675423426325,0.05750083863579959,0.023108083446377447,0.02372531243275961,0.03720265269250721,0.1422539947909244,0.10079246677136447,0.03310816736323423,-0.08297963286576583,-0.13595893903408698,-0.10702060179288975,0.04943091687861602,0.03260652664174721,-0.21318881371519177,-0.10796264101499306,0.08627397789297413,-0.1092280124169259,0.09777877440332322,0.07360645678704672,-0.04325452638696595,-0.06012367584584949,0.18840608675739556,0.0674623824507602,0.027454549776106927,0.07897709280916906,-0.05236094983013422,-0.011770981460283015,0.019640391113993346,-0.0871200059946291,0.033730351304113025,-0.057167507704285594,0.12331550471088004,0.3043442006496231,0.15100454032533947,0.012636702158180007,-0.014762241221516599,-0.06464318855036644,-0.08139707973675707,0.04029063199009005,-0.1419811997345541,-0.1558640347747536,-0.039714173283779554,0.03837871658591965,-0.014279454484137132,0.1985236020691657,0.03366894532335479,0.26282657343451493,-0.09073044504626132,0.15425251198862924,0.08654990139875669,-0.1897513589121628,-0.06683257596206589,-0.07526105677904368,0.10927560083648359,-0.07968060529813775,-0.17520517736207467,0.012742875730986904,-0.03966808366840944,0.07268826154626909,0.09042620488214231,0.021476561844283523,0.05402508361007273,-0.13982960222993598,0.07907811923079644,0.16499304910034152,-0.13169646599103282,0.5692898539979041,0.1897676808220043,-0.2847890666628932,0.093621209632147
37.051048278808594,1.1211013793945312,0.10725132784367342,0.15615511236244967,-0.12190105138803649,0.2053384536117254,-0.20109555513779145,0.005318256347247537,0.05377834011764056,-0.13304978654723504,-0.08305782631011321,-0.17277298259435817,0.29711809837368053,-0.1556794958970694,0.34865338473989155,0.177564497381188,-0.1675386999511224,-0.17918178376741806,0.04549984405802294,0.12741996806157807,-0.0982281186079432,-0.12686997746817982,-0.11596084481755352,0.0021720485664801087,-0.04012048429237712,0.17754096218655693,0.031279122397624246,0.12392083910452911,0.15008336862148872,-0.002819902091089935,0.16952529322668355,-0.016972078880346266,-0.14154781700775404,0.14796530980692135,-0.01675263075604726,0.04000934361245706,0.08587201335600211,-0.038880039612449346,0.07525425965876463,0.05979636704261351,0.15211708769213253,0.04010270722879022,-0.15462583499863353,-0.089290451887613,-0.08848717617870562,0.12567892545439424,-0.14115681422518528,-0.1378550988785186,-0.06274857751749656,-0.030958705509813417,-0.0005915039935544719,-0.04805864068911743,0.11862616730479611,0.003541667688564412,-0.007334733072548573,0.06256455420264881,-0.065897378842382,0.0989206744624068,0.003632954630361642,-0.0701561851744951,-0.01834124855749175,-0.05291747741590866,-0.008663297273926715,-0.02870232267882021,0.14210308238211755,0.05359229764862068,-0.006340173633271914,0.03694178590630441,0.0729523509378478,0.14319288076405598,-0.029310355085749702,-0.04134977345701429,-0.14476652626834857,-0.0031120041714162907,-0.009318410368782233,-0.014912814720281865,-0.035445467857855746,0.02721664016157833,-0.23255711271364018,0.10880801774944876,0.09622187445816821,-0.0757735491034396,0.18935429243569446,0.0037266032921759867,0.16746834358279136,0.2168979038347521,0.12195572159600607,0.09451468609723254,-0.022025683891451237,-0.18583932305161693,-0.05376684352004516,-0.10289258737544565,-0.04418683364412572,0.06062253413175189,0.008766808544852442,-0.1934136997313554,0.1405569525512737,0.26183377562230153,0.041870298381633836,0.4467273033157702,-0.00860229084056264,-0.10094134062709664
38.172149658203125,1.1609001159667969,-0.2408536902817991,-0.0038539656326776308,-0.2653353250462576,0.30216039617928336,-0.25156563611240784,-0.03193132638011914,0.05782482803482715,-0.3050321773823755,-0.34033035494824804,0.010809449933001862,0.24054695229063472,-0.19541098710148347,-0.1891308240415603,-0.07657644248098781,-0.2290227123478945,-0.37242386151406187,0.04404415332361183,-0.21051265421580898,-0.10037312744056573,0.25752385219137364,-0.020686313528911024,-0.39328452417058457,-0.40107852166301117,0.13472840251535095,0.31257899215108337,-0.02714514296039991,-0.1825807822431854,0.11105764823262702,-0.004829729469839152,-0.013110984687345562,0.25290347997679424,-0.08381496491550232,0.1966553994330227,-0.00759096111342112,-0.13746065425636228,0.07818154461952245,-0.0358441181377432,0.1829926044917184,-0.08500988383957962,0.0026763456567310173,-0.03997230044271334,0.003600226514241871,0.038954869471616645,-0.027857392626006696,-0.025131826515089842,0.10314723627853693,-0.021884044848466726,0.03383118290355294,-0.014783947115447523,0.02593765525398747,0.06866731071928425,0.05309034807641419,-0.05067223027447529,-0.04585813194273993,0.1340232722648359,-0.03104732829417213,0.030909464450623546,0.02358785233136886,-0.006012610099687834,-0.060390621620477654,-0.06596063452600757,0.11045110233002849,0.230932586971831,-0.015554911161678337,-0.02193446213025554,0.19195373537416166,-0.13848075511707347,-0.18040906912167545,0.005059692208029544,0.13735563889705796,0.032643460407789295,0.2749504777212011,-0.14060176282675843,0.12075665371776562,0.06069085243448407,0.11690967916526306,0.1771537626460477,-0.19029910261126234,0.0051298582722034275,-0.05748620109916548,0.011628181473497104,0.21827765984242176,0.004609844272130421,0.1247377854974856,0.014828543048017779,-0.12001804339912492,-0.12936344591372184,0.12484783558220269,-0.0006297645712253037,0.019560401826657234,-0.164127088751993,-0.2675930786571545,-0.05916820883586933,-0.37863817746604167,-0.028633970719151497,0.1206365072811874,0.12416789998216898,0.4347043751011406,0.22467410889811068,0.046981525008373805
39.33304977416992,1.20159912109375,0.04782907029270867,-0.016966721228778084,-0.2411126416866194,-0.44727508264951815,-0.1233692343989241,-0.19876056629582967,-0.03380664916131667,-0.18367238936151195,-0.10948777854352731,-0.14552528344486926,0.11750555953200181,0.11419125768415678,0.21829608623468516,-0.12625302084248868,0.08254292025959127,0.1128053231719624,0.023086589351336246,0.26158165137241174,0.01876339905909369,0.018873791671815934,0.07844744295833214,0.018927506436829142,-0.034155812852440556,-0.09935530729794229,0.48265715705140744,0.1644715355022494,-0.1631101957259072,-0.007477551185990097,-0.18678130017129313,0.1017296173358443,-0.12852343215900439,0.008587476721918057,0.030153825508621335,-0.08491960372512858,0.024252365445629406,0.04056833734051425,-0.034467938655507804,0.026921409819866148,0.012507799919202018,-0.035002128160455566,0.03974803899274001,0.007526798881775331,-0.050080543091239244,-0.004814805667314713,-0.009934486110915589,-0.14067999140607648,0.11965369265291408,-0.022015835749891476,-0.0925938572186718,-0.056030005107072185,0.05400195402521725,-0.23926369827686472,-0.1331257226559685,-0.19811091511895085,-0.03259443530348459,-0.048057101767899284,-0.061937539632464796,0.05184367564091832,-0.10762720238274366,-0.025834335236623235,-0.025743636550580193,-0.15527294278458006,-0.0442280020453289,-0.02068262662547465,-0.03835518140603589,-0.0021464272301528475,0.09944058845622794,-0.11612657407648365,0.08358032520281893,-0.0754067235625469,-0.034602133593111234,0.09049296121157518,0.019181104959333624,-0.09949103434145111,-0.2673278486464703,0.028758873998300842,-0.027402103303692943,0.08882528677102641,0.052268125132876986,-0.0885903247096479,0.02706477845885845,0.1552648119397154,0.09324468584170952,0.17362035295134806,0.10327378196481363,0.22505734636259506,0.03710721267365663,0.12083014782630036,0.10733828501262165,0.02880876770002171,-0.036720675773768335,0.27476510932886794,-0.014608719251651449,-0.014917835138847521,-0.08172884023201736,-0.0032351301835235177,0.1550839246641812,0.1988700262728586,0.13542527832215534,0.18617275411008352
40.53464889526367,1.1511993408203125,0.19106451735047392,-0.11125700392117766,0.20006737275122854,0.054240525370392326,0.22762300729559942,-0.018316991008342685,0.3112305559493529,0.003906371284420271,-0.04962249214567736,0.16135688177517285,-0.07389539562060708,-0.09150188677797352,-0.2830562247025099,-0.32670928607422267,-0.3814492774056879,0.016129601156228357,-0.10829852161789798,0.05727122013611906,0.18157775312601582,0.42500825145154686,0.15409049083020754,0.12160166489745974,0.06702537610754201,-0.19731049064833653,-0.057557697928320425,0.08488413215866647,0.007740818346442292,0.096142202104343,-0.017549334048389487,-0.06413070140107396,0.12179694512163498,0.16701238876901967,-0.09866174091323196,0.04909161693930749,0.16846654139256922,0.10702102089379152,0.03406678743736709,-0.016579135776064412,0.08843615352826416,-0.01566058602675825,-0.03115566701314371,0.007967260693240476,0.1319807061355122,-0.08517990552399095,0.04553868026985326,0.05410700177499816,0.03423334939563699,0.09514353831086017,0.07779103574430998,0.033962538195298056,-0.012905622181546415,0.03943121103704712,0.06344877234117326,0.02271933480374594,0.023893146277218256,-0.14277315174318705,-0.04265103474627965,0.07299984354591695,-0.05553773853553298,-0.057726656069780106,-0.03809996545934302,-0.08762328367579206,-0.08482960707437809,0.03653950564808379,-0.027587287256736204,-0.05401353270770694,0.2687424808873344,-0.05109932251352316,-0.011038308505250788,-0.04013137438352746,-0.03493467300030681,-0.03196388871963698,0.017240222389685454,0.11887391086024358,-0.11301603941867458,-0.018455181300917833,-0.05994261116258118,0.10246486511920132,-0.14943158728654496,0.11235733794656745,0.01492586589759648,0.19102926629369898,-0.12820200660369824,0.1212113145509192,-0.06198202668342786,-0.2128567869732737,0.1500374389977867,0.07237028656934089,-0.07693205814380275,-0.1260196014862236,0.00877441936179758,0.06358256453574884,0.09983869771726969,0.06945203612554542,0.17337775911800454,0.13675684862599619,-0.10879572760134171,0.1889174175611114,-0.060327260707282115,-0.22794536176821437
41.685848236083984,1.2813034057617188,-0.2327283036634441,-0.19251771103061036,-0.26198580901007196,-0.14235175304903055,-0.23334177314646287,-0.03628640032985291,0.16663225573611137,0.28070178423473524,-0.19757324952874541,0.03188327706955163,0.13431158984807717,-0.07243402656577365,-0.19571273566458486,-0.0714371116124067,0.01814329405858221,-0.08833254846357931,-0.028702535424832108,0.027680101110513278,0.14569321577977287,0.06846232742431653,-0.09119066011483229,-0.1293782235453879,-0.10082205832689087,0.08434066630530183,0.1406899026438215,-0.00894915244289475,0.08083995157931785,-0.21704053779770227,0.06184928767521046,-0.07492097605536126,0.05812335753076496,0.12127764865036213,0.04495247553195319,-0.03923895626055956,-0.13794277395141508,-0.05738623449930851,-0.07041041965947041,-0.07223026264406103,0.05295472608802483,-0.023092915366115085,-0.0463429756606045,-0.0829303652416114,-0.008837460602313366,-0.05893248175537591,0.03280566038187278,0.0426525709440472,0.08821251273790678,-0.002284999582306287,-0.04881745671615671,0.058869792045706325,-0.09867815223771219,0.05337960628111928,0.017174981352167856,-0.1124420538674682,0.04785769665555019,0.06616838231912535,0.017490222090799673,0.13980268935875323,0.10327771090476251,-0.025800026182630966,-0.05735654478579933,-0.08601875598055701,-0.035488951535822384,-0.055425900925643375,0.08630519861211444,0.011636704288644887,0.035588592757628434,-0.036301897414541026,-0.030122647427429705,0.048400315816420236,-0.007367909224264234,0.01771009568401355,0.04562428735069275,-0.09982293262611008,0.026035396501727922,-0.049094347553796575,-0.08358988035771346,0.004328553613676788,-0.05165130493831974,-0.022206968489667914,0.012428190130804137,0.026586656067365183,-0.21454073230179194,-0.14367346561242572,-0.0077417057317402515,-0.06201076309812313,0.1707149946310802,0.13209652379058703,-0.07827005769024227,-0.24436415246746507,0.08815461440754034,-0.03487908680358249,-0.07433437223244797,-0.03837742074978081,-0.06760988550916829,-0.07439046711538887,-0.02512589918115124,-0.0358939489335218,0.0002107297158124178,-0.05808649722673494
42.9671516418457,1.1509971618652344,-0.050634870223613654,0.1571277065413422,0.3330886085556242,-0.16757602951130085,-0.1376536559177506,-0.07092815255863129,-0.15386795510485268,-0.38815746769620585,-0.21403179503358688,0.05475167920765238,0.0466531246536071,-0.008271644437829143,-0.026608020992802697,-0.1806597679816773,0.17508555697057088,0.06805038629201791,-0.3686887682460435,0.39957762445957234,-0.18086687067197466,0.1046817123871213,0.12006183765611513,-0.6055535976810847,-0.3325229263913014,0.12545270567919697,-0.0664940706128627,-0.11459224109585098,-0.14131775154472984,0.12132633486998157,0.09993645496625757,-0.01824214251548909,0.01267206546998384,-0.13922834557023728,-0.04786913844272714,0.07020079072724182,-0.2579819945800957,0.027025511357956944,0.09009459204849163,-0.03840692069666657,-0.18720093710961233,0.05523375411888226,-0.010044983728048379,-0.27713658084439086,0.004738649568645796,0.07243531745329498,-0.08278838189037893,-0.06507286842758499,0.0955025097414551,0.015363882230431234,0.023226713478397453,-0.07140475409437681,0.010028480621729877,0.06127172883516712,-0.10197136255003891,-0.1227203456880601,-0.0886053234797697,0.09424220527688774,-0.05023447380395139,0.01826923055955101,0.038251883297151304,0.03578670476497234,0.001249611883743413,-0.0932034190224397,-0.0452568805352483,-0.09161100620485073,-0.060793726076267825,-0.07410359152068124,-0.009284812452603056,-0.028574458245533698,0.0458298373334944,0.06854545052002173,-0.020248428433182197,0.07219186284871003,0.1360788952680078,0.0031545740160046926,0.011338455399408823,-0.05858147435644055,-0.053208195932399116,-0.3296374835534187,0.09471798581996858,0.006501662195093311,-0.051025135241117306,-0.08434830053303875,0.12747092137829819,0.05986010002658905,0.04197588423143123,-0.08711486119520859,0.05248115272312352,0.06358022589177305,-0.07803746349216409,-0.05399672875673159,-0.10569713285314275,-0.11937147633964362,0.04306985890840947,0.192973410435158,-0.16491931166529133,-0.040551525918329306,-0.16346370381990216,-0.25542334656725063,-0.16356091484518587,0.14072552330230767
44.11814880371094,1.231201171875,0.15849429839795445,-0.2148167095062437,-0.05529955081097062,0.3225599785767938,0.08111546627688557,0.023234507135794336,-0.05205995074165302,0.29528853571746216,-0.10881148906106859,-0.10538961228584624,0.28072940840453076,0.014545066837609259,-0.10398725589278733,-0.07853179650483724,-0.08280899044268601,-0.22323354332027595,-0.039308277441559,-0.1227516199522017,-0.0954109052390687,0.04977641581722496,-0.2689583484784289,0.007301816761848347,0.08570620796908657,-0.06295895010359444,0.12899935784877598,0.008594850552546246,-0.07503081971236322,-0.07068367785845939,-0.01902755657315205,0.015941355893244018,0.09289818652985964,-0.010604597577083916,0.05000204186135822,0.02488714595322062,-0.03725898318654517,0.07597863474958232,0.21642306571216235,-0.019361525017873096,0.04843479532567683,0.022127609785279227,0.0013212345916730952,0.038467985191315855,0.029158477572079244,-0.04740268284776988,0.0029776750762227477,0.0020055257642363905,0.027953581145532334,0.01939301473134968,0.02939420966952988,0.009548779276996669,-0.007745387046593911,0.07220786670313278,-0.04010210604999957,-0.015265556657055514,0.06009094200571484,0.047796843702917896,-0.013499461706318805,-0.027562507108942556,-0.0026892811642275885,-0.050670747947587684,-0.045948160699850325,-0.02140942511974742,0.003062917625546689,-0.037146402087128445,-0.018965775993907263,0.0014355563233330014,0.013916575095715426,0.06572912506335646,-0.013826570840974144,-0.010576838151195886,0.0470816520086554,-0.0768291393373845,-0.024112880931644716,-0.04099097551031353,0.056684313291693406,0.013773656563340566,0.004815451201654794,-0.03639916768058703,0.011602901286398647,-0.06361300558015588,-0.09088338768932021,0.06439697832146464,0.05351032309643658,-0.03573216302534536,-0.03487981998348314,-0.004577145132514143,0.03604834543094539,0.1652107254005109,0.0681272652919493,-0.16412993020837258,-0.2743958929851167,0.17845459240584355,-0.008972922271679257,0.17287470952849088,0.07975465502219509,-0.13607198752120367,0.05316118409703813,-0.004762482870416682,0.28083984553076363,0.05541591326087662
45.34934997558594,1.2114982604980469,0.2066554927836712,0.15433425613330734,-0.21284958526764416,-0.10510081406699663,-0.29844204015309606,-0.05058145173317442,-0.02333907892187846,0.38383755200104364,0.10192960030583381,-0.06808648697652196,0.01878116842115019,-0.05444011462705008,-0.02596632652208583,0.16575296580509646,-0.10805532682366917,0.19075042627531105,0.0678053272124288,-0.13926270433008348,-0.005590615852702659,-0.08059485263292353,0.03988800601361894,0.19483862261136498,-0.08792730015224477,0.21535257771581684,-0.11562012501773336,0.06474074901829606,-0.07263272241644565,0.07281571855212807,0.06861437313035525,0.0014256166063511323,-0.22617924346184126,-0.16111849766615338,0.13076978508839537,-0.14441620552354148,-0.07613720526799064,-0.06532355110613713,0.11147134833529732,0.04321307223917432,0.056200389394601175,-0.05043506451750448,0.018646094420323965,0.08718435944754942,0.07607427842653768,0.03699097404239025,0.07333054448808685,0.03474906122107517,-0.018016311044565088,0.005550303979941597,0.090614578061367,0.031269809630815514,0.10381033006888067,0.03154836142629314,0.13601668363378128,-0.03950644264624254,0.014480357272108703,0.12915287069740075,0.0183424123603199,0.008991962605133966,0.0623068947200843,-0.09804082113510583,-0.038272046390202714,-0.05610103261932996,0.01920349981660825,0.12898188623892837,-0.025375986358869174,-0.050922601853760005,0.16401745517605287,0.07468839134153193,0.1014029766250753,-0.024561365823939658,-0.049727551868014405,-0.054535545486926774,0.029375177145999357,-0.1551058607120697,-0.09969152870800534,0.08051811106169987,-0.04178630088255974,0.12162208458421553,-0.22549298474783278,-0.20644787493985878,-0.15070122754999196,-0.24736244074372632,0.00925572637643713,0.0181523598370602,-0.008130647366904609,0.030128845089655236,0.02973149405664524,-0.039879585949907856,-0.04540222192005328,0.0170542794763041,0.06321763239653255,0.10859394349669804,0.2606408245455926,-0.15744418345529043,0.19284310271986832,-0.12526122879245996,-0.1913153646847081,-0.01641019163982512,0.0033803379192978984,0.10609929490729599
46.560848236083984,1.2311019897460938,0.12158162528921049,0.007840589303021275,0.03233021195582929,-0.13358910084428338,0.20245208087495603,0.01738869781471596,0.06788589646491049,-0.06617303224706775,0.3116084607155701,-0.037677270511093736,-0.15721690193837284,0.1493554247604941,-0.3429752280286343,-0.023745902169766745,-0.031402068278516826,-0.6066946506222998,-0.05830428199051523,0.0575106782816161,-0.01890767069497644,-0.08992662725837818,-0.03314508110161227,-0.03301717824197953,0.13050664596977932,0.006841459926059758,0.0917329363634898,-0.04195959566461493,-0.06544228017485215,-0.20715689982095611,0.04461037531216837,0.19740749628903484,-0.10913021961440368,-0.01064798632183176,0.016193886532624453,0.1453616936821692,0.03285119896198695,0.06960471446210366,0.20296152748800295,-0.051004272446118486,0.013709240095919499,-0.06360183399830067,0.07002949322221015,0.013713647821497104,-0.1289861575186992,-0.1521754612286416,0.1387142875323784,-0.005585829310632181,-0.04154997925914183,0.048659972834536575,-0.02035778232495193,0.08885002531101477,0.050400701979468644,-0.021940986123153445,-0.01516196551444847,0.09001879381886295,0.059554130465394164,-0.03509613642948958,-0.00404070886333029,-0.014193735341119963,0.010753314762516005,0.06857675672457877,0.042844818499896214,-0.03143535246502499,0.0584535700192374,-0.06746937115425303,-0.002083756093948147,0.13146346520960434,0.02738348809293102,-0.04907343413828579,0.05451380666144096,-0.05912214947270272,-0.14989795261506728,0.02973865486341661,-0.01974699158677642,0.07997572701334225,-0.04289975554237949,-0.1665270113593232,0.03178610690335843,-0.024356563208348406,0.14002185775187034,0.03389796901638149,-0.09011305912562477,0.3353087285132255,0.13507170308303773,0.19699504567897896,0.040907173872535396,0.07822397293955899,0.26029634393784223,-0.10249882036697974,-0.0686077431195724,0.11981632318108248,-0.0825094917990488,-0.01748953477396866,-0.04259029658569267,-0.32502332863165345,0.06755783425816253,0.07258918920495853,-0.08572836469125522,-0.14749830681411494,-0.19076010442560964,-0.15959514629303231
47.79195022583008,1.1814994812011719,-0.021465672216430393,-0.0008613545621519725,0.2541363476858919,0.05976360046638443,-0.08597750987822539,0.14925576197824722,0.559471639019922,0.17791123112461082,0.05846497290954821,-0.2919905962538992,0.08020015900117075,0.2522963771973712,-0.19508490140362267,-0.053496479214861545,0.29728961634281464,-0.12007755534729131,0.050826529830296535,0.0335747647172336,0.08472532347500272,-0.004349573141640757,-0.07858968006002169,0.05809244004845135,-0.049410454962584595,-0.3738481833728502,-0.21706134236757468,0.22218534939719622,0.03000883148994813,0.34243707946798385,0.019337807007779286,-0.06488465504209895,-0.28759279913552915,-0.024783069436496642,-0.024072476754297835,-0.02732455677589861,0.0009416026360300374,-0.006845031986819322,0.022120645980575736,-0.07466028008444094,-0.022002330783329645,0.0301618394816878,0.0357413961878108,-0.08835832206480924,-0.05694736429422622,-0.05268796490172367,0.052311763230322925,-0.0781779058224416,-0.0717607033719548,0.05116912472988594,0.09093476720032076,0.019070075841314385,0.03725159070396809,-0.04997949533177629,0.037273312474017134,-0.025403093089875234,-0.12494209742417788,-0.0036878881000426827,0.08073598473718196,0.028119100394181924,0.13545046379456166,-0.02493130262919678,-0.09810858816481144,-0.08953246738552104,-0.05622681171278391,0.07364486462064809,0.19599301169524716,-0.05915508920376829,0.009253587228678478,-0.005399709718345689,0.064043194996513,-0.009977548940920523,-0.015952846887415842,0.03256735515597912,0.057758019587336784,-0.046831859896784,0.02687818557897134,-0.16171064208096497,-0.20459476933125118,0.025127756128878014,0.08031947962228389,0.01694321956625292,0.10954814099455928,-0.2069130218913112,0.052673335143397414,0.04711850191826208,0.030495762154142167,-0.07460493530035078,-0.0376664323308918,0.025944750186271893,-0.11285019313835802,0.0493111069673063,0.012592441524978201,-0.13357521552807508,0.031634913282859604,0.06705167344056862,0.3743339993233611,-0.037881860414909596,0.1352279573383898,-0.03117564464788209,0.12083653422277181,0.07146708164430111
48.97344970703125,1.2013015747070312,0.07813802501730603,0.080161201274196,0.0466892367788177,-0.03531596848338267,-0.1600815212908556,-0.01672415896051379,0.015666732622536303,0.2276608022605038,0.022318683319768523,0.17362103122039252,-0.17775644630325171,-0.06942845125611648,0.34489820666868276,-0.2310299689321653,0.2481134413985111,-0.13732760646396594,0.041538884324802,-0.22813846188102402,-0.12263828132120802,-0.19110986254652276,0.02650916822264668,0.05474710842859998,0.29857099444009283,0.10528611571631966,0.13248900675096703,-0.11432108620780823,-0.10068196421683909,-0.042816392083421896,-0.08721398674103477,0.020427066823755377,0.07586793687418249,-0.012718412720762068,0.08238150962872769,-0.13596213900031537,-0.0998063066181438,-0.08558203968581837,0.07624019562636918,0.23545160405270282,0.24021188241165176,0.021767074689052326,0.015319139028452493,0.08228097058434708,-0.18258089173056186,0.08265945482741974,-0.013874597440887667,0.00379184690802254,-0.012224328133548686,-0.06502750022471301,-0.0631226356622966,-0.05474373417954418,-0.04552318082436168,0.011453246584355965,-0.008056970893486148,0.005333104164035763,0.0207632835978482,-0.04135179357597089,0.040002127480510845,0.07414894583153099,0.05583699564312534,-0.06781171962505302,-0.03991462394343849,0.04525171466624556,-0.15611623253766946,-0.03605596743469537,0.04290428202779858,-0.009909328292916872,0.004291228035776518,0.002535442370620642,-0.11764123140834858,-0.17907782272538542,-0.035995761420526975,0.05066443828877963,0.10647411056297135,0.17236017518348928,0.16639100661528,-0.04111862549407505,-0.043997542065824166,-0.16008061488059794,-0.036198543721831095,0.028131170422946723,-0.05248490556670397,-0.06620930583596292,0.05450463634046824,-0.03465816481733294,0.043998378916383245,-0.04348482191435617,-0.05421302354948073,-0.019341245465381504,0.009067335870717919,-0.09383605696565092,-0.14261506314218317,-0.09137355296198992,-0.11671650661224653,0.09181976116122523,0.03563216358093651,0.0022269717110888626,-0.041498023393767965,-0.1634971237009689,-0.11664649055709729,-0.1331841590732299
50.17475128173828,1.1310005187988281,-0.1344899299288299,-0.22947645756785795,0.0389103551908462,-0.04867751289741005,0.24609255919695414,0.15279995135262273,-0.2518993860711354,0.34064076367730256,0.02686990997601654,0.003036559525575291,0.14845311627100768,0.11049059657850303,-0.19966246926309336,0.10766362677174385,0.04225070172147359,-0.10300153779715762,-0.17559170577718342,0.021420840784072623,-0.05459875869732085,-0.03139720367730848,0.11468249485633492,-0.08767606516325488,-0.10004188123994108,0.10573786821028022,0.07936440385974808,0.1475055815878486,0.26312889666231587,0.0894155770302408,-0.02625196462853111,0.0797409675901238,0.122576761136694,0.018855795491780354,0.06921720670156606,0.19457691873151606,0.017477270382113996,0.06456905272608561,-0.08304158740377962,-0.06247702758561621,-0.1528544373116184,0.013155034069247784,0.03044866233952135,-0.04476211440452629,-0.08086100021727023,0.04374760502452428,-0.020092602275791904,0.022320750045964184,-0.017400478983175163,0.09257059227261961,0.012138627861188578,-0.04049414306645893,-0.02475252299427342,-0.06394709933437862,-0.019546391710743335,-0.06738907062645004,0.04661519555035435,-0.0023647682982189723,0.02966051525645818,-0.003662843887695906,0.05444053211556019,-0.010660996463776086,0.08007412520292594,-0.06842614498199241,0.0356306527812756,0.03598126873302463,-0.03524460953505382,0.09513666332339832,-0.0612765694676155,0.09535430816002613,0.03533007842087961,0.09772029804511559,-0.07714474466570742,-0.009444508017067796,0.0622936499868264,0.036640086013125614,-0.022686893812683927,-0.06382419291015344,0.036165720096663405,0.12097913514031924,0.08710482453606667,0.05625732458716914,0.021685107382179873,0.14749128952147736,0.10558575340821075,-0.027026072745412695,0.15139238003117042,0.23543465315073045,0.038354063372261674,-0.3194578684019617,0.09850995869494775,0.12296894249694916,0.005250070189162303,-0.022408202332895342,0.01814909168421661,0.07117899636440471,-0.05058505884036161,-0.19671532188332294,0.05180688458154314,-0.09859259708005581,-0.03029977697824157,0.12740821645721712
51.30575180053711,1.1810989379882812,0.14590666825519413,0.22618976970808516,0.2350219054299327,0.1513851101587727,-0.09237228550330676,-0.11678909054944712,-0.10959211677231682,-0.06521272610253806,-0.3253882058682615,-0.3472725122476314,0.09681468041842523,-0.07760138739406641,-0.056671821735941874,0.03827615720018933,-0.026570426989883045,0.09748087777955086,0.1494111471764203,-0.34203357023478526,-0.32564444807621235,-0.12588772013768074,-0.024296593243232363,0.0009697547923593138,0.022889606851269374,0.02178668185838172,-0.009192687158188042,-0.032533055875697825,0.013264196369870992,-0.07770785464062917,0.018529475411030196,-0.017702733382208586,0.009663913403797974,0.08917277742852782,-0.04464402299625156,-0.07806707111667142,0.015495411778425464,0.0038554210378028368,-0.043354710979969194,-0.08760692211772973,0.024150511141663406,-0.04454492753572543,-0.08756657499628936,0.0904303242236145,-0.04249002531354197,0.006057070080402473,0.07223820413677512,0.08521294818136291,0.11848290060629164,0.08999627396965053,0.004063398156675474,0.021340406320184736,0.025522559071476915,-0.06786130980242423,-5.477107038862473e-05,-0.06998471363091988,-0.0011456108779198133,-0.06418891016158183,0.02342791847572808,-0.033110227866745834,0.06543029150247329,0.0054860940047246134,-0.1604476729683672,-0.08868522586559328,0.004782623203956136,0.006402913526998857,0.03519337669086143,-0.06406129887665658,-0.0348910316104,0.021545783973199697,0.024468377829697192,0.05288904814058956,0.03462338904097992,-0.0465333127757736,0.05713991554341882,0.04565780606860048,0.04553812380147946,-0.07852110384113403,-0.057734849130094634,0.09390312984851071,0.024206121008152944,-0.012295643302110418,-0.002165287265503804,0.05089388526062264,0.15849580656787682,0.10836795031969151,0.010838238248226058,0.04124334904817977,-0.0004984961002229122,-0.1202686895499986,-0.17278337590318404,-0.022980267543411103,-0.19037460342732154,0.3132397606449749,-0.12733517470387332,-0.07765103800904281,-0.08155272349872465,0.03719223128423619,0.19324245464829864,0.28739101124085537,0.018604011799268946,0.025549655872240395
52.48685073852539,1.2117996215820312,0.16466538058220243,0.14532081732406893,0.003945194782601261,0.7317406896733535,-0.14186468165955127,-0.008219709053307734,0.09534058205509559,-0.188718643351341,-0.2650969203948427,-0.13590802079081507,-0.24127132801996123,-0.0343067816792193,0.15539105778878468,0.016378728534789763,-0.04809989409632977,0.07203298274733774,0.0780100659909019,0.08936954969182437,0.1891278767125354,0.1686689467664871,-0.18214387879969834,0.31434248292291583,-0.14176215193915437,-0.09172869490665421,-0.1959556630960497,-0.21312806251654795,-0.12252001362630331,0.017993378208808426,0.004720246316122837,0.1504200441874998,0.0018423937504986054,0.028286601003183916,-0.06677456872483516,0.04252872066640859,0.2934315290709121,0.021495060153143945,-0.006843112164218524,0.03893716755055697,0.0309574327912576,-0.03239434993726979,-0.10981617082137544,-0.05279736611058307,-0.04427121590861717,-0.004871507936597909,0.0008815895142427896,-0.053130695095950725,0.05696418885516393,-0.07311096608995533,0.03330849644301062,0.008535916798110449,-0.10687348690413685,-0.050294804617669914,0.0113865962988497,0.057316893993073305,-0.13353099192986745,-0.060761545554662476,-0.034464154949802116,-0.01212550486871753,0.032256965880815364,-0.06745403453622878,0.052981555863322025,0.07502363588935317,-0.06643302839441026,0.05076027735318663,0.04694044238336959,-0.029045942109835448,0.10823131001632562,-0.04146043069136674,-0.05998215099211951,-0.03368735104157283,-0.08236324576353461,-0.048759007037619095,-0.027486628930803097,-0.07176362213646684,0.10148231590390343,-0.03395968758721526,-0.07981625865771705,0.027519992842579888,0.021108195345835398,0.038352968225241105,-0.3808684308557312,0.017090160634561837,0.11333535526378502,0.12397548556703415,-4.508919721972222e-05,-0.037630519283966254,0.09201803733636006,-0.32927475696547914,-0.14246996587301558,0.1817907599433297,0.24114023434872878,-0.11250776699810658,-0.022216377281803742,-0.02022022424450687,-0.1676507673763342,0.11765154262611292,0.0013868693728179005,-0.09294411937463717,-0.14487548021761334,-0.08505341026384432
53.69865036010742,1.1110000610351562,-0.0941347767673273,-0.08320863313238142,-0.1027296259206285,0.06805170006385226,-0.14381597974027208,0.010292675835952874,0.030910049676147577,-0.31125467825394926,0.07439393317075672,0.15047453632455615,-0.014852734842971949,-0.009590762433275418,-0.08428349183882672,-0.11553022665223084,-0.10744033333363887,0.0010608885478303658,-0.09300162157530972,0.12179090815748611,0.12440354870594794,-0.07619623202128385,-0.010519872939906784,0.06379865421438859,-0.19457946929090547,0.046840504170950426,0.23933569293402324,-0.001268489178042495,-0.06127821984173179,-0.05623967262135593,-0.01323468522021118,-0.08145230105596422,-0.06509191538163189,-0.06717638957652416,-0.06465166972435976,-0.060321533896923935,0.05513052226256378,-0.008410485629989427,0.1059167740915488,-0.05740252274947667,-0.04178684002997076,0.07192504397678094,0.07319284787481153,-0.0659633499421412,-0.006550709845717273,-0.02022565666412956,-0.08372446165012394,-0.016877125773369528,0.009265289016547664,-0.015352673160843799,-0.048752421043841906,-0.024419777422346047,-0.00736100063653303,-0.04464522333663024,0.0683388437116188,0.0785880898524892,-0.07256498865910904,0.051378723826901625,0.006641227570659284,0.03664974748876672,0.0377942418217607,0.04821265538033287,0.043407938660579154,0.02666756466062654,-0.01699505384478109,0.07391994611006703,-0.029092538381517964,-0.03429715098471947,-0.01404849567294647,-0.01252541095436847,0.042668955333697425,-0.034238461447947934,-0.026816595986291866,-0.05451470509769776,-0.005727681542189949,0.11548774736833958,0.0533246275958486,-0.1556390055518222,-0.22133438387692386,-0.08464893410264904,0.20566812726455025,0.4286320736189548,-0.017941113418896888,-0.06244864033560735,0.17544702580779806,0.03935762777155633,-0.04229218101020286,0.11554047084649749,-0.09734533925061618,0.17644053605813198,0.3005730435976331,-0.10857322435501847,0.08748813071193245,0.036207466086493015,-0.034683890671885646,0.1148600888181952,-0.07752253645654153,0.12084305575675822,-0.21200075162940626,0.10068545171427204,0.1468925026616657,0.030201399755316355
54.80965042114258,1.0913009643554688,0.02723580897788358,-0.040475050534058046,-0.06293686327222751,0.08472897082898385,0.03919542616062008,0.12579592811464604,-0.17671695261766718,-0.2663499461506891,0.04511014414266342,-0.12134883723517446,0.04488956131529144,0.2839954184285792,-0.000932044271958643,0.32711520631748275,-0.1497851046750931,0.26978505631941774,0.0895775638050998,0.03549496152539136,0.05231441888866156,0.015718965347949525,0.11427375114176234,-0.009765015184357576,-0.19881634179153268,-0.2363365856662946,0.0446044670518116,-0.050423397430381725,-0.008754558016323688,0.03173908739968741,0.3673772211467899,-0.0910506362851516,-0.11041664908524318,0.14398902199396205,0.09209672547358026,-0.2108520015706592,-0.1756773323459081,-0.04540247473644613,-0.055155885515606184,0.0523475656954158,0.0011845145682025035,-0.1578705100245619,-0.111344517061301,-0.012110115352856743,0.08608271674204632,-0.00294260245370976,-0.013306956545458715,0.07123010146165328,-0.008549090424720282,-0.07592331710879648,-0.034259246727407405,-0.0006051947166469201,0.03256280914486437,0.018558471974370876,-0.01313796987383578,0.06479412269330503,0.06169733756254659,-0.08331746002432491,-0.007454787461211733,-0.004244604508212525,-0.05144256617812628,0.016861261053913872,0.06667792092914054,-0.04385058980172905,-0.06618587836496584,-0.06596734263847004,0.0021231056550232467,-0.03460267278589142,-0.004986941117433568,0.000889756035964937,0.04008528723294131,0.014011406834055232,0.013913778322096644,0.060826947031246546,-0.05134167550887137,0.04043948640534541,0.023762944209679806,-0.003533662398548104,-0.00933414813650727,0.003029971973484376,0.10064565957442809,-0.01119942187439428,-0.11960862406156843,0.10813772964663852,-0.265591889901016,-0.05898120345310784,-0.04540447093555074,0.02196283951356286,-0.17392279451657594,0.023283540965802495,-0.19341450095450743,0.04895336760516498,-0.06003435390665329,0.25728065153569074,0.01505799009135321,-0.17424972818241713,-0.04787522196782904,0.07746169916696943,0.07804329361582629,-0.12451249060000844,-0.038137934821955856,0.5239124341329878
55.90095138549805,1.0809974670410156,0.39479952734645696,0.1902856891469218,0.09850170445991814,-0.19101535450318907,0.31437576454748745,0.3471164580291945,0.006194779459373273,-0.074034689961312,0.05384921065065895,-0.0014248711664765507,0.2218471665967143,0.16738664369944434,0.18097565353392814,0.004719149524029326,0.03332460789511851,0.0037046759639780737,-0.2888184479515362,-0.08882685165726645,-0.1045135952085604,0.06891049431269637,-0.0024854649408279647,0.05834013950164211,0.22802914345029743,0.08253994508837864,0.1575617621196198,0.025909934386801163,0.07487811343555945,-0.11959532253419475,0.07466150744780406,0.26673665042383277,-0.14352366830936047,0.15634783155199597,0.27431930592573595,0.07388769759724506,-0.10424436383338677,0.0572468298551433,-0.028183439638504296,-0.08937275187373124,-0.01281289749641378,-0.00988530744729495,0.024768210604160734,0.002461592012079958,0.004034995630744782,-0.07035786633373124,-0.01409877696796325,-0.08142300334302392,-0.035496918145530326,-0.0342313816421702,0.08912621388181517,0.04300953139606844,0.0015227115439145622,-0.02058635486094689,-0.04497023788766921,-0.04315940313894714,-0.024177510210563174,0.022399213958014457,0.0008375829713700086,-0.003020780487227301,0.06429837301898379,0.0013460032754969336,-0.0677640224518932,-0.020995211379153316,0.11780958848495082,-0.04760098386915282,0.052490743142561594,0.10523265423036347,-0.03067105356214609,0.024692237725166963,0.013863692101334722,-0.07678386341832137,0.07892636713476009,0.009682162756871253,0.006234613773531882,0.0025167713669545654,0.007355846044390897,0.024161466455412284,0.06372674022688325,0.09922955880450254,0.03183835014476162,-0.1590233654354993,-0.12916346310278223,-0.17857313557328677,-0.02780565559971358,-0.007787498956640153,0.03902302450861539,0.021284631863651673,-0.15087488753471112,-0.02811354876579389,0.1729601942631314,0.1941487306316074,-0.1508513521653138,0.05077489016735498,0.04757595891993716,-0.3694529794008386,-0.15766352008719778,0.016956823273156795,-0.052469934000045786,-0.3234668927099749,0.055077449970184295,-0.06493798185670133
56.98194885253906,1.1412010192871094,0.07474075528953683,0.08905048084923332,0.17705364817348793,-0.11479336991625698,-0.006553443024226805,-0.28887382231468345,0.26677026534745185,0.13175926132585492,-0.29808517287829267,0.2900057339311865,0.026568163227031767,0.008664916834218314,-0.16800491053107408,0.06377440823979913,0.051206060683644805,0.07494473696992164,-0.08540297532179843,-0.08405096473169522,0.09034930284244522,0.025258622454908435,0.15047744500738536,-0.058710001640032185,-0.10421397329776386,0.04191465636280695,0.01790315908013964,0.0423109204585416,-0.027367261019955322,0.045847672698370284,0.08987204032220918,-0.012843431025726123,-0.005633850467887334,0.14615765099257305,-0.026334678550831866,0.009005960254569722,-0.07436520725823344,0.0015624381896766973,0.06338540804993804,-0.0012231808109382535,-0.010432023203068313,-0.07632498048510208,0.0544486424991065,0.1031257683255997,0.04446936326705095,0.08399172134444725,-0.012125742850500755,0.04991475037785337,-0.08300294407077058,0.0847771289480288,0.09178360336591623,-0.033271471769717204,-0.008297996941570298,-0.061435408256239166,-0.03648852531374686,-0.02435774141096291,-0.025441738499507448,0.02395470826229715,-0.02950610328459713,-0.05913033664016922,0.00016352620457412575,-0.0172550930596459,-0.09228936528115438,-0.03838141478135117,-0.05593668294200464,0.0705969228191155,-0.012752311821260619,-0.03179971445866245,-0.006678988916809121,0.016350714821655198,0.05571864777450876,-0.04100933845070651,0.0951603527840418,-0.011863848985519794,-0.05607441627624059,0.00974453336889195,-0.0012307713522828189,-0.029686849804100128,0.028245884478782908,0.06626359398649237,-0.1228422673367449,-0.014182314509061029,-0.09849933089724308,-0.057048827138341224,0.05368862451281937,-0.03778887919132641,0.049725463340660365,-0.21439302343149078,-0.30458693626541133,0.12719917690534402,-0.20653933325624335,0.07713066982181843,-0.052028993544047844,-0.03378902273893235,0.24313118305667167,-0.31707397996465325,0.1467202157189464,-0.19592984511439465,0.1613797154439521,-0.10388769244400417,-0.05027567027659169,-0.13818939710232256
58.12314987182617,1.0211982727050781,-0.1393142967608289,0.2181054913318338,0.04280606456005437,0.04786965133027973,-0.15868223825705186,0.1983490172037696,0.06589345045227589,0.18271036603506047,0.03578153104462752,0.07843962901056362,-0.07659108372157433,0.05413502589708195,-0.29424679865819,-0.022623483641822373,-0.03805422246404297,-0.12058873130267762,0.3281512141761562,0.024725507551392203,0.09560049273349787,0.11870551039593931,0.27335279164387016,0.0594444343656139,-0.08798665207228737,-0.04253901404602544,-0.11509755951424921,0.02325518947022919,-0.01830358681240038,-0.10443227420982557,0.04211844715846206,-0.09845516666360368,0.023022598219448565,-0.03410407514175942,0.0038186646348081776,-0.032785567647821603,-0.02181677864425459,-0.017548216340551318,-0.09836154332719237,-0.08631983561438894,0.05522417717811615,-0.008684738754430099,-0.03733190880039832,-0.0695173891540268,0.0068880552799049505,0.018956042885203906,-0.013072776540918096,0.02424816730576982,0.03613836794599268,0.02887002959544754,-0.008439089661400348,0.018980985064513567,-0.05505555828998923,0.01763512894543649,0.004352416294850128,-0.03378694369640803,-0.01495819370675245,-0.07708199595625877,0.07872602137984587,0.027168160566491812,0.03320503872047759,0.018120955156606555,-0.027133079717704456,0.05865079185022848,0.12168062013845972,0.015087516545699411,0.0026247411448699818,0.07908110767940627,0.041935122889943326,0.07991027432548786,0.02930266685940364,-0.017352863287913845,-0.0215133771320696,0.025000320149909477,-0.032404182337860035,-0.03412669364600305,-0.013743756149036071,0.09765945999714426,-0.03492629237316913,-0.07264328262453369,-0.11294037368356494,-0.3981442907609397,0.0314250933099741,-0.03490733434130895,-0.004708977448902373,-0.07737744178462012,-0.11473256945744433,-0.2229232851172351,-0.2734072841449678,-0.16621065099895213,-0.03573976535817198,0.08142949253524738,0.08178375432003658,0.023310326472303897,-0.09151970842604255,0.11761556489897701,0.15743158961593492,0.4372788515905634,0.5640183640806568,-0.03574413033630626,-0.09670259940632601,-0.15315271403563002
59.14434814453125,1.0807037353515625,-0.13380114284692382,0.29523771982951563,-0.12200349390526061,-0.08292264157366716,0.17359200619585594,0.004022389963469847,0.33713429634751174,-0.04493393812125605,-0.07418524665011517,0.13748451979100917,0.23044269882403629,0.043791560485985696,0.09652228666114084,-0.17590609870535467,0.00913923137063369,0.09449978741097372,-0.3101182919480652,-0.029700548581672828,0.014031744284553482,-0.11521962391716357,-0.024720334634178623,0.05550226824841782,-0.1571665662383744,-0.058851007721010734,0.026420764982948312,-0.0633706660903415,0.014152415853983052,0.030045584254454274,-0.04671664697841673,-0.04083966209597947,0.04430929807164008,0.22421714776727636,0.1595733930197252,-0.03833396266700304,0.009699596669380714,-0.007405034352280689,0.15612800839689667,0.021647136129253168,0.2151163513482583,-0.21725926796066944,-0.07825915647334133,0.018936438448465372,-0.04435854485145982,0.028883405795927748,0.06629744373030313,0.032762635426202946,-0.010996718789388087,0.025824354980340584,0.0967067967539189,-0.0926307209417134,0.02006771407629833,0.03363617394135928,-0.05477119446171942,-0.0248278343865343,0.03088487286026825,-0.03544403968958939,-0.07123263654207085,0.01213971559213535,-0.00030354898184978274,0.04296945725872928,0.008676532968285291,0.03219068141052622,-0.00456147074718795,-0.04926683393359095,0.12707356367873127,-0.032587695190844444,0.04903125801297269,-0.12013327059220064,0.01955076458722226,0.09978228500019205,-0.03773819248850839,0.04477593067250688,0.007939690409090296,-0.03361189256535804,0.014014985597377896,0.019124190949801716,-0.0684289646282526,0.01605844385518578,0.008265098231478325,0.0015167577065746535,-0.06940479060078905,-0.14718372608934083,-0.17481139684763644,-0.03638464799438283,-0.0953039183465834,-0.06195990921735256,-0.02919576983855854,-0.10552295631906215,0.28469153245863554,0.04144957002458007,0.07567776575557156,0.1580972383631858,0.1823605955791068,0.22810977151061834,0.5608528098647878,-0.06715584214678334,0.09914382607430945,0.26777465600897965,-0.12392474643009951,-0.12482158644372063
60.22505187988281,1.2115974426269531,-0.263629700822236,0.035683652996334164,0.3943775210027559,0.20898147131241965,-0.240337975930418,0.11563107843232591,0.1942901823558662,-0.02409405447105758,0.05408093283294361,0.03704797857139555,-0.07215440075728603,0.04986700147159186,-0.017328249118285736,0.008464463771516297,0.045645144357647494,-0.06973807061241384,-0.008171295076774472,0.004402180678683919,0.1983550719661731,0.12620019065387786,0.10963084397430836,0.07202475297897001,-0.123934511884135,0.015804971313946113,-0.026926040930628555,-0.09098398571572217,-0.03927053513788613,-0.07437223728905461,0.05697747430077264,0.06639740390233881,-0.028573274773913845,0.01326388066051645,-0.12554105106370245,0.10120842079081255,-0.047162261228250076,0.06344952099082003,-0.017744731126742123,0.11871553308658368,0.0023528399607906925,0.007721223511125509,-0.021257021513566947,-0.007276492405387851,-0.0033362910734751833,0.11138163963786214,-0.008610252762708714,0.03126728060507388,-0.05892717919874287,-0.06535255970326084,-0.0894843711068692,-0.02934296757132732,0.00898817025676594,-0.01645052373024078,-0.0622901490288071,-0.07670194216069125,-0.013122287343186175,0.001825915689861621,-0.011059434179123672,-0.027599364864120894,-0.024066840361821773,0.10991855428420912,-0.025978326283879236,-0.002692471144271742,0.0605637483491764,-0.16783636241944017,0.09915528814810172,0.04621392889137482,-0.08212402125848424,-0.09268202364860581,-0.014617179263901407,0.06153655829479232,-0.056183009860645464,0.015226631573981403,-1.8701777621560334e-05,0.021599657929512822,0.033655640812137566,0.06040609689784117,-0.013359760971026393,-0.0012679067603903471,-0.055720548914658254,-0.017743071740568356,-0.02243441141219021,-0.03865564206535,0.02136690909969958,0.04429345874087719,0.08694438917732052,-0.20655397643273152,0.1643360855052789,-0.14331536522393132,-0.1572057481616673,-0.12973878951258588,-0.08642770222272393,0.19892064460208786,-0.18847470205548528,-0.4912550786309427,0.08970465016191438,0.05460215066538987,0.009953306180043212,-0.2107754029045,0.08751327237699101,-0.05005117084109849
61.436649322509766,1.0811996459960938,0.08978512324640031,-0.03433149825500191,-0.15217901176877827,0.02731135098706311,-0.04144097734718083,-0.060568742183982345,-0.061051537061702424,-0.24504360571247183,-0.1719428447482084,-0.09774323908127304,0.04619854054645827,0.22970133694411382,0.012209612386728214,-0.019824242927300447,-0.1283584899186207,-0.12778277111019684,0.004205397052620174,0.037649671710871885,0.16523411642643024,0.12185288966182868,0.007855588235925907,0.07493169173450223,0.021000376300096588,-0.17278359532705775,-0.1110906101536486,-0.4085001159895098,-0.11294337089541828,-0.19055869082253715,-0.04074109461952887,0.20451554019225018,0.11649555460445211,-0.007477816246424199,-0.032591086929808916,-0.1117300270508609,0.03422670403557605,0.18318537034821444,-0.05656334658217293,-0.12518264061647466,-0.05935657811841803,0.10891981418881515,-0.11388546638090503,-0.0984914623791238,0.0124065884830421,0.012257452311497786,-0.07252991166134412,-0.005829973726826234,-0.04726746359826497,-0.0741712965054699,0.036831937268848536,0.04907362156908049,-0.043386036589834726,0.02743614874276538,0.07948031278592034,-0.053444954341864845,0.0393596632745509,0.01698925837919252,0.06606123559255107,0.07992862823813049,0.04173481765398876,-0.005633111186524708,0.04996785858600122,0.07620342297717038,0.13814556106284878,0.024065261102309346,0.0029861773310664724,0.02018457774365556,-0.12996989262572686,-0.1345476649624307,-0.10862194681664299,-0.04085377882177218,-0.00829436239665584,-0.08440543385350506,-0.06671212061916064,-0.06960481320222403,-0.03890338193022932,0.02476270778627665,0.05960116664734933,-0.03529284085050558,0.12321746158047489,0.08080818534270086,-0.13159204862540133,0.008969840374014673,-0.004059236051066943,-0.17109272762971023,0.09933956555387263,-0.012860637494203506,-0.09545778476403745,-0.03411180622469609,-0.06689692776966752,-0.09385618698763915,-0.007913078315072115,0.10033794372204691,0.19323642698646315,-0.17939776942523938,-0.22991649601913525,0.16778509307494782,-0.07309882566821341,-0.4627736499789323,-0.22517520227022386,-0.12480985240216735
62.51784896850586,1.1713027954101562,-0.2493644239317223,-0.09203528616844978,-0.14529659701090356,-0.19629515730189442,-0.17638093764957116,0.15162829092044247,0.29562122871505636,-0.04708200295908843,-0.1436470583792881,-0.0936396353628446,0.24489001198336047,-0.039866794855873494,0.05382214834371072,-0.10689160820667083,-0.04517342191039561,-0.25013061839657225,-0.10682555820954936,0.08958980560435394,-0.1013467470261545,-0.12629443099006016,-0.14250943509564287,0.16746197850341743,0.17173980957645354,-0.11391270435936941,0.1345402101242677,0.02771439056337064,0.07108506672890479,-0.11022527022375232,0.2578033168912555,0.041012974817395145,-0.26008552105839045,-0.005847614774553915,-0.5161915598653051,0.04881450669982395,0.24215668538573917,0.238518150562512,0.2188460094147988,0.19130937215563557,0.2118483113596743,0.10586012080693016,-0.09747007678093536,-0.1974582502091387,-0.1354360159932708,-0.070860256830027,0.048312577670208696,0.14061205146705982,0.10271505308493403,-0.028155092663918843,-0.014622327394304871,-0.07917152170952671,0.07243874020348422,-0.06524494661539215,-0.022311987423758048,0.06252340774559155,-0.01680110933331171,0.007834875345998624,-0.08517628820781878,-0.05552912464869588,-0.0345833629215439,-0.03717732399150411,0.012531101081555496,0.006800401012502133,-0.09538636033663352,0.013364820014136743,0.02495740227959241,0.01881066493901133,-0.018833235454222517,0.21073642117823313,-0.024468728509111592,-0.051624049869366584,0.0258528373990886,0.042634525626999306,0.083173361874332,-0.15093250031651978,0.04834804497422567,0.01654294439192601,0.14398656679726735,0.025347046793490285,0.050313559091716545,-0.04461600750832997,0.10008726012776553,0.008124528168033378,-0.00037185552025348345,-0.010301974817496088,-0.13904195635999028,0.004313427733528396,-0.1321452198858296,-0.18394463777983222,-0.11447990080840922,0.02547940593077789,-0.08482672898530474,0.07311485959472189,-0.02780926304604706,-0.1902455434779687,-0.08049265606152722,-0.14335508703839603,0.021536065862759773,0.02312459969413912,-0.09871464138131318,0.0030859863022418554
63.689151763916016,1.2210960388183594,-0.001477222631777804,0.03557041180603729,-0.15314645216933917,0.17297821527983273,0.05383596515963443,0.3913666633509596,0.034644077973502246,-0.05151761218837098,0.053487051666443186,-0.16419230461786216,-0.05627621753214368,-0.05305977945248573,0.0703389247576527,0.17433675558636996,-0.011001584912217706,0.12061918493582605,4.6900026100082925e-05,-0.11937390868178878,0.030443663553863003,0.055862251223533985,0.050647778673074455,0.023272596297222566,-0.0712103000405522,0.11997246146394128,-0.033672578896648084,0.02061333290606555,-0.037312402945455514,-0.13059858560224696,0.05085659881640366,-0.2518224819008129,0.2335239059713079,0.1674192937501966,0.2179532438986771,-0.06964567493824123,-0.05973381087829802,-0.07630231416831144,0.1404690357346389,0.011483325450748214,-0.03236766115760656,-0.22918127427997068,-0.02676570528446087,-0.021519643095166574,-0.02358663330039795,0.08414570072282275,0.06045381292559091,0.0008479651701228063,0.05643132871458355,0.12464355977934932,-0.019486331389402197,0.04107539917794642,0.03531483687633543,-0.09221844276123102,0.05371925024709786,-0.12602387503837761,-0.08053609936653004,0.0584616909047111,0.037230277327970594,0.11958487686114665,0.1431988280350116,-0.04455179406343913,-0.09234119821908164,0.08192589499375987,0.05108651712021523,-0.1013629541181935,-0.012147156524693337,0.07561175795353764,-0.07229310575561047,0.0006152664438488114,0.0005510591258907627,-0.05358870830640386,0.05862793684444738,-0.10429479000930088,-0.010980950613037662,-0.03729717488065762,0.06366947638527415,-0.038446863335034026,-0.07293096075699236,0.10742324741887882,-0.05220094352347471,-0.16904142960252186,-0.024514394343459103,-0.027657889331811458,0.17441739453547184,0.29565798924532183,0.034471105500260654,0.09757278485742472,0.1296167295333771,-0.05805508039603237,0.028437191108913854,-0.04381707384079786,0.07212855875499886,-0.04396930693078776,0.2615538550533309,0.011674698559732289,0.026982073066184213,-0.01665793585753682,0.033315645504289816,-0.07350726121729742,-0.12939261286472284,-0.23179264300418673
64.91024780273438,1.1413040161132812,-0.23045378978242698,0.07830224692549773,0.05921009326402139,-0.32669819902024066,-0.06379003522350189,-0.031772494076156094,-0.07656115937448725,0.21477850353549266,-0.1705587101050657,0.19934097328128197,0.1359700806632081,-0.016774671927030266,-0.06659277761250518,0.0832899613327322,-0.18394702604652208,-0.1867748553803724,-0.24613277129182531,0.05655420209708441,0.17024031538062534,-0.11208935458981441,-0.18678673519237365,0.0995322820922025,-0.01759575580801139,0.17607123676646783,0.1367224747604949,-0.12975344468685945,0.03388861152467097,-0.19776671226838696,-0.11964820930067474,-0.1857029887798523,0.2099484654830833,-0.235523667868408,-0.1280535087663186,0.026715710913439997,0.04859246888062505,-0.1988298335336924,-0.04911211129585331,-0.1337975752573304,-0.1842110372582668,0.05700200396680348,-0.02813181003635922,0.07570137473908443,-0.01694126627793484,0.005957229575597782,0.06482065845479353,0.00459943470521612,0.025368371960695413,0.021842529491312428,-0.010377713912768805,-0.031870887116095606,-0.014938985038023631,-0.015341390418292088,0.03066240315478262,0.060885515168728595,-0.015615990376364491,-0.08533266154210549,-0.0072851973144310665,0.07627718233732919,0.012859345659185645,0.010715481153108872,0.003253102052657684,-0.026802922586689096,0.08084457828379882,-0.061310882869705666,-0.0645561281400635,-0.012969724985026234,-0.056670155465716826,-0.06832721809340642,-0.03281895647163986,-0.0032371445715975835,0.00843996819239018,-0.0958054992914452,-0.0034984325737383096,0.0037048626799128887,-0.035018996184057585,-0.048111360081103775,0.01848301523507259,-0.07794711863593966,0.16125017548595383,0.06957779833850383,-0.0011505267113927865,-0.010062035102940044,-0.046735766885763017,-0.02953534535237011,-0.3743754253448503,0.11415912989244358,0.11229875396655722,-0.09838596079424164,0.07544847639758304,0.0930831670195833,-0.07071514522413906,0.09302353424203712,-0.0765850014215212,-0.09068814223838195,-0.08107931598988898,-0.16648545532710388,-0.05507280250601507,-0.22025185815808226,0.3432710775461584,0.16856868674364944
66.05155181884766,1.2509994506835938,0.029647686280170837,0.12209117803404301,0.0590540261801791,-0.019152873916114407,-0.15183268610672052,-0.2847020237762769,0.22889769455189643,0.2145467100908818,-0.5365862199016276,-0.15067353074368892,0.38728555689021416,0.1881847127830854,-0.0615496879190774,-0.0626506216656782,0.20001904741359852,-0.26147918342997256,0.21590724752441023,0.0333494720502653,-0.1649768237859362,-0.12671418790879452,0.07697845963142237,-0.030557638244908737,-0.1000066948876756,-0.17284668197577877,-0.14990242848247698,0.08320727067069865,-0.015657865388092163,-0.02033967127845506,0.08607401096476422,0.01419592813630332,-0.04500610501256681,0.04259961995044875,-0.016314474331624695,0.04020444227227918,0.07755874770840578,-0.04717848153046184,-0.08737418985154491,-0.025009575037678144,-0.05597096907467481,-0.012946101777291365,0.08198836842516495,0.027858671389643406,0.06206313306649901,0.013363970402391057,-0.023664819455067147,-0.025702830553145956,0.039279876739904136,-0.020347993161143104,0.11086444755561717,-0.025456051987493053,-0.009550585730001584,-0.04311107843183282,-0.03563947012355233,-0.01443651647362169,-0.006191811999793928,-0.09952983966359745,0.037586478132315713,-0.001512400369866343,-0.149185097044386,0.012581791310103462,0.06276062021608592,0.07221870880982076,0.033765394790609166,0.019224754914747174,-0.05579054361633614,-0.07634583079807537,0.05021329592126929,-0.04829514868675754,-0.013414202880927454,-0.013085508268886638,0.04471046847356091,-0.04343008559215919,-0.04351909368354595,0.00012041094542367126,0.12027900754035512,0.024363948371007058,0.11569513284264803,-0.012413016500809657,-0.03486857148131404,0.06138485086204899,0.002197027285958753,-0.00826054763569829,-0.014589454519993848,-0.0678994375653635,0.008137243432960132,0.23042593018429242,-0.08011588649725204,-0.11303850235304919,-0.23144192887124979,0.17003678720020832,-0.30919522053126475,0.03493152675943337,0.079021407660658,0.00042364235507230674,-0.04650686156283317,0.17728722986273732,0.20713242338083376,-0.14506466652847647,-0.2802532498443191,-0.12605173340131848
67.30255126953125,1.2212982177734375,-0.13127135983230953,-0.014944580765437808,-0.002240315113327914,-0.22811633905234577,-0.13139069168040096,-0.018003832614419513,0.16862246108881254,-0.14529158643512774,-0.48607416542144494,0.00956362732563383,-0.12238446741801692,-0.0832909903079395,-0.02263878468725696,-0.042895086910562125,-0.10356207053167768,-0.13447631329616208,-0.16097247320262423,-0.32239158590928385,-0.3593790083403668,0.05215568367191634,0.06692227541589571,-0.07070041835216177,-0.15876152245780825,-0.08443501884636086,-0.1009213683525119,-0.10320673134577929,0.015120906048262604,0.004341147835293305,-0.06573353682023007,-0.019666682359812202,0.007609275500227071,-0.0020945743796690324,0.002185393384175226,-0.01582472403655373,-0.03659746120794468,0.0290794006134218,0.1624640230787372,0.008571538013407244,0.126950387773284,0.010055326192582384,-0.014037635400979421,0.034709595689635796,-0.02123386552266525,-0.08582731417761386,0.06925737885946495,0.1159856043925177,0.021790257937406403,0.04452555388551149,0.03285442136879978,-0.030947537945049217,-0.054841361526212565,-0.08196856316315783,-0.011940386383099693,-0.061756550147688855,-0.056045291574326785,-0.010837694782882516,-0.04100979258298516,0.0136163619256265,-0.07494321739351191,-0.07421545331886636,-0.14557203948792968,-0.052660792855302965,-0.038028753980026815,-0.06200922356643352,0.12828984114367328,-0.01056364945008876,-0.06233985670569193,0.05668993886921246,0.010504181608621536,0.04917023096843085,0.012603645242293017,0.013652738941916693,0.010678833958046766,0.013612807226406006,0.037110240575954086,-0.015186525331354726,-0.007705461792186373,0.01053141851625455,-0.03154717583987253,-0.07788636493747689,-0.022985172005245986,0.0070796080519611206,0.13416655520632903,0.013147200116924718,0.2832505681857246,0.014118509886395155,0.005781902591821587,-0.2067237630685807,0.037274605077058334,-0.30758185862250126,0.12834109178809858,-0.03899042133629435,-0.04160476758573941,0.01323437708810278,-0.01362745995342704,0.1880685525118912,0.14145570680420477,-0.03839201631610831,0.05250444118471653,0.5294979208589263
68.52384948730469,1.1915969848632812,0.3825161486031603,0.10638701273909568,0.06383670668568472,-0.10283461448939593,-0.0003803911742738643,0.3484962592515693,-0.025321780743554134,0.05566868840723649,0.033317850801406715,0.23481133347783284,-0.0751998893918861,0.11477277868467417,0.1301133653922112,-0.047829196792427205,-0.078266605058666,0.09205789632818946,-0.20750543037879765,0.06100078446660585,0.06358263424519205,-0.06102407150112325,0.043289102056612704,0.11766402447506752,0.05653622423057693,-0.041968673781322796,0.0664909966257758,-0.030133680017886577,-0.026031966814642843,0.09977200809661348,0.09644984204832054,0.003757579672464843,-0.025659805290641158,-0.03372600309870558,-0.07226662591628605,0.12490286550482457,-0.0015485457373194257,0.005799353734108901,0.11821475753590936,-0.030903992882707603,-0.020914237611020695,-0.07361653381879169,-0.08302874458589338,0.01076870219754486,-0.015886930003779224,-0.062402904527976776,0.025414729921195908,-0.060492668605404275,1.5388350227735128e-05,-0.015900060742871994,-0.0694823655350053,0.00761901698482273,0.035296605157029315,0.13005249608283348,0.06356577640604959,-0.01436424056183351,-0.07656784512138914,-0.008988048074316718,-0.010745236045509088,0.02650039513437387,0.06919570115220199,-0.09193141464288132,-0.0780811371060291,-0.0871468893372543,-0.06078389371797929,-0.049482291774803976,-0.07918156997930073,-0.03373891993616015,-0.05206567427181087,-0.01164871166719788,-0.023134971409542474,-0.0937703579050204,-0.03749725617465631,-0.035709282330612435,0.0008437036977622797,-0.042037807397386634,0.019423068432543447,0.0396569318170176,-0.0699505497179353,0.17294912390260309,0.09021020282392514,-0.25661593082214257,-0.06585290031690051,-0.032456913105013,0.03546491538023398,-0.08010157464084419,0.10795868168368464,0.15095954127642489,-0.23550140941577136,0.01956917078777363,0.0559499450108082,0.06858494858999731,-0.0609151613635875,0.0680393332800449,0.09022706880284607,0.04516607409919388,-0.05875742809389106,-0.2401295960051305,0.06585935064983332,-0.1263363609955908,-0.11766935619270069,-0.04132351228711226
69.71544647216797,1.2011032104492188,-0.03226942878579324,0.05391584324417818,-0.06667988450737711,-0.3657392856527311,0.15894626743504783,-0.13295863650058187,-0.25914060995045846,-0.010353906351283495,-0.005559335154608204,-0.23345175844922786,0.10271716343531885,-0.02321292156051366,-0.3060647758131086,-0.058961077380082105,-0.02862496027724954,-0.1631199350607025,0.12588941328267894,-0.10771184100467326,0.03398439275035494,0.06885815249763991,0.035689544653792364,0.057034708738877046,0.12661377188001416,-0.34007831861306426,-0.03370716229852176,-0.09508994013078576,0.1947727639048634,0.24427581494819034,-0.07265986566869433,-0.02888850957534625,-0.048996998558781694,0.29575123853495905,0.14227535412835948,0.12916648204419778,-0.053062179523106545,-0.4278054280976002,-0.3430590314664145,0.07777758224002115,-0.10707349616017553,-0.16470224517737128,-0.03249214397734684,-0.214873552818416,-0.10295463176583224,0.08517614097586514,-0.08520361971293816,0.05047588955005784,0.11296157241814683,-0.028652103962046403,-0.03424320611146199,0.006664049348769352,0.06293859371649771,-0.03291186544447372,0.016859373679359857,0.02458983582393534,-0.0039862526901872156,0.014143203718438786,-0.008355636099611633,0.0033392237989843775,-0.03899162635585697,-0.037264857946436365,0.013970672623984397,0.04058039609566163,0.030085440371571202,-0.010785278850330864,0.042566906173550495,0.06547995039893917,-0.0544950605905578,-0.006596270183811413,0.06842104763728837,-0.008831422583381758,0.044087741286899,0.0009059935961772455,-0.008791829141283198,-0.050486850745625735,-0.057311657029423715,-0.008401155459087272,0.07038969056059334,0.06848976998482537,-0.03519761097811338,0.09726846803849101,-0.16108979542262156,-0.09203338603973696,0.0027105690863598714,0.009051576191281309,0.008305101428894523,-0.1528359178473494,0.017057444318499967,-0.282089741728592,-0.22223851885225573,-0.1513654322961642,-0.17800595325237703,-0.03213994043700502,-0.02893652954333268,-0.003320045403059718,-0.10966600507280502,-0.004056735488573333,-0.026581090285967446,-0.017631167678663323,-0.21957249886798988,0.07817121952618224
70.91654968261719,1.2715988159179688,0.07416174598769418,-0.014230297923607298,-0.0002777288281953427,-0.20680076851528562,-0.09418024156812028,0.007523378572554129,0.13629471581149202,-0.3717993312013162,0.007262763961290077,-0.06260848435368668,-0.05943403196678988,0.13050789819787476,0.35628016790510153,0.0188278117293888,0.11468094183296258,0.40158717156770984,0.014137806242458103,0.10542501699144506,-0.18662560186640587,0.02685263286381094,-0.030141537169654523,0.19270622532735338,0.12557621475433353,-0.3493327666352265,0.028335777545484324,0.0415095194439263,0.2443195908018533,-0.0850954374933236,-0.006503988260677687,0.2142187923036298,-0.26016845894611884,-0.1722640984837099,0.014610699597357547,0.20857425417625114,-0.001064982044095515,-0.020236875227585084,0.023395679965192775,-0.031611858407108145,-0.0730737131909334,0.06042204648454969,0.12721713031133638,-0.07503436296534755,-0.04019048060951176,-0.00046693643584672095,-0.0034766267982911333,-0.056709989147517584,0.025907134804274264,0.07423523695032508,-0.16137758681665412,-0.03800141517718085,-0.030782324741581657,-0.0649592473330277,0.04278176433417604,-0.014949148362653902,-0.017460897742704883,0.037522888167164294,0.0005846174965434686,0.011819747466871177,0.027368508823742536,0.06003298267475103,-0.15353711552377527,0.032356312368719574,0.04665153060516153,0.010147393476828668,0.016512034969513013,0.07688717524571598,-0.037047934444717136,-0.04600221741555121,-0.007186082514679906,-0.05135455652675685,-0.015465008416552259,0.003201876079761412,0.06619754697835112,-0.04164368028762221,-0.01979718973288885,0.04006796887453484,-0.09352428900853187,0.015101574819878519,-0.020206079016246527,-0.03699357555143595,0.12569072069333054,-0.073579371624891,-0.12552439346970162,0.005911636586896332,0.019168483476361967,0.022973012791413942,0.08939051253482953,0.04356811338382016,-0.1999979216344828,-0.06990217192544755,0.4994060198804621,-0.005772192461431987,0.023022486042219854,-0.06454005613549554,-0.012666378979041042,-0.1859549241417744,-0.22269562702855594,0.007274773851094126,-0.030746988341503766,-0.01694700917218296
72.18814849853516,1.221099853515625,-0.008174815794314975,0.14699129418915918,0.13439175064632142,0.1728151797022814,0.0647640769305141,0.1510924025968361,-0.3628899781110715,0.15611354913675757,0.22655613420058238,0.046306366565125684,-0.1835985469934753,0.11535671701214405,0.06929230954391279,-0.030895328359127915,0.2756726560073821,-0.10699739724262838,-0.07433907610533705,-0.07051833488322123,-0.15357671164590378,-0.14903110791541746,0.055545142184472505,0.11083911382384437,0.14486956699413478,0.05412592387981285,0.08234960040992298,-0.05521976873336429,-0.11676081009710655,0.009499961885364255,-0.07094773390394958,0.09911245000403199,-0.04574859660654977,-0.021962312461667542,-0.014534708614678763,-0.04604132318269984,-0.05902432286284328,-0.029093422000633713,-0.018334652160290302,0.14271943285003072,0.13509024523818236,0.059155334133727804,0.09203485712853102,-0.06380865595430882,-0.07705649160222675,0.032806419615168364,0.049649205279648764,-0.0002258271931645699,-0.004320045503366482,-0.04143215022290701,0.05979086647846398,0.03906166063469716,0.017704308787257768,0.08588440283254066,-0.021032567927072143,-0.06900098939895374,0.03378165275410424,0.03155812533460078,-0.0893573342103708,0.04543255931042434,0.03534741724827224,0.07187368678994548,0.11634671440454268,-0.05433523150150615,0.03884223640995195,-0.04446725587717825,-0.07469472886259673,-0.004610231982997759,0.00751747464984902,-0.11905484104977045,-0.061364687632672096,-0.015068926745169728,0.014620924589126477,0.031642561878830015,-0.005864761275707438,0.043631872341058434,-0.009338399526975358,0.06248913077433296,0.010503813794813592,0.24797216989811577,0.17101225474464654,-0.09314616641105378,-0.16001314287236404,-0.010876982827465749,-0.09244769821708647,-0.055987927258125875,0.16971852479062602,0.11971349365074048,-0.08349136235085498,-0.2629506556268071,-0.06847548705985931,0.010228646329444487,-0.04800159205139699,0.11529387434243629,0.09398665312091084,-0.11373999480084433,0.014442719362372614,0.11871714805689014,0.2878707866761117,0.5313141485775518,-0.07087493762724009,0.02035532477867752
73.40924835205078,1.2113037109375,-0.1270598980837322,0.08928739470827585,-0.12181596585566562,-0.27807192820734045,0.06985929647795151,0.2881772485128318,-0.09142426417037527,-0.13192419544935086,-0.19864219664676647,0.17657108601472396,-0.16688629758678616,0.09206023138733382,0.33823163806208734,-0.18250407909902203,-0.17398092153272876,-0.022536837101715283,-0.18669765433794497,-0.12863586448601305,-0.12187345778252189,0.08177050074287479,0.1798611748092947,0.1493639296352743,-0.08109304344283057,-0.09003610018444543,0.1392964475682361,0.040931513874629843,-0.07434537164150272,0.20362995972751666,0.04272868731729946,-0.19176894815213227,0.010903819734959184,-0.04877757126345846,-0.10200044971387051,0.19143080564598727,-0.04861703483089969,-0.09588177224747127,-0.0512623415009517,-0.037566494230302803,-0.08171080843676115,0.0057393180058109144,0.1110441296860643,-0.09890544768810883,0.01395597343686781,-0.02973174566566844,0.008027294574109377,0.03716231862852082,0.018083010038660013,-0.11609174529696202,0.01536082433415714,-0.05138333618216843,0.014494130760016183,0.08802322467649916,0.08682996308084148,-0.1097331076286763,0.03224873246546586,0.0033584760497925668,-0.05270133350003629,-0.030560664510591067,0.00640190911634693,-0.045264871289642246,-0.04493407191246006,-0.012657413297363852,0.08174366645233963,0.039365723533312795,-0.037518122246860165,0.13082619840080262,-0.0156884034485868,-0.05086002487172202,-0.021002781204657317,0.01067469410473331,-0.05059342445946416,-0.02274371714525456,0.04200629787584006,0.08482541165637301,-0.04356291211229436,-0.0009405085048284018,-0.00023512078884131455,-0.0010931078141823976,-0.006427551701617703,0.035002527823962286,-0.12480362966590469,0.25548906241551195,0.06336408227315282,-0.05296425487991939,-0.1312360752672045,0.023421928765109984,-0.0651728568265325,0.14632052013596605,0.15282732532173107,-0.30137537773115325,-0.010418929035631722,0.24009562701434778,0.02217359802862187,0.014813940571514694,-0.0014806705960222284,0.2015166502375107,-0.18857020145376133,0.24993724476533408,-0.1364230764106061,-0.15535187424624872
74.62055206298828,1.1912002563476562,-0.15406235562716783,-0.012724540928216404,0.31690048982941843,0.1050195635700608,0.04541933733736571,0.06449699666454808,-0.0025392884304278962,0.299572990760356,-0.07528803479160211,-0.2338145766519804,0.22771464533993588,0.03250216218780101,-0.058288583946028816,-0.41931233663951645,-0.185849785494092,0.41136707637428493,-0.10175727209014224,0.0794238259086181,-0.3537180595137295,0.11780602849529132,-0.18711637358748337,0.06782567277054463,-0.03491629783983179,-0.4225450524135753,0.06758133772779397,-0.05429742492539514,0.037128259850747816,-0.03002715797382571,-0.02972285899281662,0.06958424554484648,0.03795544908457182,0.015993666758738298,0.11780368046062964,0.21477259860854442,-0.09031924012693267,-0.06675645578180221,-0.1070169170221193,0.0013790151342880363,0.004040691801175838,0.11092672985771836,-0.048676472392907455,0.04693319152207519,0.05594252480173821,-0.06708366294140139,0.12370195371439416,-0.027383694904696162,0.042028173805724545,-0.006915867324607769,-0.007068378982667222,-0.02962057741526873,0.018243577236102693,-0.029571356473023825,-0.015932464403987222,0.06984986203961144,0.03735608749527625,0.12553287902820168,0.020705705229885497,0.010648396884829579,0.012302499800949942,0.07563217474902789,0.04766734505879472,0.026130934619271077,-0.0583752720538572,-0.05023093972443702,0.04411123167313504,0.10414297569590453,0.14548622760586363,0.04373427807404194,-0.025511393519104936,0.014708903073889876,-0.059474077319510495,-0.01199452229615336,0.040985380632181594,-0.053674669288607514,0.034836986199205174,0.05699681541709079,0.005525753778587829,0.022561413693330895,-0.008884982466163474,0.05209470436498671,0.014999981195356716,-0.021070470813478844,0.01969590383579742,0.1831784905940158,-0.006875424535961849,0.1871418087636742,0.15109786754617816,-0.07128108116872078,0.3323163567053971,-0.0703051336845673,0.0035642393010499587,-0.01858195012091561,0.016549580208371405,-0.19624765189991705,-0.2299596726813783,0.23531094753557052,0.23855879171033312,-0.018890244993070997,0.005919914813146174,-0.3541906557031165
75.81175231933594,1.331298828125,-0.36056794970537653,-0.19175474900461015,0.2648459784155151,0.0006953122538288371,-0.17899305864708445,0.26983418633291545,-0.020694092791830546,0.00943393882495749,-0.08153714277609751,0.05972035759182709,-0.17978140738366555,-0.08166177273451383,-0.30597547520318186,-0.041847426539632235,0.16259088312497158,-0.2607562476688891,-0.07583003931380698,-0.25536660784589643,0.004738967379779385,-0.04297581923289961,-0.2506872448860015,-0.0330039432949924,-0.24045460030128626,0.1593140326210056,-0.1037763507096523,0.1541805642728783,-0.037937297034618796,-0.05900841007159461,-0.31917407119489877,-0.07848318454579656,-0.017594984871147586,-0.004399179448111662,0.06664669259313681,0.11738300690140349,-0.01914232463263209,-0.05342064848124248,-0.015451071542052768,0.013903181115179547,0.05601337695101699,-0.03454002002547738,-0.058521126158950616,0.04719054549364639,-0.021917457843623846,-0.10343414077388148,-0.08553700005989075,-0.03519132999523787,0.004984900592570512,0.0156555312756274,-0.0023434519984912214,0.11091459048271989,-0.04294206818975084,0.036868598340906535,-0.07456849184689932,-0.06263219295796733,-0.1513160708321962,0.06811037425416251,0.007776689521842626,0.005121506531969069,0.03243418733947768,0.03342393048560325,-0.040581068243950316,0.005430978914478965,0.052871190157749604,-0.07195841166355486,0.027578854440216398,0.0543123849360794,-0.06745572062897416,0.04938674687732303,-0.0480462550864647,-0.04253174458581876,0.08416041423365393,0.02438182128291358,-0.0159670485866597,-0.052777073418910456,-0.09123583519601698,0.06361190970389935,0.03781922037408393,0.13106455570746256,0.11363585081837334,0.024547650607916232,0.06600863801525385,-0.09780996004769606,0.0688581341982721,0.06540005970906651,-0.023295137722918188,-0.01734464439827371,0.06459287990787761,-0.11203620125180928,-0.24177415508306957,-0.18726325266458216,-0.15738354250432476,-0.23541249074590684,-0.06199511176367896,-0.0803207399551574,-0.10547080461118824,0.049025494949235034,0.02728854728916443,0.2056987086562635,-0.09857399529410939,0.02973364948484858
77.14305114746094,1.21099853515625,0.038781167554470905,0.2960235446265061,0.076113454635932,-0.0582933821483204,0.021481644312980726,-0.2175262434684886,-0.11062939983607056,0.016994086534019296,0.1608616727080666,0.13569472170488883,-0.18656474884143254,-0.15098469702374187,0.17065600457396607,-0.1151167000656161,-0.15824674621905066,-0.24957969400244992,0.05900083662540124,-0.1943464817606757,-0.30775548777373063,-0.09870734921112201,-0.0681037009018035,0.2647294814267184,0.09641604024099783,-0.05920112567111865,0.06936972697473101,-0.13183014367200965,0.1514998287330726,0.010482902359770044,-0.015757826067463163,-0.013719194591724054,0.045870179489892964,-0.05750919887663329,-0.11115283101363653,-0.03118213505141038,0.06283177176829247,0.06921586469622576,-0.2544964493668738,0.039547872942675456,0.09529421980928478,0.08058419248198337,-0.029500053320458543,0.008666825553938157,0.0549713257040364,-0.11082365992273217,-0.05863470779515988,0.08824010814606781,-0.005581136578843365,-0.008892616049337096,-0.06171554192549508,0.09004295172647293,0.12257852287144706,0.059425822653535465,-0.02657964910387015,0.03393250082310461,-0.010025144675291031,0.058429867532924756,-0.0434560640744522,0.013349897197868424,0.03441255259509193,-0.0997309015643063,0.012089770853181157,0.005414092889037853,0.04625874995717931,0.033405695679920806,-0.024980053036211175,-0.009752976765542213,0.02421751379660537,0.0031269067786626747,-0.037951247871133964,0.05070103728210947,-0.030429376496848,0.037653217134272124,0.07568239196386398,0.09803602868359078,-0.03401386657422738,-0.08707067281270697,-0.044479842823084335,-0.0010975855316540904,0.0005633653334994743,0.016604431122582336,-0.01007117193730257,-0.03619973932921032,0.014147374621938083,-0.00965652337059891,-0.0717498081647263,-0.3371733317540206,-0.07008161730223038,-0.08068583190019002,-0.0033541195355144475,0.05993817888345507,0.3911963188925304,-0.17771408763871988,-0.1642815631365066,0.026929209208749492,-0.02637666646476887,0.22906562607479147,-0.04825716114077334,-0.06556445813437278,0.040601378475646564,-0.09566314394659618
78.35404968261719,1.2014999389648438,-0.10799189822510767,0.07588594148476972,-0.0764381411082554,-0.09881188337505442,-0.06022441229239614,0.03890029874291449,-0.28946760735333016,-0.12393710591189397,-0.00329332210099683,-0.2010588292884432,0.1018965973952706,0.005331776878600661,-0.19266596695199023,-0.18292424063767618,0.0064242217658113665,0.08803223249825205,-0.4202482656769855,0.07177445507319069,0.14165042411020343,0.024980026459424758,-0.1688168802782955,0.11630305126822348,0.002780663854441873,0.08043787248777304,0.11179853358545074,0.1121174355609268,0.12430507531050008,-0.007535066520270764,0.14835353523734096,-0.018239102283680527,0.008795420595527705,0.006872682789425071,-0.0006929330510105731,-0.03163904019135103,-0.019429777936440715,0.00464821427902323,0.07892775736272761,0.15743065152317756,-0.04221178375321867,-0.02913512989171127,0.008336850400081117,0.002209542708165006,0.0760802080080403,0.010809591791678865,-0.11142477501684124,0.044256575916490334,0.032907139304031156,-0.05038944092694429,0.013433549455345417,0.0477885672764256,0.02238859914167273,0.0038774601093569767,-0.0698448404090876,-0.005432495771112789,0.017206207517465547,-0.0764202907054007,-0.09589401910905769,-0.061049032037167036,-0.016600044548778867,-0.10307639156349803,-9.498302230847439e-05,0.11523643640499354,0.0068791531916064675,-0.006992551353724759,-0.022144953295386665,0.07179533419698947,0.0036483320467444397,0.03414666498663809,0.04356222698967663,-0.09039192343906072,-0.021280556634229807,0.013101785676785035,-0.008312694285976679,-0.014338254781631584,0.011260605642953836,-0.05025035849384419,-0.015995902961566277,-0.019127836083595025,0.05208423437535078,-0.025423618906719174,0.016861779501313755,-0.06621533976201369,-0.021150890740008366,-0.13419698091358356,-0.12000296716462919,-0.03289781058182567,-0.11534638200722656,-0.012606580103160084,0.09607953786651573,0.04015802824470163,-0.1552657912920942,0.09779123751129876,0.2054187687794286,-0.08057246743409407,0.012258378275912312,-0.05006154348454589,0.09448843837217098,0.12036057205612465,-0.2727259741914621,-0.27781443730918004
79.55554962158203,1.2415008544921875,-0.13392769541803293,-0.05574387412565201,0.19173883960012789,-0.07180846481895362,-0.15068994063890806,-0.216947270769987,0.1471508292145083,-0.2425738395039715,0.22986366639391057,0.02838769815577538,-0.07527993297333818,0.08355988072397481,-0.1249913046829433,0.09965749495658524,-0.15151823110518736,-0.1524877667934205,0.08193014827717296,-0.32837181444619495,0.20398248250095893,0.36179238187216073,0.08886082384729437,-0.1493312409585098,-0.06576334706857695,-0.011240902047548101,0.21717695021538144,0.23870783907730353,-0.1495267132682347,0.2286899187516537,0.1361810184702899,0.008885429965860957,-0.1019314711473771,0.21025428033329258,-0.047764000113008825,0.035098909391839093,-0.012914922231761938,0.06888523111802854,0.1536231038028174,0.05064521297983667,0.05163077385294724,0.03588910179066155,-0.024207275079842834,-0.02461001616189168,-0.05490315401268303,0.09828632077853745,0.13645076838351655,-0.018592882013700074,-0.021919933125595495,0.05768434309927116,0.013821557845194796,0.05851265799057689,-0.019341355709188546,0.08037536789356711,0.03334351937670491,-0.059468782496111414,-0.01898020733936527,-0.04689472046104799,0.06738947148871248,-0.05502738569858877,-0.011958242700168716,0.024444970998042666,-0.010737364255559262,0.056937844051351806,0.10560600606599346,-0.04564594851666939,0.05031571583442865,0.0360176659705414,-0.019345337536915502,-0.0862765899661547,-0.032290807197826676,0.07017515934638514,0.05422038560096687,-0.003612113951335846,0.02300925202148291,0.007327630606892744,-0.0015253241727403583,0.046914185006208635,0.07675775722343829,0.010051966736412265,-0.008123235719913913,-0.031045019389407354,0.02515351071091887,0.007272538553715523,-0.005310596471754031,-0.09453529104705427,-0.13468205808196612,0.02622133202232321,-0.017112968851764873,0.0010315546235491468,-0.03931702632034972,0.009097590553209776,-0.05652356905929233,0.34583916730346764,0.07268701397391364,-0.12317769483922653,0.013124921476060675,0.048874956570041726,0.05447941380963447,-0.16480580194012037,0.029141070865278347,-0.11897671654804073
80.79705047607422,1.1809005737304688,0.018334141930521054,-0.17835516310320446,-0.05154269596727811,-0.06140106435131004,-0.12026566262116646,-0.15382129920393298,0.3051386721527126,0.15279620502583216,-0.07200190368392775,-0.00013612449204217095,0.015167258912734589,-0.006897965900447955,0.06012727016527153,-0.0016053850745059196,0.009146810320510155,-0.13496563835115583,-0.1224991362636492,0.004784471227005463,0.071952106472091,0.096361545785863,0.06386339731411368,-0.07450383704837214,0.037670537143527374,-0.004503850665423042,-0.08973389939454507,-0.11944124617483806,0.13629347573710113,0.04900729044355611,-0.10319899779045584,-0.041225033257493326,0.12960689874030562,-0.2627791184752446,-0.1012797237347051,-0.1615943250047287,-0.18468110706410623,-0.004334066753115033,0.11506330410329041,0.21197766345947713,-0.15471352861163304,-0.06362027733887046,-0.0376070019564886,-0.0102939049496368,0.21608962998147427,-0.009190455872689882,0.015173297206323572,-0.033068738269423574,0.11343290097722475,0.02520932173875453,0.10004951048687509,0.01251679780776516,-0.019201860344026433,0.013321816836353445,-0.0012358779523756603,0.028018021931801224,0.048731810939410126,0.012540227183146482,-0.03673286091892345,0.0893444526032599,0.09641306009033054,-0.0064068960462522724,-0.05694089059680819,0.00236840288317125,-0.07231888486949543,-0.016306259542351348,-0.08480034275197429,-0.007930235482743988,-0.008034816814820682,0.03177392962101733,0.0041314539791686995,-0.06365143432055483,-0.005232106328172102,0.07723876796441637,0.042694026515906515,-0.01805771399000562,-0.037227162559768046,-0.09423465631518278,-0.019092538218681242,-0.0007318307521293574,0.04261179222281389,-0.06049130846078353,-0.0961922290881919,0.20288873103964372,0.16602310656518182,0.11376458644125637,0.05626860815862394,-0.008992516885357977,0.1048196294016932,0.03674839010884693,-0.05128832050378933,0.1822114538854035,0.008801506499066355,-0.025127856369864296,0.20191918084109658,0.2275875342257326,0.007548058419608816,0.09442499970098882,-0.118561299621701,-0.15549551686688678,-0.012910552036433386,0.04413305403210631
81.97795104980469,1.2615966796875,0.163449784488812,-0.07837958763420207,-0.008056114883747762,-0.08963181917767271,-0.07147048309054987,-0.14688241014815046,0.016044987192785173,0.01888153934017006,-0.00897716847312851,0.17301695215611723,0.09812959618136818,-0.037375218455455744,-0.07130153191093021,0.5116986031736489,0.28211396967859115,0.1370114566562856,-0.12295630810204622,-0.092037744793388,-0.1298320546061187,0.11112976307674126,-0.19335378706980644,-0.1776303970998911,-0.06445326506975994,0.198565084381362,0.08202067638066167,-0.07381949008302024,0.10001826244377263,-0.025292366844601386,-0.1365206085395847,-0.14959604239302624,-0.07593075811842882,0.04818940543990548,-0.07035510611439975,0.004128726443185536,-0.14083747195137253,-0.016376729072403357,0.0893016219842104,-0.08868614063527738,0.015576712039289054,-0.04031288069244935,0.010258647347133554,0.1858500273674012,0.08552960818337962,0.01924188702369966,-0.016660128152675893,-0.05758852048017411,-0.06465752544229156,-0.04138689852306825,0.022010750137425535,0.057063683915610675,-0.07911284648595011,-0.03111494665480484,0.002166765891938447,0.01368101459072959,-0.09490723907358137,-0.04660192274048972,0.054595188685246314,-0.12728292720828008,0.10601769555019874,0.029785352844890606,-0.01700378392849167,-0.0073736368661348,-0.08492962474149902,0.04543564661482545,-0.011268825975493156,-0.024443675320672667,0.01562819773670588,-0.03568553187095591,-0.07816403521144019,-0.03980687306736674,0.0020964169862519727,0.007120123291037846,0.0026511041054152204,0.014422062150267803,0.0076701948272562,-0.01795445635078644,-0.025799239745720806,-0.01066951056715624,-0.019475992016316626,0.021811897685455123,0.013446511720597337,0.01695842707355956,0.008004252170653682,-0.028752761109942248,-0.005943953336265818,0.05318464374741024,0.026838786067282273,-0.016940670756841733,-0.01383764851599277,0.10710114479186875,-0.18039724609333527,-0.08211934648183049,-0.006105860807118377,-0.21878966185755935,-0.07665172534617332,-0.14880671103615623,-0.1855922968655806,-0.25510547866061506,-0.03583898436647832,0.308447807740331
83.23954772949219,1.2813034057617188,0.02611397274301569,-0.13958618036678785,0.05408656266289696,-0.006822952921049413,0.2095305384950731,0.15526261120686902,0.06490166003465771,-0.29210594217120534,0.12248962164089895,0.22557204799456962,-0.1486769258364516,-0.6388012260175123,-0.3048512301375134,-0.4742598505743001,-0.3342686528251558,-0.08256859199459779,0.15754938780844546,-0.14548386169464284,-0.15606429117087006,0.03590639083430441,0.37494391798018234,-0.11661659290005962,-0.46809594610049743,-0.1517255863911841,-0.06736278856226383,-0.12733357394491512,-0.10950690481337551,-0.17252375408564335,0.03280021382986498,0.114695429949665,0.2946746130599129,0.11872985251044374,-0.15831251328713342,0.16980436270102992,0.014854656148455629,0.20681727584024445,0.23851043659389468,-0.014252094815523558,0.11196771256069374,-0.09152809229325765,0.12127264476479478,0.23944403268395228,-0.12977300641193978,-0.010772508559692811,0.0237444909511896,0.14916853733791616,-0.0671413552151579,0.02418160164061771,0.029759063346508376,0.049527789018784935,-0.022506784121687343,-0.061404426984153104,0.024320829462351604,-0.0769414516367674,0.028361235982993522,0.008373350732904766,0.1277403082355706,0.041565824242368765,0.04959622110650194,0.14322688418189802,0.0485336784757726,-0.03869505232156358,-0.02581688640729354,-0.0018736244405216525,-0.10526317778995677,0.04758754595587262,0.008665841225202206,0.050710197756717576,0.006394122986170106,-0.08163139035953457,0.09361654113237193,-0.04641451437915603,0.10635879293001459,-0.052845555304088784,0.07491684975189841,-0.11920128254142302,-0.05953755066830464,0.12759586541085383,0.14540889217342376,-0.1639249756669147,0.03215569984334914,0.10394155892205345,-0.02559609383984186,-0.054153492314091486,-0.03330237343110663,-0.10502953727787655,-0.06496438660589247,-0.023074532227034168,-0.053715143383990256,0.04705549124856853,0.019512201078561935,-0.1862433334527178,-0.15697786831991695,0.11951016969145238,0.12643171787498836,0.5382006973874797,0.0900337506327717,0.042063052902851145,-0.020280872584688865,-0.14084190103740887
84.5208511352539,1.27130126953125,-0.137822854067234,0.03660800372977495,0.19512382983717919,-0.003355755403065221,0.050527249234720045,0.1425567496478117,-0.03884131583622978,-0.1568846605689923,0.1395735346620153,0.1577177288702524,0.23810714406035915,0.2764173559176774,-0.08529580748541639,0.1677055081827714,-0.07422052213410357,0.04060839993197126,0.0666885223731636,-0.007345423459984818,-0.20195810117393656,0.0388714706324937,0.04486586676127714,-0.11651435532746937,-0.0865718446582329,-0.042088691687128754,0.12407100969682572,0.03435520327239632,0.0058325821477184315,-0.16341650994802032,-0.09996011110322219,0.0117768848348043,-0.024012887618376593,-0.0736199395272869,-0.07076425934431092,-0.06074949763950143,-0.025815386085197633,-0.019340503242632336,-0.008627308921482134,0.00885540759458607,0.008993377257925206,-0.04536234621064111,0.09954575712458377,0.04060808833643155,-0.0049350872692797195,-0.026315354521979785,0.004895153970951464,-0.05105330771559633,0.05623308099815077,-0.007213780165889888,0.04764789016119753,-0.023590399876390493,0.019868672882401378,-0.05037550485661224,0.03464884544064818,-0.003635156202066145,0.025712181527226305,0.034609305148194054,0.01151391756627586,0.0531500665353295,-0.06424973109466672,0.010983970121887118,-0.019677344578850495,-0.082676557162452,0.10676416524165178,-0.009502503394724644,0.017039835762133356,-0.005882768134727401,-0.0013186001742083407,0.029183582707537032,-0.011533966800160077,-0.011158091679667834,0.04182757272241318,0.047568374549095134,0.002930802863118076,-0.0009458402640814218,-0.033648189000070744,0.032517581115332914,-0.0062912383288742935,-0.03760910993969772,-0.0021355744848235874,0.05149906834775047,-0.027907466271322696,-0.0036400714400444886,0.0022518595371314844,-0.04725091004167882,-0.042311382701472874,-0.2409073981873748,-0.18518643972096882,-0.08548518955166425,0.011638366970148799,0.15481203016949208,0.01898696295272978,0.041520624872941315,-0.06679937415606454,-0.012623675819674699,0.003109988694642199,-0.04482871653600726,-0.01665591732990838,-0.18457283316649864,-0.009663432416025384,0.21612309428414062
85.79215240478516,1.2014007568359375,0.20737619047815845,0.1477923713284538,0.09362029489698671,0.017339180983173292,0.0308633122114902,0.0960102571774876,-0.08218075725004295,-0.09152169752414566,0.23331565152006492,0.14266989233597924,-0.26132796848121015,0.21091521456881168,-0.16578576638827455,-0.14768322386608237,0.2373259369935513,0.04257920601830212,0.11509620867189103,0.2027726845255828,0.12600744053518648,-0.1552605760199963,-0.06322711774153845,-0.09029590334771814,-0.11331173667055491,0.03551640893846744,0.06303057061929243,-0.055179993774972104,0.0768323904841737,-0.038718605766392265,-0.11764056576933275,0.06952376792232867,-0.004804959047120586,0.11107890167190007,0.0023861511200175094,0.08015065193122868,-0.007675576053274484,-0.012375607390191237,0.06828384630198318,0.06652974459745772,-0.05047275004809884,-0.047473744176986535,0.006296383914684997,0.03535827759379956,-0.09383715684681052,-0.05366992674339244,-0.17010240772064047,-0.04702700704471911,-0.010302727931991301,0.035855919331018254,0.0016221907890930794,0.007299639501926194,-0.011121745379212213,0.010586777323036686,-0.008962914265784402,0.01811773376195473,0.06324936084278285,0.03717466336426101,-0.04258921149454878,-0.005360065579267095,-0.001730980012890204,-0.003726704858116778,0.06536512701997196,0.08998465267620337,0.0608721818397665,-0.010467117287462049,-0.017139665838730424,-0.0011021811644843138,-0.10533877107325818,-0.11339269757296222,0.026915567126615757,0.034500317732920324,-0.02736612432222459,0.027349660060079804,-0.04617304799518319,-0.023089899448910434,-0.06274770890275459,0.044019154110238025,-0.0529554478324407,0.008444890822423043,0.05999831998420259,-0.007165676379270149,-0.0266323125268342,0.005943099148933968,0.03258911550809987,0.08087019239883526,-0.1363279567513694,0.019051702246289895,-0.08918464923134171,0.013328159054891205,0.152137411289228,-0.08525517078601377,-0.008245015017552846,0.08250827499862312,0.04638467548189554,0.13151888117292462,0.1536627064348074,-0.059684501266325365,-0.09687526250069049,0.14454280493038318,-0.1096768734893282,0.0545672801059654
86.9935531616211,1.37139892578125,0.05870520335548847,0.1536572229647382,-0.0016808986806408112,-0.08492217592488795,0.0042767110762566285,-0.07640279241314159,-0.17046563608745072,-0.01147002650769769,0.23983007443528248,-0.17318753928203492,-0.35017078841003924,-0.21951941808259715,-0.04006231925061346,0.08958626159193787,0.06641877795342722,0.12665961432752398,-0.2811992166880677,-0.2721220647180133,-0.09239264203308825,-0.0385325597614892,0.06713426752295203,0.1661069125299811,0.12081734576900535,-0.0068560043349759296,-0.2080169038835477,0.00950712369770748,-0.015241175485880297,-0.012043564755044148,0.1288616275938459,0.15877973745790172,-0.18695753247720734,-0.1596886288570178,-0.01273444264170287,-0.09547781405120988,-0.031022798569565573,-0.027218656890246468,-0.0956916998671295,-0.04919480688799269,-0.01483143475163794,0.02468847925220358,0.10518739407723121,-0.002181874792516185,0.003962534830152736,-0.0721789306491793,-0.04777467919567828,-0.025836508296570866,-0.031309331373880415,0.05589430128888243,-0.014185904132321903,-0.0025482674958123893,-0.08544700421128358,-0.06267482205837521,-0.047979318814817234,0.009328649884404249,-0.05774808316135702,-0.07719690823686191,0.054959641942119164,0.11307029222233954,0.022439780244557943,0.020415014436590835,-0.03476225810369725,-0.004609130164106877,0.01630568987056079,0.015494940639548274,-0.03692386795152769,-0.08277486325149457,-0.012360467688966547,0.05332970993974675,0.015857182289306403,0.030649700764948877,0.04671329956826921,-0.0006995956803671302,-0.009111585472122314,-0.009210965911212315,-0.0013645719761890785,-0.04550573816864511,-0.038953645347806855,0.02604042807285188,0.002274048817063048,-0.041576841996959386,0.00023532203656603497,0.10994847339139996,0.019737683460888066,-0.04291468852193283,0.04207531626173134,-0.0553171123582106,-0.03026692956921659,-0.07976853455283323,-0.07377776954959575,-0.12019385288122465,-0.04884879657993387,0.20530833203988347,-0.05769735714982689,0.08743045457303866,-0.13028211208592122,-0.07011720041027628,-0.03429154729961642,-0.1521205095034343,0.00420051990452677,0.11056807032389523
88.36495208740234,1.1913986206054688,0.10592487128321307,0.035840255130257084,0.030613020196303874,0.12224567073216033,0.06651990778939973,0.07800715150355429,-0.1192970608696596,0.2981651140974162,0.15284530072759347,-0.1201159765294963,0.0071089610621569155,0.1495517862807078,-0.013617976854635606,-0.24960742801116131,-0.23015854090592405,0.013239799815996513,0.04035890963999652,-0.39972366351601096,0.2246550518637665,0.034117188545780386,-0.05500963024203871,0.18537187909277186,0.05461247955145707,-0.0645130455993912,-0.42708459787114983,0.02420525944782484,-0.01274351400793764,0.15557357770300279,-0.0243294468897107,0.060220534355870534,0.12636742660714723,-0.10178842412629446,0.05575671930780381,0.03983384286138911,0.0753478921602233,-0.022020583528953364,0.015356351979786223,-0.008319852721152037,-0.038100155140499574,0.023826161528441855,0.05449434671632669,-0.10499262316733575,-0.05749948941840542,-0.02102756224834735,0.07441223153872034,0.10202799006982445,-0.0004714788049044662,-0.03290139615490698,0.10916462735264598,-0.04012865676627192,0.015648180019786864,-0.058035032981009926,0.005920845153617841,0.01056882128508233,-0.0396176526940078,-0.0010672999014753604,0.0281141564533285,-0.010028636373830842,-0.06459124309917215,0.07783385070426316,0.025048815795461463,-0.10662107468822646,-0.07818454545391218,0.020642868328412008,0.018898984822930686,0.08655497070993343,-0.03721948361663873,-0.039367383045817335,0.038972583337981176,-0.048304440905990814,-0.11262979859334844,0.05994339667080612,0.058720249398270835,-0.05504063914328437,-0.0052589057099867035,0.004619492823134855,0.10167830210658466,-0.01145893041975138,-0.034988209848378686,-0.019455588638935543,-0.02474572847905585,0.04305309070642852,0.041901054105683046,0.00407223219474841,-0.024664886887294856,-0.01667704903379386,-0.12011651771277473,-0.045103373676283455,0.13989189621225903,0.049930424827992995,0.2072648247152165,0.038971411307313096,-0.13277836834670087,-0.020199768821642247,-0.07028716553452914,-0.08647190121424037,0.02749134546277584,0.09744614951859258,-0.0002041752892964488,-0.0789328438051185
89.55635070800781,1.2210006713867188,0.059907180106809094,-0.27323972653231055,-0.22864921053744736,0.22202032271603456,0.12523346562854906,-0.04669330119770606,-0.10206093770679907,0.3518166018616095,-0.08199476550370906,-0.19220249608734397,0.10970523125700442,-0.022526113213924538,-0.0057350677904863066,0.04697801599128577,-0.1524108971943908,0.014908568309158914,-0.19856221489440828,-0.15722930468508692,-0.023896256090097993,-0.07797748262479207,-0.1876143932168062,0.022890971498697496,0.2199933718162992,0.10109207539736169,-0.14294642118291453,-0.149918834662286,-0.005580889875914305,0.05948098994915288,-0.23360030525522274,-0.11645607851578045,-0.047892499342497716,-0.20272223378718301,-0.031806572361156346,-0.07515328824986109,0.053622341349615604,0.09140177509228517,0.017655318516725332,0.0745793375598652,0.10280108298036669,0.047841212848914856,-0.005223894049903139,0.05840657274059181,-0.01631161543134005,-0.006681188692052935,-0.03889598967790977,-0.045347533587000215,0.028676977270241842,0.09218670801094049,-0.029452824387222923,-0.07359447119562024,-0.01929321741406096,0.00014323324833140317,-0.005680407771058998,0.02120037417116985,0.046342216824251076,0.05636434757208188,-0.0013899819815985787,-0.09196145505768644,-0.07773433983347454,0.02915830965046271,-0.00830786347948549,-0.08996289867126199,-0.004422543958955248,-0.08841378671017416,0.054763779430972076,-0.0004663913120357126,0.01626995849655034,0.05689788466307502,-0.004024119646815323,0.029843214404850216,-0.05649757438786677,-0.0036404216639978346,0.06312061129647971,-0.00811298726758081,-0.040208733238334335,0.018029562674017747,0.028375599533623144,0.06633687464456113,-0.0037413517192145048,-0.05576247028880736,0.014477262853118174,-0.0017766038761963892,-0.05821972814598161,0.05911265494911795,-0.23930001943938017,0.011126019428487902,0.03629032630342408,-0.25350779212577007,-0.044004043542096305,0.3446271632128001,0.09574263833340042,-0.12326575918221144,0.14082420360564307,-0.19884138138358115,-0.047063836160373865,0.26448996734105557,0.13294333825387633,-0.18672686931747967,0.06420998270167912,-0.14894716867713753
90.77735137939453,1.2112960815429688,-0.3043733912475172,-0.05464538621465301,-0.12550794961165837,-0.08972928867078277,-0.02895172694186368,-0.0005854221837296811,-0.14271050981932032,0.018506840618964116,0.3562973947758456,0.08140509832581662,-0.1811785739369957,0.025747402499158217,0.14521534192101737,0.17027657023918957,0.17744432827925807,-0.06944640625128792,0.10530300705199132,0.029302002008301374,-0.1220452971455849,0.21984505676767113,-0.009292383100668548,0.05675918821424962,-0.2620592453493816,-0.19784822652651093,-0.0237976421853978,0.04967615356804764,0.05955334031706087,-0.0675278275598813,-0.10119695865196766,0.15157368121935802,-0.28818839999954976,0.08164484346978186,0.024839421598219516,-0.0064466715465584905,0.22311260827435672,-0.12330307263277453,0.1109363972440554,0.012462257664355443,0.025336995635422056,-0.024052758904015197,0.11668311681773852,0.023029302012635575,-0.04832031277018811,0.0184664627111281,0.013354461454118617,-0.0026974947189845368,-0.0409560542270819,0.010311377372940288,-0.0008244816480223666,0.007439610038120756,0.09773482777298326,-0.042919192914118644,0.03443215001523524,-0.002384951312095017,0.08141274610720033,-0.026482716943350037,0.07635260648340952,-0.04625998502704079,-0.01944949845533363,0.010901223596237339,-0.007946764954303374,0.016326165382680516,0.06314289635692047,0.015708248574592062,0.021165332016299568,0.03206777737633163,-0.033551320539471644,0.10873586418161799,0.01608887077176313,-0.004158541412195303,0.06682470134793683,0.06397241157834195,-0.10300985286455139,-0.03186850669171622,0.05598425194420003,-0.0188272314997617,-0.048660935153408635,-0.0012593267187911105,-0.0274190182794446,0.09098430217203406,-0.0002212718114164556,0.012301016007320595,0.07587065867958681,-0.04551862138127557,0.2916506493970334,0.013708604971961344,-0.09069822532080796,0.04933424563122116,-0.017964768061047395,0.13127333918578837,-0.2164758312483735,0.029229463086059077,0.06624314067663015,-0.07339204284462647,-0.1275436255704135,-0.029445796904243517,0.173670063182662,-0.009581989817066382,-0.005435085689029701,0.0343934140098927
91.9886474609375,1.15130615234375,-0.10322831371530777,-0.27646499064142077,0.008011728567860147,-0.10382879319340671,-0.1729953116424246,-0.4949132301949597,0.13257295835787747,0.26204001985211683,0.05824253051256716,0.23251874455209726,-0.12794646327778544,-0.08139997280093586,-0.21562391627466385,-0.01557349264294737,-0.1069494518335877,-0.11617302432293397,0.2607987738779463,-0.04736289758790442,0.08646344460819401,0.06527431502925464,0.22781379358327258,0.058250624744785304,-0.19269726767775808,-0.054835831401469796,0.007975813952543431,-0.0013631634534164924,-0.04552771468700061,0.16850133836439637,-0.10822394708740062,0.12450850109376842,-0.11741982685593055,0.0020549074689536553,-0.2052256979175134,-0.04352471766455743,0.07296171382585558,0.15045974800006875,0.10030852001535481,-0.0076056032691447575,0.010436533753148592,0.04487577909431953,0.09178180375103767,-0.08400371140265407,-0.06376977587721923,0.053922325452596356,0.00014002037117508072,-0.021893002452223656,0.07090961308031765,-0.02014256959483127,-0.036863917976271164,-0.009415274602001015,0.0016222874345675018,0.05983051233096988,-0.04397773776800728,-0.14347557607257655,-0.06184604287492375,0.03189766367704794,-0.10553869652324253,-0.0007609313745228193,-0.08767443598374125,-0.04455998048845616,-0.0061536649929164085,0.028688633820204597,0.0268306885001518,-0.04617629510442595,-0.027694525996004898,-0.03685274229346877,-0.008246090399205836,0.08109704995921578,-0.0684748755083564,-0.015134870334869875,-0.13231726420984274,-0.03793425762170375,0.08828727546264555,-0.04502800542193423,-0.014365203884540718,0.0182021662576516,-0.022384241098270127,0.0016853588594772173,-0.19376483529013694,0.0751750676696516,-0.1477054141258267,0.0305292848279116,0.04232246285396338,-0.048574516385486426,-0.10463949273882443,0.07467601408440216,0.02084984595283064,0.03075859440759463,-0.002539359230314106,0.10575921390326637,-0.021792370730375397,-0.053699146733908035,-0.12533718539241795,-0.03983715031868759,-0.3004116869321222,0.18429619346860285,-0.14404539392915727,-0.08404831261437865,-0.22894210101161638,-0.18264064365726573
93.13995361328125,1.2211990356445312,-0.034795800070448704,-0.1148091606177897,0.23409421563892288,-0.2407804834492149,0.14173745023843223,-0.04536536812268058,-0.13643982065600085,-0.17587269579287534,-0.05019508415922225,-0.20740544273488246,-0.09376236296608613,0.06795360836540502,0.2288057372129132,0.12725419417277206,0.15536868879621663,-0.026983566719264017,0.19707537553836427,-0.21255371293029793,-0.12758657416132452,-0.08498135356753263,0.06371293665056388,0.050630923010587914,0.12873475629423906,0.1310033825859231,0.10861772840307826,0.07508860973675542,-0.024105925973087583,-0.12656189927864575,0.07261520268029273,0.010234145958812016,0.03834631022521033,-0.03415017484733928,-0.15360122608906096,-0.15270316372080628,-0.06672362909560582,-0.15490582916836163,-0.016379784485004132,-0.0016244634191401868,0.014308870920070164,0.12147328168259924,0.012952191304202082,-0.16812442061725325,0.06689128581122951,0.04882027385359308,0.033073476645783674,-0.027568981133981117,-0.10178253891879559,-0.0600696769196491,-0.06328769145815416,0.053955373565695054,0.0017332419699448154,-0.0604291898305065,-0.016327726768654273,-0.053747458932731224,0.056860292793175435,0.005502296279026237,-0.025871838743366602,0.07058783069526636,-0.05655814937152824,-0.041439775086547725,0.05814479704548751,-0.035590613140673924,-0.037525705986140884,-0.10765325152101227,0.009008464767515002,0.029762196574173158,-0.037476137564602996,-0.008655138325269748,-0.006968990163033651,-0.022940135447981888,0.11426489503313843,-0.03648516803897165,0.10560132291963088,0.02100133299839337,0.007260966098483718,-0.006342882395633516,0.06195941297584478,-0.024653708433452506,0.013364237899508424,-0.09459630262061078,-0.05820361575053864,0.09318979825051307,0.08657851793625854,-0.16287134429922742,-0.13143466900929168,-0.008052812525061202,-0.05155182730823385,0.2767885240166793,-0.022522489508102764,0.16021298360240982,-0.019546494855592844,-0.06364206784935746,0.04092694936014847,0.10934682985028746,0.08773775999988301,-0.12475026582112898,-0.03687640081252536,0.10174231390728894,-0.1681524462738498,0.08170937311457746
