start,duration,0,1,2,3,4,5,6,7,8,9,10,11,12,13,14,15,16,17,18,19,20,21,22,23,24,25,26,27,28,29,30,31,32,33,34,35,36,37,38,39,40,41,42,43,44,45,46,47,48,49,50,51,52,53,54,55,56,57,58,59,60,61,62,63,64,65,66,67,68,69,70,71,72,73,74,75,76,77,78,79,80,81,82,83,84,85,86,87,88,89,90,91,92,93,94,95,96,97,98,99
115.63410186767578,0.6203994750976562,-4.9145353059074175,-27.756139152945245,-9.255023848485617,-30.0148180590386,0.5908157745740062,-8.155839252506766,-40.97532699983849,-0.5536322226626575,-170.7144418084054,58.88596658677497,36.03217317939153,85.6031026977929,24.042724153249033,-118.07036060310897,-14.348945761399833,65.92905593254001,-79.7418344363058,77.51120891556243,-17.948034008863573,182.16000807362337,353.66243158800717,196.26201219478415,-10.604982107022236,259.6745954499209,84.10137733209862,321.0983796481524,259.2624226789385,-9.510850978803328,49.86879772061019,70.7683351587485,92.44854225377918,191.9309012346267,-215.1158243289088,65.04408030940809,76.26233222064698,23.044977493877248,-4.475207941809782,69.77091861679975,-53.01137235992117,-51.05271064911567,6.399256317865115,-79.48947356421908,-76.6389870066132,-62.80882444087153,-39.802820931008824,-72.40970471960932,-51.978199505598006,-103.88918711500071,96.951164452925,38.64068115852858,-19.70454111649065,116.17493586282811,-8.29336924669375,133.85696333496412,5.1280762009865,98.43091597803391,180.79227320326464,56.51611227448989,218.19083075942729,55.48518561476083,-53.58606249712272,-164.6022860493865,42.523868928910794,84.58037925514638,10.004208601211637,35.2194079108092,24.33197141099538,19.795560325759343,-4.199352821969224,5.767271444483471,3.576599810027128,22.402294510141868,37.531292804687574,2.3756668160144923,1.5835074243507652,23.797703172518773,7.007352319246556,8.115325719121861,-1.9274964394187175,-12.516874191493276,-12.984934211922425,3.4737863678974827,10.28706129329336,-9.964433925508416,29.21316637394824,-7.4578034883424085,7.229881579042309,-7.908431268216995,3.8712489873376468,5.480896457159409,13.791954658840568,-3.3488913464035175,3.1708691459204124,3.017610547316814,10.299081232303976,7.973533486107325,-4.11616195182883,2.6045499193538806,-8.256271911408348,35.443403334215965
116.25450134277344,1.3409957885742188,45.534477285980095,-22.245926744060835,10.897680809065712,17.9439105803616,-18.363593612579983,31.177294396151954,-22.50166160135754,-9.507157524505772,7.632423637055819,-6.413379088465357,-17.893616166012347,-9.0811802823773,36.6994405851936,-26.311277104749127,58.89789908467589,-39.23125993761826,19.39494143433961,7.54473937670728,3.101902819986499,11.59793614889934,4.439782458589304,-51.715611055730456,103.17347861769046,-194.25460568225165,44.18270014342655,35.959149678904744,-102.32049299257162,59.68798120147059,-85.52631270447586,-10.611296184633634,-76.83657027147132,42.618317538107114,-94.08990672795156,-19.380221445350845,10.546486541145867,45.498070322526296,-62.66538198493781,16.557601558481345,28.410366306323507,-97.12987098152762,44.92084168814893,7.17845590557963,-6.123119863167954,-14.690690304257313,-4.394566758117481,142.2120324040279,-173.68282789153682,20.87366427925155,-23.152092259584204,-53.477449812490335,72.47632193873405,110.36029603526785,-147.44253206487065,146.88016875528524,-110.00690940239627,133.11596996295705,49.132098006790386,-15.038966770824644,46.93161866230918,-82.98373250939618,45.988913266029485,-139.3266136060463,101.44764443923792,-85.09010184349933,1.7069059393920085,-133.3165218650648,118.31651387710095,-108.64449496590946,-68.58341098248603,94.54402377608537,-126.96555978662472,46.365581085964536,86.95754863934697,-134.45150647316848,155.05019590162908,-67.3134513618572,-2.284265289569205,9.558624991894025,243.17452793138864,-243.72755790303574,128.6906399529046,-144.08934422698078,336.99850756388133,-146.96686715588154,60.50391696977963,40.71132988729879,-243.16170812965186,114.6584744864528,-11.281792501455218,-95.41448985174753,32.51955833410857,2.3857607544706596,10.591675221193142,-102.32189089985292,62.838523426971136,32.98274754506341,-33.4865278686858,146.5656884924221,-68.87246301249232,136.8535958234163
117.59549713134766,0.601104736328125,174.9011387790868,-137.5706488631162,-128.1528926388757,-171.47168927698885,-178.3211992207613,-100.6364916257653,-33.810779695875844,39.75859774035527,10.111905976443765,24.09713003908412,36.56791254258095,-134.5728434897991,12.475261419218246,-22.477617817905923,-41.737631524541875,-22.48365593910652,-33.025854195846165,11.046462322583093,-15.351970456191896,101.61120347336708,-0.5446425858815743,-8.563212134609117,-24.937790215176665,-17.77996196871123,-174.96388776860144,-19.43640675891403,-11.996144557902705,20.353864036356807,-32.152383982864706,-39.1410577531964,3.5800820994520173,134.5659387529361,85.80614766655529,-97.26382317353837,-40.726584982581166,-149.52134978579096,48.13823043306317,104.76249239254952,39.922319280415564,281.2715031321429,8.14384448629423,-33.63631791685658,69.57388460011282,-48.3149719941811,-166.82044766213497,-120.7631631230668,59.3971699223634,53.18306895973622,-3.9561775461378854,-12.834128409139012,2.638385580995629,-31.278093322798508,-7.922999189628979,29.30865287876085,-2.03466386230863,-7.73150951912179,-19.814995572645344,-0.9501889742145391,30.23484106822918,21.720448472840687,23.695805597452456,-18.048084807313764,6.259341847752413,-14.566520227290773,-22.61897739101954,8.732930731422492,31.491847259771287,-15.179107534765514,-5.727076945061851,10.069311768064578,15.84900544456936,3.1847811980274137,-10.096422202993503,29.09145253173962,1.3147758930570075,8.557089039839633,-6.1236870191561446,14.570202371745982,11.090506890673666,-21.968071014125627,-11.85213181607054,3.546326442673464,-19.33320662621282,-4.058616822646744,11.905202157909503,-14.668574645624854,4.791764140193632,-5.696880059346935,16.686149825221378,4.532833659411404,0.9577092147364159,8.145308177157412,-14.933333011445923,-30.243646495720483,-5.170081129710825,-38.57615330787866,6.9560262266683885,39.16855033508438,10.86182498947834,17.92534486636298
118.19660186767578,1.2212982177734375,14.421301064950011,3.1892642744582465,2.1203417432635976,11.44850691340751,-9.888980466067444,-5.070475334098052,36.69472017106553,-98.77339337956307,56.00587624441143,-101.16237333437243,25.970076211596357,12.861182721412485,-16.44065518833836,-37.53016708324425,-9.319940802599419,22.51445296061072,-23.239417000147284,41.86990624949248,0.9777412273122068,84.1134313947813,27.280154370869028,-100.6699447047318,105.8618727007931,-79.67043028661634,6.27542936811944,-18.037326948314046,-8.599822920770704,64.00992082398646,-143.13171818904001,117.97842716416672,-75.07920570259502,-69.18876215851256,-8.143032032364903,50.06699040725633,-173.73187157422547,97.17200790309957,-49.824159189956475,-14.744418795887286,-117.4749646389141,54.11412606606609,-17.804860159892065,-0.555905916184642,23.11957861069245,-28.410341176918553,130.56452310340416,-186.204821917176,285.63150243520295,-128.76990235585487,-67.40351958627107,276.2146825864337,-205.9473045753209,-6.908985397767436,7.798675406752845,-20.141661060192824,-139.37140163667942,193.79982485692986,-247.65656230505033,351.59788488283624,-365.94646460027815,184.24662848105135,-0.4681536570080045,-113.9781514710107,196.59201117953597,-235.6132897754494,-103.34206060292655,485.7026829506409,-295.7888213806644,154.3864916814934,60.411673396347325,84.11780305449372,-89.02696993519999,54.11509221263987,1.8154434307725076,235.04881425925632,-217.4355277996525,-106.15069360895549,234.9171006553108,-268.43698471250065,-28.766735780865897,334.55857758654867,-424.88635826350236,23.62910933997641,138.213753375995,-249.37365883406392,19.337207354336293,85.9846047877178,-131.18508445370378,-14.803222960731608,186.3702480010379,-113.99614931830747,103.91225924301085,156.8043508616401,-116.47778563238651,124.02374760607596,-61.65382805767992,-132.9935812970068,95.5261930287958,-318.5966024781211,56.23616364977909,169.41704848422285
119.41790008544922,1.88189697265625,181.42366013298584,-45.38196509675191,-228.53920957867714,-85.38851845663098,-26.940739598529724,-84.58681575907305,-212.009917355401,-20.2489158610452,25.394363828904652,-32.208519802469766,-16.15202661623607,19.712901433624946,-18.579689990413534,-15.693598969848367,-38.72808523653628,52.08531675383903,93.56090256787456,43.01511130989748,-4.563605927058081,-96.82720531286098,-58.838929004996515,-57.5642243648141,81.57061394899418,93.47696934887685,-187.7240458691189,-176.9709938091384,99.86760183569534,57.060913618283955,91.16684345958406,47.80253641693441,-17.14002850534451,183.4099694881109,140.57591393268223,25.643785866915533,-34.47491402230725,3.9225367542938616,-0.8692074425206329,-64.70513001834401,-112.2608676664526,-22.16297356761884,-3.377045874367301,-77.51910775620692,49.216499985268015,25.64768172774083,-48.19235865164664,-85.54120241807863,15.113026251397908,0.3686301091750339,8.914517633665968,8.416184076972645,20.24613043463249,34.03626845606607,17.316885671331846,-30.834876892442647,-11.408172196196062,-32.168702568662226,14.264968092332946,25.97392943023496,11.764278204308948,24.906335376396747,-0.013309959938428165,-7.8073600904521605,-5.907667691329512,20.14558381512849,-27.97964629465593,14.41304536457909,21.06685142422319,-7.22777083485332,5.682663773254104,-0.8609692722679029,-34.83761200637778,-37.21446220352636,3.8049334966830584,-21.213200860824386,4.343869826085066,-6.363773123920538,-3.7023815729490552,-5.472380539529126,-5.698175617958427,-8.69645680474847,-13.41001225345009,4.319556582768158,-5.630641940620148,29.450673772777517,1.2449729637523634,-1.305964913503417,-6.8655093794286906,-3.548082783846054,-11.031847853904333,-1.4020434045488268,-0.18883450493102694,-1.7365528560461172,10.853635259088193,10.724441294897868,-56.888572551943156,-69.61819217562648,6.952179536621469,8.232456007350738,14.097388726241487,-4.217050778326235
121.29979705810547,1.8314056396484375,1.2025129458100037,-28.00488529396592,2.5758958426974363,-42.802143579686586,125.64463574620042,45.88522518675213,104.88880811260891,-21.97211438740339,96.01611585382501,79.2055551775319,-144.02626549725485,18.91897634500082,65.851632708754,178.04206977269126,-65.07127705889687,108.17206363557123,-33.73144298555453,-232.79595015563223,-36.60421144194986,151.9340550931869,12.079092091425245,-184.14600366745836,-197.31047336956456,86.75225138670064,-6.324687820212704,-63.41506806161219,-147.48756820704014,-356.76381985907335,166.6477577395548,-226.27119665801348,-155.303809636152,44.76402816973853,217.4202349422349,-289.8487806947931,213.41595714642978,102.55332917748758,-67.14830076539953,201.75797161017957,116.39840032380901,49.74965933319886,22.701390253121893,15.979783528153323,9.074272520308565,31.088450631764832,9.646731157146975,7.150078274379754,103.5452188172539,182.82455638242212,-90.77556879833287,-23.188768303864695,-1.1125287255446246,-85.98551775785378,124.71657918790999,-17.05856335247096,-177.27551207809233,274.15262562240406,-16.53992307736332,15.772858207192758,44.43122872349063,-26.08967557935671,7.10297424634744,-50.28872538494685,23.297493290096856,-91.63206360249102,-117.80124741444553,-28.451928350180093,33.09812485691177,30.25493529253132,4.254752305330345,6.654464602788067,-33.73482048269506,9.42627015683436,12.537664301921634,-4.480556530938517,22.335081426366322,-21.516914574526147,16.798298461212852,-30.636127896035457,54.96010983146607,-4.312117742832253,-20.525318723997884,39.71321614258557,17.755323063696622,-15.201849023592034,-30.678080084827464,-16.935945273902107,-26.2223217416922,6.539418571054062,2.317560272037625,-3.782815852643301,-9.31136493942607,-13.00993430694267,3.5332546581469124,2.844415454296037,-5.110031638191634,-0.12422388317225741,4.18093763107687,-8.311587829037247,-56.281316641904766,36.4630973235813
123.1312026977539,0.6909942626953125,29.3446796929791,-34.03126813929667,-15.61267401149768,-34.76805707620568,25.991536498949646,5.665456608760146,-11.7757743358634,85.94080641314663,-26.98428067854561,-11.009603816205297,20.020464643115965,35.9108664545879,-11.06589301154052,74.42929920140455,-14.355238900192695,14.489405168593729,213.86158648969,88.2402566596823,37.59645718837295,-255.84271208291307,-119.91450638028513,130.2273742879567,-201.69991153727594,-325.3320983616279,-42.65862641310612,-66.14985489378472,84.86614974822267,-112.62573727137138,144.81408589929558,57.4828452727319,-173.36176625104537,-208.64031461689513,-67.09330459525479,339.45646160407955,159.34340095097787,93.36692147217023,276.53454900550616,59.5491973920043,208.95177740367626,104.43821035794606,92.00324295073779,16.041659360418663,-57.26046300902509,27.838517417134362,-4.656991759008925,-63.26890161872879,73.23197401427147,-10.689704352914447,-70.37005445902602,105.49836900341421,-86.98848273787091,-45.4152597828507,-20.174635370379196,-11.089751239228594,-49.74680526055634,33.46648293520505,-90.94928809383767,0.40892772768795815,12.009225894484324,69.0174040193462,-29.127190856497798,-58.64030109417574,-124.05843818787268,37.87038840746726,0.0409587739222359,-17.916844099969882,-51.07284195068255,11.912063242568749,-16.990376240396042,1.0958091658958473,12.219607205449798,-30.528378710539144,17.742618011038026,-8.068805207172948,-20.187234900649134,-9.814114989252964,8.274717030012058,-3.9982645354089663,7.957575900176733,8.335508557602449,-7.699489173133758,9.020223420809346,3.7488480640423028,4.940752734339748,-12.511056998515734,4.224876755030983,-8.049918085115312,-13.342801176383322,9.427549652490889,-1.579418312327758,-8.705720096518068,-8.135515400942907,-10.991994339946627,-0.5330887863832802,-1.387680386702539,-4.062223458990691,9.016639817406475,1.2229817227495503,-12.290232397266925,19.985692299238615
123.82219696044922,1.241302490234375,20.81223172598596,-34.39373751462342,15.47430288872568,-15.4463415550749,2.2951922834178227,-30.471989529670967,0.1538418604029994,-42.90345510136463,57.04791350241395,-95.63016478227571,83.67726135174473,-49.150854133661895,15.812830682197996,-11.80162293603279,-6.067784656994108,24.652566877926787,-53.13765474512357,-0.6075294066313317,-18.681681195400444,-6.501289427818255,-26.465616984087617,0.9554336420138343,-1.8977560980576769,18.597166370483688,-24.2279313358387,48.22981172944345,-55.548346689345856,13.52403515447684,10.570273231501737,16.54197604625639,-52.46614473448365,-36.62788330269314,69.69262229743222,11.393675081141309,-17.149536558575434,-106.83790738101676,276.91869741528797,-267.50065292900695,137.06291336201602,-49.709172835388436,-44.60562484338571,127.40117929059849,-26.276347595859946,22.769768799335207,-75.06177129347827,-24.700451188697688,-29.602230910049197,10.68186692479529,-43.74761025204796,72.60543331610238,40.779086740149815,-1.557902661072525,51.10906831339264,-69.6243570805854,158.25588499330044,-486.759207380051,353.85648941352224,-270.6119430541669,60.16104355265313,345.0162011849597,-263.4318251609129,190.81735105315136,29.55633138507262,-281.7360650674379,271.9364899378681,-229.0475080180017,179.8514320989363,17.503450935057668,-284.68002104730755,23.484823629864906,52.4550025565417,109.44739185953102,88.07697533379653,-349.849401023361,218.96461249640402,-443.8558287056016,649.2040339545603,-299.43892548888226,385.9223992973566,-481.0345680350024,449.2404305373389,-200.88584881042266,112.08036478634449,-110.42936826107525,-24.864537242126694,-57.928846055204,26.83017779135442,-175.08304413815256,201.14607290584374,-17.18263402295338,-255.35212228079084,70.1308471786627,-180.07702727578456,182.8691126566702,-180.71694057461772,126.21466760679091,-47.3178947767486,-278.56925873979384,277.1062136409402,-353.64964383562074
125.0634994506836,1.901702880859375,-305.4559437490738,-60.455059105153516,-154.27393440350534,-188.7158317168118,-16.14406827495217,-22.72471297296073,38.518476549897834,-9.053854579820637,-94.87808441661358,150.34089358635597,-13.535777536939337,-131.93929198447083,-61.93481312118304,14.206907655620704,58.82719020686217,42.04522308709872,23.502775902206565,-53.44063882515812,-83.30864280287997,-24.127494928964087,58.12776223057011,10.286203588109593,-94.48779317533446,-61.40711804778016,88.22987218314042,10.244583822351562,-156.83945996900445,65.3489426400042,32.32854605723357,-75.97930793167866,-27.548913424628044,-152.88480772344982,-227.684631617462,144.48464353806793,165.26801597148136,49.03910678532092,74.8346731108039,2.916076677172306,-28.579947940057373,-18.712506395603768,-28.242121618952265,-73.38626657271406,26.77755675280765,11.34107535313856,4.095942865226689,27.75730159074456,46.61247158347459,1.084742703740241,6.1636501439156115,0.34422215485216157,-44.528408692093855,-14.29931494483992,37.40505023535171,28.660197531070498,28.604452271288523,4.427481096061748,23.471259939695923,-5.936234833947546,10.687000901031011,5.877033882170361,1.3951144267766171,2.620519754546218,0.7421721468539315,-1.815903984434744,12.018625561747445,-20.0178907347042,19.615601216447573,-24.207207167089067,11.665575304710893,41.22813514920514,-4.974561023486569,-10.99826852414395,-16.14385060766167,-21.522639084999902,1.652901754404583,19.76574041105553,7.298343987055151,0.14474402980620016,-11.933714382229205,-9.845327730941626,-0.37221622502536533,11.913860604014905,-6.224397793545286,-9.019523426566039,-3.8388982559619915,-5.1432541855157545,-3.0746903949511752,0.6140033073707811,8.832379924587922,-5.654634014092522,-4.0865585642853,9.468954759165003,-2.4295403349353837,-12.635961551611718,12.775551124795705,-0.47061679838538595,6.421183975529084,25.69961140183176,-0.8818163688590377,-23.250555222425106
126.96520233154297,2.4423904418945312,-21.036595946970905,31.51410806316302,-53.85990972068699,-18.525825703363093,-26.884064580922484,-29.169438754523675,-6.696181801987163,-34.027957758727666,-6.3641817627504995,-88.7171715773844,41.358980621206335,-79.9386738362252,-1.0238388156204614,124.03093217015788,100.08952909164174,-90.34629783350591,-10.364247058364281,-55.88173924592716,-42.50464384512325,144.47933140131704,122.18371660468613,-607.807584970397,117.83393316705518,-29.4521780400316,-79.23276444758767,-63.503910834600845,75.04554779509365,33.3588050094517,49.94491312124965,-151.36055365230825,113.8664745201144,-287.23383967214124,25.28947265394092,46.68035936082773,-28.78960207316578,111.16743913078363,-52.27947437802094,25.589717114536334,-132.48327911753435,99.71088955657561,136.5004237698998,-25.552419285500665,-45.9840515699568,9.504004833222325,34.15170319548975,-46.10977643387334,-22.97740040862231,-52.0038041899953,100.91419226509659,16.632071338706343,-50.63586334470336,84.32294329029487,-43.13875017604082,71.97698304789004,4.212846173328131,-118.26559232440646,84.00875359576374,-111.62813238910799,-121.93415121971618,-69.5145319789905,175.27053951455548,-68.95421271041174,-7.780907244623091,14.204045872035461,-13.062765707238775,18.722085224717848,-35.101769399774994,24.89610043627162,-6.987154083374223,11.83450148096185,-4.210185679891912,-4.5896834972969005,-10.426503575463663,16.09762150887357,-16.297748144038955,6.860013597771639,-9.971293543745903,6.072128737762755,-3.2885791192752505,34.01856687178341,-7.530879316857643,14.434478412485035,-4.032527105575785,-12.299450920216852,3.0131464623739754,-4.9958789461006985,-0.4087537658206455,16.898837426040224,-16.019145485429693,17.749643157118637,-0.08252676997831532,-13.513818234312364,-16.81558740388844,6.085674902629096,12.252465253752588,12.628868962197767,5.456336800120891,-41.821636839570935,-7.866126972122782,6.799579572525493
134.60279846191406,0.64080810546875,-3.7733742190295807,-3.4308095399029357,-1.0427455101854746,-22.42641163617322,-15.954488509071906,30.490984474819115,-44.568504760928704,14.921840695566981,2.8888301497314983,34.210474704816335,3.738278548750813,46.20675106679762,-62.34345564610155,-84.33648919897647,-136.1043142779177,-65.98535941297907,-27.39965130646279,292.2980536993423,145.1237228745527,-506.4873049805001,287.8978673002995,-183.04406917548624,-139.7073952268363,17.759717374705005,81.9596502638372,-77.57671569343742,99.15222635678376,171.8390305441666,-110.19817790829748,120.5376159866325,90.17903775197284,-443.66237216270633,208.52451191155023,249.77683383309872,31.789265428153254,-190.39026098860867,-57.42366430288215,-93.72185931951225,65.55658644790147,22.47590319510829,33.383002364233235,-25.754144334733454,-71.74756015425774,63.76802732104102,-38.329081224515306,-46.29791595960959,13.85862486207547,-36.062332021976275,-20.50687556653618,77.88028694680497,-35.22754451739752,5.378940193802148,-21.9882691407174,-36.448424604440575,-113.3009998395937,84.37454750679795,2.5779462559025816,118.46625068001285,8.776067514066888,-194.51366278438482,76.3038763334213,5.974099015442647,-101.07639048825418,-23.96460175391677,54.01388178863286,6.591959124023711,-4.345590222440541,11.505112683211102,-19.23636501947767,-6.752695706894233,-11.494460475660317,-1.2454674573919768,-34.79931066288074,4.6968240889751405,3.4553785229858027,8.536383690020562,26.281989150469702,2.1423726537680405,4.782622917054996,27.33307717757596,-4.357521146486285,2.9314092903569486,-18.392099803059732,-4.028633621022017,32.77835137434256,-16.337288604519834,-1.7602682261249534,15.795904859263974,-10.251353094252252,-11.69615990985891,-3.379412605316133,-2.484714656149552,4.751283986860099,4.909690046952268,-11.512741368402846,10.82632595143641,1.9096233300566772,34.47970971336848,-14.632741046042076,7.890036439844717
135.2436065673828,1.2711944580078125,-3.6791957172637577,-7.132051267397603,19.9039784834956,19.764338415404744,27.788829458290525,-39.212299781623365,-18.82811020892416,43.571697810828745,-44.2368452469427,-27.137152286405158,17.004780607170503,-16.81406356594513,1.4050653190158968,-2.7376254806858142,-12.086974916900282,8.508235369448888,6.587744847186159,22.081781419429632,20.494286029820437,-7.434833729067746,15.577000136030202,-40.513248587077676,-17.27425810996581,20.0085835418776,-62.40369788882078,34.76190076648252,-9.453071148251643,-42.66685330338084,125.7509939926182,-46.46803114785046,26.948690051144748,-83.98456918175557,40.29352135636444,-64.71380128802375,76.42083603980093,-105.22630247426622,139.9370420678841,-113.75486396960692,110.85845788260822,-116.87397059145286,140.53549684167115,-31.17582230245338,85.41690707300673,-149.9072267582045,232.9999515147453,-278.5301654021366,343.934702855575,-214.24344429701821,39.506322845430496,-73.32072489240363,-103.2259284827862,59.78365047913225,-17.771288450216854,-73.94088401436497,251.88518607036983,-87.1466461843808,270.9441015872027,-269.01553285636027,70.8721826593648,65.37923428028282,-263.42533071705174,170.99344880552206,-160.92036283335935,254.5548651220611,-442.6182049007678,418.20947493146195,-320.71619548082515,369.7007330599062,-281.0788854767004,175.56256908502021,-60.53125263475933,19.811038111718368,-106.46166004918288,-62.183195704921964,-149.08227698213034,228.93883532645964,-94.32289478607117,-134.5909311543839,186.00990551388992,-389.8133853276721,226.76989144953572,48.59755168648991,-131.1836887975567,158.55387166423003,-316.00843881356997,-7.316029583146277,200.58895748580997,-196.46258879336676,29.834730853570495,-45.68820717654883,32.86570750365678,3.4165298787697367,142.69437832908946,103.2910354006613,29.15345328463753,26.817506501042697,-63.63172575571729,-10.6111269632054,27.595414160466834,-151.19434258295894
136.51480102539062,0.6306915283203125,-44.599682316581436,-199.02854091132522,-279.4909888386227,-20.073363542588538,49.20275253321563,-47.60673717751084,-91.51504259806259,-70.81419132887889,-35.79293674734313,-62.58188114619402,-34.65257507774797,-38.53560995381357,-65.95435602422678,23.372061703879414,-32.61567500838232,-27.729650393834007,18.52642349654234,81.29736832792071,-6.107075508115646,-36.928707057467804,87.30433331148745,174.00877845393754,28.592906556561655,68.82374952112727,-80.94773307431085,-163.90865559130174,36.79659524131472,-24.349668662950073,-309.23608701092064,-84.5292860766705,127.04382496500283,-25.693084422966855,-17.61456769816738,51.9006318626259,31.018757537233512,49.06331107555224,79.08656998861102,43.30156055849932,-72.10044863733076,57.21529983277089,44.108931791236415,9.81063117268732,27.279475655644074,54.394556602288105,-20.70375429157169,-5.5028840659826725,36.655416852531204,-18.146745786950987,-44.08405888282263,5.686204611855384,-13.72709569262112,-33.139267808026815,32.29206924092327,16.46812570611731,2.1535725435867663,0.14730530760042582,-29.279326462898894,-11.250124510030915,8.182606357868734,-7.333243854077179,-3.850650725024046,-9.603045776597703,9.27995814798352,-17.548081285312847,3.5275705455081883,9.248150750394826,-7.098615184935982,-24.63693864953169,28.56673354879019,2.961271693011044,-9.245928518853496,43.26773718071707,10.268151280185165,-1.7974417742752795,-19.061383360064255,38.11266133609255,10.720069763594477,7.891184588378261,15.868783703687932,-4.509657726145109,-6.997827830848097,13.847553594834052,8.83099422744741,-7.025053258904493,9.194662471114967,-1.3038949167099005,-8.483541060193195,4.978286471818132,-8.455042636812422,-7.135281816469046,30.26430904213278,35.464332435867156,-2.888375021059481,-17.99934333159166,-16.779154349805182,4.674723198727725,-1.6394761979786336,29.807094453909365,78.16298783403552,35.644350826438895
137.14549255371094,1.3311004638671875,30.824642515443806,-10.52599908302323,-25.794067048947614,15.663988605996055,-6.494598069370161,-18.52955817614058,-5.504602743215745,-23.729221794670057,-16.319738758500073,2.187654114977672,-37.52908239112293,7.0504631966514735,3.8954837660542374,-0.7979516994996265,17.162913158484695,3.2126929872279324,-5.15032833758877,-13.041316417902962,3.1423525768367444,-11.891284356241966,4.642833845968049,-9.141664056648164,-6.72117383841099,24.182536723630747,13.752306620504282,-26.438610580335865,115.03964007454555,-150.13727523744882,29.405780205495017,11.289166159864664,37.09260156156009,3.6481468369841803,-1.1286068936824414,64.05604600476107,-61.89237712059736,50.575745726847636,-82.92216075538025,-5.639429639110671,5.131158734737941,-44.41457250201498,3.6597492433872674,116.18617736323188,-89.47767166975594,112.37199465249736,-33.84358000939913,-39.5154179254631,62.05683293378577,65.64663064074165,-8.662660928696749,13.625898477912305,-138.25153032247434,-0.8728851333316576,46.527550462314764,-20.44882658222222,69.99297299652649,-0.7136811072427101,-80.23047492030653,-72.70637118487971,143.95052249314196,-155.62123572937026,69.73892103743265,11.107115242292224,319.4875309804471,-419.87678120466427,441.00110170811655,-417.44864658457135,-79.25198405419266,293.8776478193652,-277.24175852489583,82.89827680571574,117.05996220332779,-290.4418188924486,206.2117630850595,-142.46595151320858,-77.4330853389255,106.5691812915967,-21.788755215843317,-55.63024168115089,68.23213958387907,-94.83128794514472,1.9075878291984125,198.10519928080208,-291.4156559008922,243.53579541982796,-31.839241148495,-10.439260816030213,340.6913698573255,-252.70915014026326,209.87319660466719,-6.324858999476291,-103.81792926126532,299.3968392365724,-352.19314123111224,281.59896789942337,-45.284672997551,-144.64402992113102,234.60980659165014,36.51164891067099,-132.2356840255315,161.4342077792525
138.47659301757812,1.8719024658203125,175.46025584705566,118.2884316686309,-245.1734651251212,-177.39513027700357,-14.0284084669727,4.749089012599136,53.37466685385779,-5.839058238205601,22.269268157870798,16.52495292798449,14.629385826405851,-116.78561094185918,74.11338547165032,31.63288438084817,-51.98946969700324,-95.53781047302012,8.934330985855347,-49.916676149287696,-63.47778992821973,14.492002603638895,16.832311681679137,24.843211541417645,5.382936251284308,-55.5043025864398,-20.85603629826909,136.92823673840687,-77.16226878694307,-153.28895011023582,-124.03483394451604,-165.5656426320075,-166.8650917020991,150.79801205851365,42.22932607239563,60.28056100386683,9.518155191717668,-150.5878797909124,-105.58923447313236,70.46464454101222,81.97956183957487,-58.213065099933075,73.73953178068048,213.0111380924481,165.13486264270313,233.25667633026043,17.650231935271016,-115.83540371767697,75.64423689211854,112.72464308816986,-52.76551408249914,-94.74474154373443,10.521943726763412,-8.20715946154242,26.73320325911654,1.5902546943831002,39.95261193806134,39.970725383415186,24.508685256164718,9.725362125108717,-9.665251189509739,22.813452246134823,12.146270410477667,17.942159313027517,-8.553193125642,-12.570487124412214,-9.721708728972583,-24.386081439050344,3.1343042977847504,0.6789883394366605,-32.6380181319099,45.01272241657472,13.601814764701034,3.937717938558428,-5.010026529004577,-12.697639825868006,4.439128448073052,-6.6915603457490676,-0.6717646573717162,2.1696845540696086,-5.787776861240511,-4.685769912321715,0.8217481291409464,9.667076756369958,-16.60459433093308,-0.1098453746523762,5.673924234043176,23.647563881318018,5.13361385784681,-12.68445544681649,0.7645753988930122,7.013098490336967,-4.097384459757437,-4.838013569670386,-6.978873524994881,-18.761066443249042,-71.31372258638102,-5.245224142980071,-39.84479075075762,-32.354099208302436,17.17497671549662,-16.157801848555785
140.34849548339844,0.6305999755859375,-10.521522896923283,21.979345221615453,39.49744967600922,-4.297390933072376,7.867386914799754,62.52783027388054,-54.350015856052316,48.95659815112406,-107.04336590663728,13.748847606090244,-37.39070157515776,-101.65148173096901,16.09770986084228,-43.57227813080302,-119.45326007704806,-56.20759885167844,112.19553031512322,79.54090437190244,-80.44286461443086,152.23359911003016,246.0059465472453,39.47865632758722,-141.63957486384686,279.9242167904438,171.31382746578151,281.630656220524,-110.39540717834478,-63.66729463236119,138.03856165634474,-282.1033838720419,254.08387725377082,9.181795497203368,102.76175216836086,109.3383426125173,226.1664951805305,-163.66110430180834,171.57919722888468,255.83769637342488,-3.0736418501718674,19.017115832472697,-232.24150313530197,157.33653075427495,-79.30568826227484,199.4439623683829,5.169659419495112,-86.68838452904563,-25.23665804351709,-12.59501886365927,-234.7300848920642,47.06873862887962,0.5710431311581334,37.40315619553986,48.30020399249531,-37.35890019921667,-52.83633777109795,84.76328135937744,19.451708902822876,7.99377532162227,-120.87066016345089,-26.242284153602377,-9.779512908612118,52.9146526213547,-7.703200286176521,-18.21281168452065,-55.75952065373096,-18.555033284617075,2.665461420818269,-26.003828518040347,-24.796090881116832,-39.27161605433879,50.6547061758356,-6.212138320286799,-32.25364884043604,-16.16552958845725,3.034016900892895,-27.329724109479805,14.959171032114508,20.980279075547983,26.77133429498742,-13.01454725442335,-13.679800320109521,-14.007295570644255,7.863280627056766,-5.3405338416358665,29.55815349512155,8.471204623448427,-10.584051640800482,36.209340017791234,16.900223427241166,-11.678257842677793,19.29681521816188,0.9687179201905263,3.200066878912482,0.8835872655788815,3.8894230518409074,11.745583269854194,13.801014306168131,-22.958341633067604,-4.301213537823177,-10.455492018664145
140.97909545898438,1.3314971923828125,-19.826684171409127,-6.932672972290303,2.5988021152507192,-6.835603239034056,5.408378651154215,2.524114388356086,-7.049947323424275,-8.6932739444655,3.548282160701367,2.5367847611100993,41.786237768338566,-17.056505765129653,23.20233583965354,13.433424197908742,6.88200259408144,6.303374591262463,0.5314636511023403,-1.122705292778065,-3.376830435422594,-33.771380987566225,5.315279937979271,6.487516335568433,-31.43564103813454,39.18732576389238,-52.1713406177703,-42.90694376754442,-33.13769125878146,21.14472865702672,-151.55646425739369,232.31834402171344,-61.26321727102595,14.420674307885362,131.24492108308365,-146.59200690209542,90.78103415350174,-31.238858595725006,-42.17234009064617,31.988175078352683,24.753126487186634,-60.579385105779295,140.76167976302,-112.20409157711208,79.29952397069943,-64.86139787719983,-39.683816289915825,48.35800873783315,-161.85864463887924,189.11344251052805,-150.16440678771005,10.30108899786979,142.61854698133857,-146.32263107491858,187.05406564307845,-47.23744703633427,78.77714485993523,92.8976609446336,-182.3868175087588,195.84719266903485,-265.01741821390715,147.33467996667812,44.08555342352859,-64.50816187743206,181.47664631191245,-92.75352660818228,151.4165145102773,-294.30380991672087,106.98384819524838,-145.2629003219241,113.29477447936964,234.70643926672062,-225.53846658841294,153.02638164025126,-3.4452178888261216,-129.75513170723843,177.5161486649141,-64.09986808829498,265.6685712664452,-213.1639307636063,-62.40891527210185,302.9997510252644,-311.3285393644439,124.61804115433955,-164.356345186498,154.71599116222768,-65.0652262635437,89.65478024100058,-104.34125343412497,-44.96767145937255,121.00304560248297,-102.64628725639805,9.199323204079647,132.775789341351,-119.34128514728661,305.8179990185722,-236.597132374664,140.0830426061711,30.8730916852997,-167.85066986058442,144.7848712781757,-252.91872898795052
142.3105926513672,0.6405029296875,-280.46202144264277,-303.89174149234213,277.83547059218085,-6.839256715166211,-31.301397886892204,130.89525083304477,285.4839926210443,138.7582434150284,-229.80983711272435,10.290662346230363,-35.840730682881,30.912851533680104,26.567306477437203,17.851792602556532,61.768012162782775,21.4910243017888,44.55929374761129,-21.152920863049225,46.45001370298168,2.037626146498157,35.21702173098444,55.83769598791073,167.29860571476337,-4.580317018839631,58.05434849118902,57.19244705390306,-22.547828654446743,-24.412261456787746,45.20561636630396,69.95303563507957,-60.26768457024188,-59.84965600617726,84.25482487484204,61.25725602980305,-84.3087600934947,21.645124464074247,-91.86671995944266,-119.57531879879267,-125.36381898682842,-2.5126868645388587,-80.69959263668602,98.37460867426667,-80.77054986106619,185.1982957586041,196.33627805422236,277.4952589479066,69.36075831903746,-66.87669556151388,-113.03469365220057,32.96331009820553,28.539087193736865,2.7792717842543895,-5.451826107289483,1.3563607216827709,19.980842748189733,12.552619193461346,12.593118643287482,-13.518091530928189,-17.82052784280244,26.9259355272951,28.86495312131963,47.28057606834172,-29.48115778505957,-6.129460312139874,-5.2328008818701734,21.199992213226473,-17.59666910937397,-12.917069698789259,-39.33973115777939,-43.79492783646158,-4.770252594742537,8.966254593811769,19.573845672564563,-6.930276736640897,-21.10745330851389,24.325031948977937,-25.937959706451966,14.305667034004653,-32.741228448477614,4.679172703058973,-17.919661472012542,-14.352808983873869,1.8530425484019377,-4.037619853674071,1.4628576327141585,11.58208735645243,4.148221496554184,5.9572740582141925,13.645796870314356,-7.307045063606549,-20.099732353418837,5.654378687135533,2.751213800795796,0.09782361828018482,-9.800626826454582,-0.9150110710619226,-21.146883741395982,-25.454619430910572,-21.89579099054192,-30.561665624114816
142.9510955810547,1.3014984130859375,-37.488935927586994,21.521666799201892,30.737428999830556,-28.482732198852396,0.15725183870126003,-32.81729707716516,-0.17808935907426787,-14.778143776361459,23.93607841421533,0.9209027647022829,31.08792521413436,-8.018364533862291,14.768947197283344,-27.85724250534069,-1.1011473008107049,30.966376543280738,20.037681698575607,-16.47706477406593,2.3962332569581815,-37.097640947976956,42.13711983920813,-14.047394027110633,-4.7541321016872224,0.973061687541029,28.054573995273145,-5.683186244477153,7.458731509758497,-45.20760101295903,-27.756701814374626,85.18034364225383,-133.2562672963125,42.28058341105029,-51.168780881499536,-25.6509962529563,93.60646301653956,-227.31670380680103,119.06808525487718,-90.08267502959481,-30.765466769043922,11.346519877962436,-45.27469592697016,60.559263386194516,-84.91366513842638,-102.99513114728335,140.82765995459752,-108.42418201880555,-0.39652678577402867,87.57392607609357,-75.04194406802587,-87.40376730010185,51.35632416454696,-90.85476776262404,73.15883705051718,-5.100077635757721,-67.53496555643856,128.89533807883873,-138.24803731815066,132.76366058023746,32.59061989647118,-135.86361751875262,527.4476795049695,-638.5372899252226,340.6070919642481,-214.67231874424857,46.38349127899958,-147.90706319061084,198.95352460438835,-217.46750883164125,293.2750581519715,-193.8630645106453,196.13881271071963,-301.92548067839596,44.875950838252145,-180.72366776160746,163.03553197406242,68.44469828258362,-152.65229621609438,168.6234212311376,11.62909141348503,83.6026762044246,21.59322272861683,-144.36916357312234,37.58627759492547,-204.36494061977922,30.63244644824651,-175.54947753492644,-25.88840588164545,96.01842477798647,-295.6055220696071,294.20793707436843,-130.90375915655974,39.31465820609517,-62.89171506622419,82.13138472682593,-78.08719694308195,-63.39614646358985,195.39517312820078,-184.69222645165388,228.78233365641077,-162.46726144685627
144.25259399414062,1.931610107421875,-223.55401703790133,-246.4356676989707,-134.56547254998307,32.492729530500256,-122.19473153188719,-17.082961911687107,-50.89216675466375,4.796758667666653,91.97549559849648,-54.075527503108624,-106.9780024374591,-38.757573853038295,13.474349208693697,-20.63290754937475,-11.196364488755897,65.2710824273239,-17.45367475930529,-58.23338827007054,1.1106576852531815,-17.79828371473181,-118.47252821934099,65.99227889718057,13.963665147530559,-110.0800457991023,13.082436924570729,259.39474238854103,189.89883549631938,-44.74833660566046,15.504187749847027,83.38069615551396,71.8955388331902,-123.89561593100368,-65.9344087185533,19.595147099557863,26.584698029927548,-2.811987532388425,38.80063375149492,48.980420911652935,-10.659695835965152,-49.07339343237128,43.84549775677358,-35.64291181402915,-43.12186447706714,156.83584139326388,51.29231021326255,2.7539784346304246,45.716015850022195,-9.557500077452536,-2.485129575363221,21.32140616186435,72.18634049235374,-9.652629467091627,10.568640932899273,36.412884161762996,32.11978161218693,1.6085239274613823,-8.841531906128287,-7.430766121586295,-1.7961954281761567,-15.518385749217618,-28.644328090071507,-7.369381570576294,3.8268634100078076,11.645480516694153,26.282824549503207,-3.7679143545149723,-10.367886183251578,-12.610495584982866,-18.180940199340533,-7.663928016255405,-17.935599110018618,-8.717632636717322,-9.06734961372718,23.300355456026537,-1.665590037685737,12.327413649766758,19.75244505041528,-12.935511692982255,-0.8228851194758181,4.686732994133313,12.559429759626688,12.93542640015391,-5.03750955539334,-14.302179245296283,8.550559087666638,-10.199329586860086,-14.805285227495071,13.72907643764125,3.9877963745099,26.988210696170487,16.275760812143286,-7.190308661984869,-22.82782516469135,-14.941548155557197,-0.2792694173500747,-4.630416081704572,19.53203658899744,-32.18882900576893,-9.140189145879642,8.298303941741555
146.1842041015625,0.6504974365234375,-2.8487699294644493,-7.013904554744062,9.796026349658867,-31.125750953449394,-6.709915479954492,-5.456764826608761,-32.63432168051051,2.412135629502462,46.50939053778771,-20.859715773477262,21.71195052170631,3.2910508593900225,83.2214784326745,143.75118472481404,26.04397247190474,-89.90341691370588,-43.86545210541679,87.55286030821134,38.13430626698896,16.165266108338606,-29.10816395119229,81.3638334879506,148.7538244672606,101.99063877241979,16.395689369915747,16.985012615586747,-35.32322152737017,-67.68880688635102,-153.0342763535277,54.94905236809713,126.38096259564233,-100.20181343853372,-212.41029870033407,199.63303534809634,-211.2180460864467,-207.7916944099839,16.422521661745762,30.865683215902415,14.052146631627934,171.2352807691408,-206.52325688327792,18.826349470007315,-22.263053721008255,55.70483789836709,-40.782269701358175,21.752532253901638,71.6666210375105,64.15012222027059,-28.420418344096163,21.16548771026703,-163.2677860356148,74.62360534343124,24.03023591749222,-20.612866578651683,48.29836706315159,-58.72192337617087,13.011744169692111,116.90450326946372,18.60597807716143,21.935625151399886,76.10533778267147,68.19022849628553,66.00944341603332,-9.597911775003451,-40.33273594447302,7.4216384831514945,-12.685634165017753,-13.763349204382484,12.845758326511802,16.277377773715333,-13.651086913488822,14.77239852311933,17.022170455861172,-9.814474128070136,27.353530336431945,-16.1860284959537,-11.112805368856584,-4.6686031148541325,3.9993927320819447,-16.441902092898047,10.346579305759914,17.853521366859766,-0.062187088204096685,-2.9666069549822125,0.24122890835206823,2.5501222580786824,-13.273669404022925,10.381038142306988,1.8141622794016983,5.677187878232625,4.74014837715241,9.950866486811492,-2.892696301630746,-8.296673585856286,8.467600426412034,4.711270050570507,0.09477267642798881,5.037400930900761,-11.964343376715265,-5.914807298006229
146.83470153808594,1.391693115234375,-8.894777624506116,28.008198017312036,-6.763411946468763,-12.97587921352281,8.55920783801911,-8.2820033837402,29.05063783682622,-12.292017019375468,33.59308387652928,-17.756712027407897,-0.6556428916272754,0.14409262650060986,9.469720895965677,-4.236754535938342,23.224573842812926,-12.776127249013838,7.273163048107072,-21.995080728401792,11.359779844195325,23.676446938177143,-10.42542707398431,5.528634857672108,10.454992589810505,1.6584008772207621,-7.148215498931609,-4.115122316925975,9.735973432540185,2.7838117833344835,-41.77312789002228,11.051885575554442,40.38798835060707,-35.855148516092235,6.751662445179875,-46.490164586410174,17.400846906882144,-77.21387660373142,21.465276650833744,27.229234189212928,1.409366587052705,9.346800372952517,-50.71807249173812,75.58823407075346,-16.195658820714613,-2.702016472667527,-32.782515694998,104.19532072994654,-111.5969749049028,51.2640296572847,103.73594723404713,-105.16572403725286,-33.16686057452412,54.28498828370263,-146.4409857924043,-96.51289926568975,103.0215673411907,-54.907219679574176,-254.85149575686276,318.14801275387873,-214.54650181042146,73.22848076811928,31.025662405994055,-57.65647793598414,11.952246254164368,125.32276052680274,-272.3086186274695,413.9788173838356,-381.0687058964138,258.87242083246815,-42.02298678352666,7.4990834159136135,-113.02986980782165,-185.3409665862395,122.26481405678771,105.1850533176542,-200.5488539415696,-30.790182888740453,-8.011856482970643,68.99147249201259,-25.92578180302057,196.0701113518677,-161.18509640063675,29.358612167833833,-114.6127437437295,0.8671222078844725,1.515795384402976,99.46724695808211,-165.7784888652446,336.3120703136254,82.26633810858817,-104.1303922060736,380.51391076852696,-276.16425599028076,-5.7936438545042215,79.45887361913697,77.77624041870267,-158.2873647190019,79.46371460853145,-63.40508490670176,-297.50403383931814,304.70184544095025
148.2263946533203,0.7403106689453125,322.47479003947404,44.27300887983916,-74.56855630777804,84.85254087350282,77.6348172224924,-102.12761912297425,-189.84035996459596,154.01854091569152,21.80869450219309,44.7623732228066,56.65284508500689,4.781308339212572,2.0189870197459108,-37.41854648971744,30.42478694892673,98.65881269064747,-2.0446213427758417,-12.375766804525565,-9.315038824968653,70.59839745835109,-23.440775147464045,4.866873379062879,48.80272454629914,18.706863605215087,-48.97854166908084,91.27991881887479,61.12135874628568,-25.378874497867436,-19.657575845375383,-65.4295735865332,-26.509968962478965,-71.69194497772672,202.38197031570616,-111.61238590877485,19.723957313271537,-44.496385876287,93.90715829562511,65.73964383084277,185.16560802963664,54.607307911354,-195.36064838644745,45.18378500427613,25.028060052274597,2.98698190237164,14.158658439013307,-84.14831020276665,-156.42706714093458,-187.80417398445013,-24.71800960542929,-18.127389481215488,9.034053773576403,-27.0653413242513,6.9811101556362445,7.085113623136316,-30.526823166511708,-3.68980901602124,-18.065147416194563,-25.332110515380595,27.21999678098901,-4.621167405962021,-4.566428142543754,19.0449931887521,22.538748099810068,1.2302275535207254,-26.26572723934112,-1.5646320950933514,2.908913581277977,-16.044354567814917,18.514608811838517,-5.603880219907612,-20.993898008601132,30.471316199339565,-28.560852545960607,0.3529760354745653,20.0944311843038,21.282535342453542,-26.291058530305055,0.641782069640519,-14.955229528407026,6.678236397557803,-4.472855471729817,-6.390547009264797,20.228348415964767,-8.140171464614525,3.3173595881208997,7.180300034892412,-7.7646296684770855,-4.275811475409669,12.148095042538337,-2.9700155269471455,0.17223912549765008,2.3096104223880083,-12.983488281614223,11.496532630379843,37.14555025044854,23.123882111838206,9.127337858341027,25.704687749478154,-6.020953697715915,-9.91945211062631
148.96670532226562,1.2914886474609375,-8.169463612270153,17.368573278020946,-2.977160189822329,-2.9596547856228526,9.104556433983877,5.096674560509714,16.240544476858908,-0.5976120381240788,-9.63605932500242,-2.6329750852386344,11.926615459790149,-35.186419823093736,38.77918608017717,-53.31427885624367,13.861801061807649,10.556983234101992,9.475557342163516,-38.9051271562296,-20.90081293898403,48.634160448042465,10.724929888732719,-11.263120820417988,24.971715983304772,-19.08994897407208,51.54035631443802,-40.53801041300583,38.959975260662,-37.506643696169675,-40.062859662400804,121.11964030082326,-161.60925628547068,184.14867533693462,-45.72167126306536,-60.6076598957374,102.49895570257016,-91.76270930836365,61.82251034167185,-104.93393950667723,87.57669552225812,16.1512311599334,-14.195697998034845,90.90693221727753,-138.31231340772067,157.0555361683997,-200.56774802929715,56.25175011260626,-0.3889611446255117,-93.57289498118715,-59.59476893350674,58.67726181529709,-83.18785438137488,105.91552406807664,-38.75367185549937,59.24147591172508,111.0042471448534,-107.68751091080541,-38.20767099694679,86.73493957837294,57.73624746809912,-37.04931268035449,66.0695076074264,-69.76844809742207,95.0476089884715,-99.01706463600789,23.64479383994113,26.35849375804004,-81.47735006984634,186.1829125374065,-3.35197453037659,60.23584645450106,-142.42225868223667,154.87720054181142,-142.34471680258414,219.60978057554547,-293.60192213454746,5.581706507935195,-92.24485050547011,-92.16293157138306,30.37723878531223,62.39224321841081,93.3729359307108,-36.86702772691244,462.0368351884866,-400.40474698230133,121.94955225686674,-240.43372954422938,375.702915061508,-257.6193595644892,160.84659504803287,34.67104874331613,32.050809579741205,-119.59195472376638,198.99166615543575,-209.21590396726,127.48120853004498,73.79573319374144,52.595699876668114,-113.93244407465836,92.03385518839531,-17.770330887948063
