start,duration,0,1,2,3,4,5,6,7,8,9,10,11,12,13,14,15,16,17,18,19,20,21,22,23,24,25,26,27,28,29,30,31,32,33,34,35,36,37,38,39,40,41,42,43,44,45,46,47,48,49,50,51,52,53,54,55,56,57,58,59,60,61,62,63,64,65,66,67,68,69,70,71,72,73,74,75,76,77,78,79,80,81,82,83,84,85,86,87,88,89,90,91,92,93,94,95,96,97,98,99
53.65190124511719,1.2831993103027344,-57.802159108233056,-30.848321197199464,19.254260679665965,5.732272029323774,32.643321378227895,-26.661182221507044,-3.7199921405980056,-41.29543924031986,19.02880845620453,-44.66097526458978,-40.25332084732529,18.98483712554078,-26.17108412154851,-33.392142043376175,21.237323510886107,12.545525948546944,-9.128522292869784,-13.796912612879499,24.641885129705226,-9.320545368327402,-1.79481166162347,-31.139259145140414,11.892868397467762,27.102557645681784,-98.49271069006713,17.614077158056574,1.871535762243436,27.98192901678958,30.467516035382246,28.270525140499807,11.614261199579552,-29.25193575911584,-14.31666743567322,41.14576844827515,36.08383424905861,-9.47778289078224,-0.8234023145073319,18.433353741759603,-16.812499722288383,-0.5893655194514631,-6.569316454845605,-9.763443220806494,20.368914871953557,28.371328597979364,-14.834181259620816,-69.24365069131349,18.03153390824526,45.82931623184491,-9.420048683802447,38.337671443313866,-12.321372969019908,108.91113153881011,36.3000037006644,-36.81034600505774,-17.978927439235402,16.322321963878416,1.6478606121744135,4.386817365759008,7.492697370176124,9.281871362711435,61.247241584663286,6.861154448145847,-10.964404217024157,-5.527080711699671,-6.255497206617463,9.148831490387886,-14.671827286197463,23.7041304086205,-17.489357101824666,-2.2879140145346346,-22.662872194424583,-17.977826080234184,-27.433399579794102,-4.999440346766195,14.679690049640975,40.52810479423364,-19.931367023500073,14.405539448014455,39.925168725189955,18.000093890645637,29.541312482004724,17.395509119548876,-38.02891325671801,3.4912168283744514,19.015287273891317,3.6591261827732646,14.143586516153272,21.269586322317103,13.389104901175681,-32.16129668794935,-8.43189447478974,-1.4396869682124063,-4.374212129143093,-3.5651567509585913,17.836538575024097,-27.195700661570353,4.786746823513185,-22.841996090804933,2.741542336210813,43.98852611795636
54.93510055541992,1.2332992553710938,18.791693185445524,26.57448159660025,3.8112470910462193,6.269556048035241,-2.629713870726288,-53.80069866912024,-6.122736319543533,24.400414953732273,-21.255439323500553,31.262873014404786,45.74509047088087,44.28793185728681,21.00200742985654,-21.288060677745293,40.649208684532795,-17.4844555913812,38.40436905666478,-1.5754615277665245,28.638310794369968,-25.82902468933935,4.962786329684419,32.86487726782414,-91.54907619892809,-0.32443668597974096,-58.005327601050226,-0.8868003746947599,-18.70665219433354,30.32721827151794,37.11959144228443,-27.14326174747507,21.379572412909997,20.480537553087228,41.57096182210261,6.044272621239747,35.64421080126523,-26.580437552454633,13.037804096229543,-12.363137598260431,37.366746691244586,-58.190413711537275,-58.993641851876816,1.831812672279801,9.18191417781009,27.36113518577842,-64.95137369487405,-17.67522821964791,-49.26015221999953,-24.542027610538597,-18.510055242231065,-2.4895439963103243,50.56282903051195,-23.372037110544436,-17.250704648234432,32.27668415276775,24.80587996373243,22.18252233117179,-6.605964161438457,-20.46165424604392,16.88423935392227,18.844365222122622,-6.357528900554385,-6.858604875683875,0.5380856684010809,22.13304278586132,12.890833854346363,-0.143640814920736,21.07238009394804,28.079120824917496,14.881467685843695,-28.09198605937208,16.048088314645156,-14.476038462064285,1.2107050263774184,-1.2209353781945929,6.864764535154108,30.409637876471525,-39.336373332287494,-21.333747741737213,38.291799575523605,7.122418814080454,22.91102945288489,33.5565047084623,-10.973537111749842,15.300848797811678,-25.369765162746084,-35.10176569238365,-5.119692789130961,-11.685853908202699,37.57097409427255,-26.498399245122556,-1.3648763049413226,7.162785979624815,11.094768496313634,-17.623840822004677,7.945793643623972,20.872095421242012,-1.5270095798763572,-26.15627114587959,35.51115769758853,30.280512053194954
56.168399810791016,1.2625999450683594,23.10495959505559,37.252062246114704,11.703006638300437,13.269732696189994,-35.87497055110697,19.009904765136735,-11.477907201355466,-20.44024202769473,-56.331392189585415,-45.37706563290209,-13.970158564669738,-26.939153201987647,-7.156764102510376,10.034283550384437,28.550769824285194,-46.879048603616546,46.41897681652718,33.59522216326414,36.74499702111426,60.25175493891322,19.00194546752033,-18.109786908526004,-37.08706085145014,-11.968052831757564,24.520140621097337,58.16319432602393,15.104191991747982,-19.43848710621163,7.046059443597395,-14.926456727752878,12.749451594482458,78.3398031085517,10.338598077232774,-50.51929889919127,49.940055926831135,28.930461206587452,-56.120078330212706,-8.60351294454502,6.068372644092873,-21.434430142482764,-45.88631499632349,-31.723927208044653,-44.18503907478981,-16.11004384836459,-8.82785244818772,52.863719463693386,42.29483218670517,-9.110063907881852,54.52924786077074,-18.195003789789517,53.665335752752355,0.7840922753545954,-34.66057549444459,9.375346740520227,49.610670310855795,-4.9291348776121,-37.50650186239265,-31.89278701353426,10.233579942166665,-22.179062175969197,22.247396959108933,-33.83020752559658,-31.299360093428056,-26.263534297330658,3.063077917077589,-16.641177685870645,13.908568613252271,-27.886716881482727,9.97579880488728,48.55303961457529,-0.39869386051625283,-48.6763569603346,3.1022617960124848,-46.24314893333096,8.429492970075643,-0.8182153165046234,-11.515017536407143,28.327587839154383,23.019078156637093,-14.491320388452587,9.237547695293543,-16.08586833339278,10.709277778235679,-18.471440336250797,30.92108332555083,3.9091917957545306,13.357560559801598,29.66501226406427,-8.276997973315435,20.01949932112973,5.417528977446871,-10.050756449088274,-37.67537789046022,5.43605077675786,-0.9119573697143828,-3.572828075980258,-27.524724869446537,-3.1874765594553107,10.446300731638196,-2.6772160045822098
57.430999755859375,1.1930999755859375,59.188679998195326,42.57226732923141,34.279617178823116,-0.841028454143359,-14.246952194700272,-9.415662775224353,60.2919464778246,-52.362114203174215,18.476954704468895,38.39394665380446,16.63852041277569,-11.64542562662626,6.812453455681386,17.406811248008413,40.173040846057454,-7.295616792009559,22.30101460948263,-18.089747914357414,-4.426377024382044,17.2691696343583,5.87646590266811,-67.16501472851517,24.72923784230973,7.182030431453912,-38.26957912115284,41.065566750908474,-3.7893475397460676,8.650882862168693,25.05995943428469,-5.983236864900619,12.214476578780003,-0.17856194688686222,36.918496784112534,79.17638186846251,17.31440923078748,15.854568223102255,-17.38784978505044,55.00314715780562,-9.40908354788229,88.4329405742433,25.443011614762582,-54.489685366419266,-5.692922003929731,21.77739634429325,-43.59883889939445,-13.416644577915065,27.339486043121376,-35.54337387598332,-66.72630445946753,-20.36647907043641,-33.362450676296575,51.49925559896309,-15.866889339205848,1.5183177240056072,28.89911443937126,9.463986597651239,-6.39654408816458,-36.27597598505733,-33.34696373003164,-29.67861955768524,3.14504919788659,15.655974397533443,10.76073102916658,-12.953026818651104,17.637149425327475,-15.756540241108468,1.634935893557568,-2.817488226325146,-32.55445396284486,-1.0004496247909735,3.8658796725038513,-2.754002081774233,16.97264569338283,-4.831226304486922,-32.15528690799161,30.099145611761337,-1.7565428014346756,0.06707150143465945,-5.57087448196877,-1.53777771028415,-16.407007832687032,17.27679513564062,-15.664588871071533,5.395981007769659,0.06549983327586695,16.844232583344706,17.50775189079943,3.5666811819862154,8.190832488510587,35.394422725634016,10.586156915743228,-37.60292200140102,-1.157685160554844,-7.135676582356524,-3.461844368846713,-9.81076360605563,-16.83028698137292,-18.132377500910028,-14.54633193473191,4.8286673491755
58.62409973144531,1.2834014892578125,-1.7333648314191965,-7.35695416698596,-5.92649901172333,13.133040080374865,-12.21361008271203,-109.72820272133994,97.32595191307169,-26.886220968436838,32.08895367824215,5.14329298709977,28.095840836958693,-3.6235687571145907,27.97273409247946,0.1663943521062592,50.75396713983413,5.321965871138401,-9.485754475826333,-29.61731025692226,16.477141224315353,-8.827217011471866,14.316616347812172,-11.218533905266135,47.16842417181288,-8.000147743893162,60.05131154939787,13.415594924078544,-47.71137286853658,-8.827597455239758,14.91107548673424,6.877862628597327,17.12054213772303,54.54006950841884,-22.847602958186833,13.868679159965575,15.251725941439545,7.721519614150286,19.363122469420368,-5.992746980645574,-60.2184501607809,40.63569699722069,-51.84249797157818,-13.25068251103733,8.657256813397751,-39.132682020657626,42.28676462755441,62.28263944709389,-34.86093262911035,-17.1706273275788,21.33587945224761,-69.62420988678922,2.428735374040845,22.777009415260494,-23.109801594746656,3.172405514928286,-15.128285677354938,-29.759037962451554,-19.389859190369954,40.90540006760032,27.741366133048125,-20.893700296432158,-18.850999193843148,-18.899180889562977,14.157895217731252,-17.921899666778327,0.2881783570059473,-8.14152559067503,-3.917905611177029,23.020742567152745,-21.04986481320038,15.060098194164617,-25.45222153019317,2.45061943118901,15.671029201726881,23.58245513202192,18.672814736643467,-1.5785048355378049,13.333198624524679,-5.520879727060551,3.981057363282307,22.712898825096683,-11.053028229726102,-2.472542146467134,21.0762108654887,-2.3861688668403547,-1.9703930856099303,-3.7061490003480104,-31.938938256586713,-40.694261675760785,-20.06988965605565,20.329360908420373,-17.027743951705908,-4.566645181499139,1.5866160078858798,-12.4845143426007,-4.435582502653629,13.000728034374553,-14.946312555647737,-0.5832103388398893,13.621013619566632,20.63159801323793
59.907501220703125,1.4030990600585938,-49.205068021085914,22.65385175038983,15.787858955406058,-20.781315543023915,6.453939539019437,-7.0994052816796085,-15.093810775490144,29.021550639175906,-39.186542324413075,-22.976649194453767,4.590978723093824,45.22049454652388,-4.54117439936978,-43.70370840028628,23.597967068569627,30.06699301205021,9.292171616016292,-3.156745833680567,-0.25941502110017023,30.49104705444713,32.07968043593209,-19.18180307786427,-38.574410034028965,-26.437741801556648,-44.00119045380697,-5.570561041213956,-19.157861680485528,-40.21680866495463,-91.12783370887178,24.09046863177784,-5.774526029315388,-21.44599153133853,20.21871521080017,20.164267030380824,12.584374821134844,-0.724505172918029,5.591954027946379,-26.572889239338522,-40.6105287658394,-62.23128637438529,-2.866640799535851,55.36906439212542,46.6050452706753,-52.26187885219217,-6.139031628022285,-64.60108753996329,-26.027156934181782,-8.084977535126626,34.99361081935555,-26.57412554040655,-38.76976200030365,11.791926356498404,12.294800095750796,-18.142527258661953,11.51411092769287,15.210724517478738,-11.326433781340464,23.433492710327357,23.756743449667873,11.75057956650274,10.761642062108052,-12.542315721993733,-3.67407945987625,27.582995893907736,-24.098914333101476,27.33964618017307,22.270675060145933,-22.105754091996676,-2.7622153013128483,7.3275714508166985,-1.579928559326003,-7.636051702108844,-7.174644490028548,7.368997326800542,4.671142150885885,3.478748674189698,-20.782931423646477,36.46281712467256,10.007006993135391,-7.302609060599778,9.171975198714275,-4.606586703447032,1.871418512823832,26.013472847048984,-1.806851936171224,31.044216880351286,-4.70714452124708,42.60266722185249,-23.427804437180342,-25.34443668697292,-33.88008488772053,12.047265918494741,17.248060327080115,0.8986249673214133,-2.4143524037352577,2.690377134838349,-17.934020932969467,0.020378273208192077,21.263494137184058,-37.17239697044958
61.31060028076172,1.484100341796875,33.42969622974566,3.5431246989334486,-3.887486932391944,-31.04602902020474,20.36083852994988,46.69086793671191,8.614129042451427,-25.69695527842194,-75.85086185842374,-31.795985236605937,27.91206794529289,-37.79251284288658,-14.19303768663336,-7.4658826212212155,-30.05174778019865,-19.14811427247708,23.73857524461272,3.932887989774164,-22.89612477811419,17.257020946897942,66.71668711069798,-51.984248558560665,-38.03196272447956,-19.4530432969434,-0.2590871608531744,-30.655306864736232,38.240583223506086,12.819989362108045,53.84226439349257,26.365865393822837,33.7069176750757,-15.438411240137786,22.086396128619917,-4.530090375438886,13.59134207190409,22.916457380684406,52.04465573725922,2.0672168526335355,10.932852154401623,-26.010897101324137,-1.711866996394356,2.411268268365504,9.233831728747152,20.439359712776337,-7.282995865802754,-26.175842066916825,-64.57269835633944,-14.032459038660367,-7.619074971576389,20.994274670350038,-32.519138272402785,52.64273428363201,12.803458167973155,-11.875371032686775,-31.481849443052006,-1.4883578622001665,6.280441010486587,-39.8177655994634,11.742817836124562,-24.46008732070136,23.466344333626456,-6.909538730235617,19.617817143224535,2.321155417243918,-18.831360340464517,4.792133543841453,36.98857691365543,-19.163875705713146,0.6421180420251389,25.916373192258565,-17.97604919033736,20.560247024429845,12.900392088667909,18.042287183307046,36.660776717387236,-40.86347811807518,-26.16172506792086,-0.054965676885274206,42.67351520906712,-17.13549474012607,-34.777934075665456,47.60748155816956,7.714581493870761,19.85443592522279,31.162786168790543,-0.8373843938956866,11.46363610473215,17.456950728769794,8.385634440789621,18.338877564257707,-40.44652956772613,-5.4259205188133635,-20.212007741421175,-20.587289368051255,-13.489943528216525,9.262029599191417,17.4343729693245,-19.18591208764513,-0.33928544701057817,-7.348950931716889
70.26290130615234,1.3130950927734375,77.44884266788065,52.36741947579858,5.247216379905195,-23.297736418680167,-16.74095917601282,3.5285704230209767,-3.0270804097544257,-12.144453529872457,-9.645829808056952,48.16484884217465,49.062743829292465,-20.706764525327625,-8.138086612745008,25.0600114400446,-22.06696281894382,-8.660117720330817,24.538661352954712,15.639724253670446,33.973989621052056,38.39612310463031,-3.3757871102319505,16.12966696890424,23.883052556123726,-10.446981083241019,-78.12852087721946,12.547994375165104,31.421438327373657,-35.350398021214495,6.838181437838212,47.35583647585603,24.550073082913546,-2.420322134043843,-20.982922203298028,5.084079749973974,-6.1388511201199405,-10.19349461313159,17.457878217509744,-36.091611125346695,42.69716502283732,-8.033249889464571,41.59319815927036,-4.020891134051759,-65.9624730137717,45.3696556068028,-16.95428575854217,22.082731899730792,-27.944137455252616,10.062172964736952,9.210972048090024,-81.7359853689016,-21.510046213344424,-71.95013845996979,-17.214784292006698,-24.56823059603676,24.970772657128215,13.968647371400975,-34.34250737104423,-15.155936529522979,8.41400959011354,11.44409216463473,13.368021331899119,-1.4580580403613257,10.260639335236217,-30.840432062347844,-34.148602319231045,6.47257455271108,-24.111061795386533,-37.525643612284306,-22.219603333973666,-3.4783449873761043,-13.321800909953847,26.098825595545442,-15.516749664388358,34.54667492846219,17.50137441829741,24.85516092285458,12.914674030948847,15.999242203838214,-20.888653421494173,-12.679530009097313,-4.4265673907693746,-0.22773366800557682,-14.460213833136226,15.39270121486095,13.671413529875327,25.645627608250255,-33.13647007326308,-5.04605909673569,-2.0170322085958556,-29.50035257028337,-2.450375324906833,-27.46367107749273,29.55846757279849,28.48350270050852,22.242794847624285,-13.05423258468636,0.41591938787013305,41.837008573114595,10.853309315742273,28.37791626593008
71.57599639892578,1.2632064819335938,-29.09490402754574,20.95035767186949,-26.600342140598357,1.008121489785875,33.7548827973865,-59.95362437881633,11.246365812509573,1.3248744486839588,107.84750839959325,-3.9385139555475064,31.02241711571568,17.45839346304915,-32.57476448831941,-26.44963656924627,-6.166807170997269,-30.432684596402225,4.863742848943319,-7.420865386373574,36.57073727787133,-29.159968230861963,-4.1218614037805565,23.25664507478649,-17.514243772755275,-13.406086752000233,0.3446326528687651,7.238439503435121,29.933111826329224,1.149474865000542,30.569926956792017,34.704650120808495,-22.24055527785411,2.324745384607459,10.652233394552484,-12.593518134933909,6.737598050817608,2.452878378307574,4.352934875481496,16.64576052768342,16.692718798272793,-15.542605424930894,-27.986523735134238,-22.06342145832639,26.87722262963269,21.971424788442235,-11.386774838849474,7.425128453630993,-7.892654386100041,-20.353259321996052,2.529288474390699,32.7560376747255,3.228647060060359,3.283861020707942,10.57658478516439,59.97369655282438,-22.68005150314258,55.97471303814818,2.5429377604117214,20.653981766839195,13.227844894479073,42.77545660255935,-30.286932119112194,1.2373745432071388,-20.608117252416314,-32.6307155837585,-2.0734966309408893,6.138114870996273,-32.31642733281203,-29.10944277920936,-2.1219848307941866,-0.9274197364678276,24.08640956626632,15.16819533286587,33.291413603743614,-42.3394502678442,-15.504293228521135,34.05903162729223,24.448797833357172,48.06930292043392,-7.375962781638325,39.020052196229784,20.919487315979662,-11.421211581260941,-24.025587368480796,-18.41264615468777,27.39982379843376,-0.2227519503121579,37.56033968348021,-33.114555291781414,-23.043327376963546,17.662857777054498,-4.3582650763809525,13.98368708592979,-20.594612548855267,2.604012177140369,-15.904035441213395,32.85353455006237,1.7988335707294318,30.658546215028537,9.197218188858141,25.144208576686843
72.83920288085938,1.2332000732421875,-4.521868981358405,-2.8314736365327846,42.218176021870526,3.2832707076217584,42.50581755824113,-12.840358069282722,-1.6425329797841282,-12.057412651994792,36.537460399356156,9.366849278224738,-29.783249302605014,11.270648901550945,9.851935668960342,-10.884806140379261,-15.297270026343455,-26.774169048755,30.70214514787442,-5.011275481200012,39.77068946295345,-10.807566888535352,-9.155945446483924,34.21116412523941,-41.0350206437207,-10.337389766977651,-21.86996550171304,-5.067561920880131,13.203032247176207,-13.655579362333679,1.2384004417457448,14.087328546408875,-11.454183621825944,8.97920824554356,15.344666769366713,-67.1963369009758,-30.034847869773174,7.998749429277774,-19.17611348642263,-1.7772166909658935,40.08253284149068,40.73276607439889,34.531482320844546,3.179846113807873,44.30615261747925,-16.587621465065606,-9.484717280991585,-56.756463232718275,37.76957265428124,30.16967784800456,-40.40024872856216,-58.33911132843705,-64.57504841673926,0.4153298286468208,4.572946130464906,45.959069198154864,-25.37647763008843,20.830065361321076,10.98912167385497,35.96413231823434,-64.39958515506768,-11.958752778550847,-8.76349505391869,27.10020448760362,-22.365572399811857,-1.7315073522728852,24.578092877407837,25.097306078836105,-2.2610020912025703,8.275064075172082,20.394830289156367,45.87599080501974,-7.759229339987613,-17.200668656518918,17.091824279674622,-13.66467446226779,-12.02657501571433,30.262945470102018,-18.542277955927645,38.213555239447444,-5.007808816713354,-16.218457035070962,8.978752646311577,-20.89383558831124,6.7474128911356095,0.8581794878034721,-30.677833214668475,4.910161376318525,-12.558700195150308,-0.41725082561036597,17.692055274061115,48.059208650188545,27.73201507591912,17.368092122248058,-8.618074999457384,-19.59352622914404,0.9129711159326865,35.42678857809547,34.055448458223964,48.45448382538399,4.494157981163522,15.800934347526802
74.07240295410156,1.2729949951171875,34.79719073259572,-11.582059293998324,-14.333102137067122,-3.816388950969597,-53.377836567650874,-45.14208516055884,-99.47334256473829,-39.497219839968714,19.881243741809204,4.073798268839555,-3.6137079439917343,-13.191800445645242,1.3386460474924,-24.058700600913333,-19.78188226687379,56.59407303416468,21.476048227482522,-10.242757832712554,53.21336528877113,-19.112867962532228,-67.15743247825445,-56.240814417753256,19.083870594261064,2.681911023014859,-48.12873373907508,2.1342776385051323,-70.30981463232361,31.528205619570365,4.42950296233917,-12.865170701529278,-22.978605333965383,-53.16897650717482,-57.66902743779731,-21.917427240747706,76.6858743288393,-62.02045587670587,13.603905218426661,12.350412328049083,-12.02127381782921,-34.41767749759501,-32.4098730125533,45.349939913027214,66.72908086959717,-35.81723189213827,19.71487086788683,25.667089200452516,6.0820375231204835,-12.2142916894971,18.663396762689803,-72.89124343078181,60.48548075425648,44.95436554670238,1.5554210019149455,82.47379409179995,-37.71193080695123,-4.371694890516306,7.102679454266278,43.482557642362316,-6.739776783110173,27.78458933457386,-42.55631117873958,37.38621703560497,16.114718682902915,7.198822878380803,11.428748491319357,3.9521212799468888,-30.75383318698076,-31.978160768186136,5.236365106110525,-26.76467308724543,-36.89015191980264,-8.271754732335717,-15.291670684104837,7.8809537965738485,-14.125652669510728,-29.172298690162762,0.7078815124813964,23.031524705743564,-8.356993291596156,-0.902213961049088,-35.76539427970243,3.4052001254512554,-15.571833146927396,4.360025036484153,-31.4479822971333,-24.377292546102666,-15.603796331887136,13.968641997996505,-22.548754909813894,-12.72917938099059,-10.120390911106623,31.868520692860706,15.80954697195023,22.00850815589988,-24.23880149972658,-27.46941527065559,-4.204319285092622,-14.624997828814179,-13.417624191391091,-53.57660903569227
75.34539794921875,1.2128982543945312,-76.8565322726477,-37.179885855731506,16.70546372127972,-9.399327244720242,1.374246413138561,-8.798767707215863,-24.559607504159786,8.666911385432641,62.578217748248434,3.8729021162009936,16.04179236082267,-14.716361766597721,37.118134928118835,32.30550810066651,29.576091018869537,26.581182226261355,14.912656224832899,3.9321557175518578,2.3294223848200524,-4.179041509660534,12.969369308190224,9.524629023279326,-7.57060424086558,34.662926834740134,-110.52991490135128,68.54260444216692,5.482458940021307,-36.66147022042185,-9.150779111466107,-23.536696289159707,41.135101141705164,-17.357786838392542,-17.838799890968556,55.34852471870454,-33.39856794010893,-7.723804135398756,-13.667250857090218,6.130208565758231,10.679791534123396,11.93309991549023,57.508153571147375,-11.013362252744779,-0.5435824891984069,47.43045841518231,-6.874206549989111,-73.35532439436955,-80.31859547645811,12.77833480348191,2.8522560601977744,28.21105564632277,-51.776395304836434,9.109983931479142,10.100484981617903,21.821891573692323,-8.572217811292564,78.1284066339591,23.464465750310165,18.4699395680742,11.596834355392645,-7.358459424878266,-20.19805821699277,-28.469531097997326,31.393719212827683,3.504326667501936,19.735401994198106,18.141315472741944,-5.5986392773856295,12.454030977227553,-17.126405096572345,-35.966120442036306,-7.8354166058723145,0.48292859358977314,28.729374860250488,7.392151917026688,-20.491568995442222,20.92666188348017,24.447607620304176,14.916278261244734,28.4885829065406,-44.38231592311312,1.7121584144050956,33.95223503461356,29.60865205538276,2.4621775438742404,-15.96872039584494,27.765732401955464,7.731921768258323,0.8912436101092284,28.145065472486092,-25.814289722851786,11.199262292242256,-26.24369846541395,3.581572758595554,-2.125680275281745,29.163646412217098,8.78337441664631,20.147150278520115,-15.466986315163782,-2.7745709953103326,52.43269872906206
76.55829620361328,1.273101806640625,23.68735476244018,-16.9362761339875,-19.14939270776214,19.958226643019078,32.68840303788926,-54.39602441875325,-36.79207275280792,21.301146127389185,85.98208819098971,15.2541925272921,27.047260691779734,-1.501462619739204,-0.363789894633765,-31.2746990134966,-15.867993072645469,-39.13982336145355,5.072148728810397,30.356882889767277,-36.062262895868955,15.059852159090381,7.927534643360495,6.364411471280276,24.73568513382993,-32.8049065011703,60.40622310616817,-32.050570413044646,7.632617018492606,16.186439294872383,11.002244297416812,-9.268228886760804,7.089135048531974,4.666776754366862,-36.52643565556474,16.017225141238683,26.438304720923103,60.76781488461625,-0.7330278041196729,-1.078171150503909,-16.192653373453183,-1.695303970541369,-44.97275021803573,-13.192050319138303,21.470295158649495,-43.2760685419333,23.25210426941924,40.8381564223355,-21.874250181531664,43.321865632836285,16.882760140221883,2.9094256290625324,-34.08243967781779,29.071320720270336,-23.373317521594686,-46.18863701551488,-0.8881294984955588,62.28966061144904,-4.044118496610831,7.823128469831115,-0.42713557132289304,10.853181019266323,2.698311436042294,18.92918793190791,33.78759545163769,-12.950657100830526,-16.91407791572358,-5.249126940835289,-17.127954807390427,-13.22929645040179,-49.67093862196199,20.879485207298373,-19.47283835497369,-5.446308902870079,22.025959164060016,13.606230873587013,4.209456555499827,24.641060230794846,-36.43268384096362,-4.704705108107843,-13.428057910449585,-7.461114642743523,-6.370577971958344,9.203379449113681,-12.20806264076763,-31.788550205061384,-31.36146951541912,-33.60432346582361,9.088541457991582,-38.59745861112486,-14.991529459657793,17.062681802374925,-20.064185750386912,23.715609869707624,36.982138709048634,-6.428629956679178,-12.374517905559351,-15.094767137113475,30.264196671585474,-36.68529677732704,24.502232252375393,8.717879127021305
77.8313980102539,1.3535003662109375,58.61982324068122,-20.990313022241015,-25.598874673156338,31.757634760422505,36.14556425289134,25.995546058430623,-33.968773237211934,-72.88594004349619,8.220858941854914,-41.59401853258208,39.86457847408355,-41.8749731094499,-19.667483706764443,-6.95003442692856,52.12719287590243,-12.895698110441192,-35.641582360619516,9.153859611369523,-55.78577824565383,-21.503528577193606,50.54522975413221,-24.65124115216064,54.7076249957241,9.18345320043852,55.75506125650608,6.25961993587698,11.21333938093626,79.17547140656966,-39.4521249450865,-14.705726113177658,16.63373481215061,-66.1932727205506,-0.9866585775732125,14.839456338012745,37.02975207013015,-5.830725277580623,-8.28814913567511,-57.04423601343062,-8.392067982505427,46.17342317336754,41.32176222397147,-5.386546288130489,10.591720430212579,10.28914097840901,-18.07755538080745,-48.79098393452632,-52.63767845475597,-26.897898996542118,33.763717326023205,-9.850156980283046,-11.43023948290914,-17.962875517739104,51.564154664621675,-2.021002349049823,26.62260552209793,-49.853667186622815,21.21843804378295,12.103892409130253,-11.515941659327687,-3.6983615328650146,21.465020486196625,38.72923054753019,-11.38294127891016,-15.920045993121104,-20.128115935720544,11.222347532695359,20.759003776110116,-20.150027478035593,-24.931245760878653,-9.616180448409342,-40.61869680243113,-14.400305653286571,-3.126651321141118,-22.902221322897418,-17.64792402920335,-21.26292969168471,-4.045429530064354,-10.562759111929509,19.878625542256394,-11.27307188748938,-3.826200602505623,-29.4945338467318,-37.18248123328122,-6.802516987969732,7.597490915037414,12.958229543721538,7.750772823282368,-4.8290770870407655,8.185192432094695,-27.519433056710646,-24.861340438366312,-26.302959001925593,-26.518304640226223,10.67289742616677,-14.18239255791622,31.828950145596856,-11.396832502368433,-6.172949403774176,-29.028297754668664,-36.6925424642268
