start,duration,0,1,2,3,4,5,6,7,8,9,10,11,12,13,14,15,16,17,18,19,20,21,22,23,24,25,26,27,28,29,30,31,32,33,34,35,36,37,38,39,40,41,42,43,44,45,46,47,48,49,50,51,52,53,54,55,56,57,58,59,60,61,62,63,64,65,66,67,68,69,70,71,72,73,74,75,76,77,78,79,80,81,82,83,84,85,86,87,88,89,90,91,92,93,94,95,96,97,98,99
27.891250610351562,1.130899429321289,0.08722905928871089,-0.16184658113943637,0.09471160934135119,0.28161792346386383,0.02331559320911982,-0.35711815722746854,-0.1371308732247972,0.3495352660626144,-0.09461967898897546,-0.752513212674497,0.27807166368261826,0.12228684412871829,-0.29406941497742906,0.5666777183960555,-0.39451564167181885,-0.2838621630023622,-0.08769016768141279,-0.13656690003446342,-0.5324922916978796,-0.31147282347393984,0.34472282723860204,-0.6682112969132091,-0.3283993858981129,-0.24501877797173682,0.2847970323586626,0.3726071308732931,-0.6125486768666215,-0.5175234272240344,-0.6050921559559884,0.4334554181860568,-0.06027167881041383,0.6056814945981919,0.3214269309793956,-0.2963886135629832,-0.33240185335413364,-0.1036125730238576,0.338488709228828,0.2102354156612733,0.39706703868732146,0.0745908158159235,-0.15789165633470348,-0.3216826011070307,-0.20196057755829394,-0.38392657027270033,-0.21117729052778447,-0.060793741655726784,-0.19958695162286916,0.11298265419511636,0.09129899241649622,0.7964518429835777,0.50405624260132,-0.8255903564623157,-0.6434590455924116,0.2517512067880034,-0.6546860921945661,-0.39158884176697856,0.11299782495947924,-0.6390742609309266,-0.9520985685038407,-0.3396360520242663,0.2507256553241664,-0.8846336115194298,-0.21003081984800387,0.7519399568488319,0.8264676334165628,-0.8032878704833348,0.0037609873710832027,0.4826295510010703,-0.4073716329424867,-0.8549132560034249,0.3156923200978667,0.3966175021184176,0.5640148749017894,0.4571205526347285,0.816425500294532,-0.15344588035231738,0.2063305510040325,-0.32314578588430176,0.27813114093445845,0.1856974203139106,-0.5268785025198139,-0.08047377855945778,-0.010589225780538282,0.08161120044711355,-0.34095830967109486,0.9827212929775222,0.6517723148652701,-0.5766486719856126,-0.4193528342668242,0.08282463289208027,-0.5578297202630526,-0.16387033782468072,0.15506615848562405,-0.11442462089397895,0.24440651653572065,0.03329421275337373,-0.26931508542767335,-0.08709520350431339,-0.1482161856075141,-0.49875289980270604
29.02215003967285,1.170999526977539,-0.4816299090237039,-0.1761420366282143,0.16959936827905825,0.21557701764692389,0.07544459428343366,0.1556963610514714,0.1136135709931954,-0.28038003856216376,0.2012935451187635,-0.11672440200775493,-0.4571955190520077,0.07946715804518302,-0.024984817174624516,0.0072630288882753295,-0.17688842611276032,0.21918058456048398,0.14184235245856497,-0.16552483420201197,0.210084158083302,0.01563408322746243,0.02442135362265896,0.5100875029808306,0.11266935738831825,-0.3502869091593394,0.34880970800667244,0.22241899025280873,0.21854651995675065,0.007043073381354979,0.3589298762087169,0.30615161531503365,-0.4053230305795334,-0.18368156851175058,-0.1693355689904327,0.5692579737222998,0.7172606973616951,0.1177149614778406,0.3380799297556577,0.040183078655532126,-0.40866245836571435,-0.46308000984989056,0.10411113643274533,-0.060285172698116674,0.22472913568287936,0.043639659358315985,-0.5131482403657235,0.13133522669363268,0.3910524838986156,-0.8626179476946954,-0.5278903529126701,-0.27430498509526785,-0.43644390355972884,-0.07829131504153418,0.22515332088144707,1.3827249694624664,0.38032297709507606,-0.5658048234695683,-0.3565643312630634,-0.007830157914387237,-0.7128803711558163,-0.3104334131991477,-0.3449057080140651,-0.6320194062776908,1.0058892184222163,-0.627763779457255,-0.8851323902726873,0.328493214920025,0.3668297987010654,0.17475401010119798,0.5562146906320472,-0.23621573578780197,-0.5940301941559237,-0.4250207310693204,-0.45848761168589786,-0.4006811455373854,-0.007504176964855926,0.4219187409029449,-0.5062717881209237,-0.1987997671910358,0.1967250536525361,-0.5811033506477626,-0.040344827440482206,0.3766059655561874,-0.31901519519494725,-0.5340221114587324,0.7201295926109172,0.16888363176294766,0.2728466385650185,0.13734903511729582,-0.21297949934667823,-0.05539985547867009,0.05145774370579226,-0.06008029790649069,-0.15997025599217968,-0.11563432739975071,0.5210607408812248,0.21504459593204034,-0.33841748048018494,0.15083035368973113,-0.010518133970457193,0.01022546464230726
30.19314956665039,1.1518001556396484,0.13668843341181433,0.5679842168293419,0.301845783648051,0.19235154483134442,0.15925610754558053,-0.32670277446475504,-0.635585292939047,0.008300001828937592,0.2025458046090896,0.442893586936235,-0.41551372807322895,-0.6114082632675445,-0.05185890941757817,-0.3538234575404071,-0.17088115336837947,-0.08490908547530954,-0.5169001215068404,-0.47924133630831317,0.33758284553742157,-0.26635218348854656,-0.6821375531145757,-0.30489417136825087,-0.034025791236281855,-0.09636053320617625,0.3057272281189709,0.43811088137359955,-0.11843642059911688,0.0335183846983869,-0.2591115276970728,0.22232989598772573,0.1697461808163795,0.013524170623606266,0.12325368669394596,0.22841080485752194,-0.11477795130579119,-0.09046117457789041,-0.23064226737171534,0.037374606680655065,0.020602743944502743,-0.3960384370224703,-0.13335148410768247,0.13795227611297134,0.1938004846058104,-0.18697539398019783,-0.25646727883986986,0.007394050863134584,-0.6586299362060571,0.22503499588802606,0.6938812342413575,0.4023162594374755,0.3113981170770792,0.29766206150560115,-0.38501478091697877,0.6246281529963824,-0.7210158526920303,-1.0948013537711585,-0.0035125629357935922,-0.46080573955274035,-0.6511501438260039,-0.6139976153666333,-0.5245949742372977,0.05612821146787529,0.4315553207351319,0.8708344383472375,0.5829630668046403,-0.3587682774810375,-0.43473274196963246,0.2167968719460452,-0.07846678155053552,0.3386380301171408,0.2641294514292552,0.028251076995624895,0.22533036902249165,0.7373835870234686,0.23843604426847603,-0.5443469364951695,0.019283872173112972,0.3054996394540805,0.21765425701848762,0.08838438503108008,0.04042563812067998,0.6451513820697197,0.34606292479599254,-0.19971922664756464,-0.45011004892179474,0.06555623817478418,0.24410420461644713,-0.3284937431063193,-0.23588044892508986,0.7010512775336519,0.1433621530400267,-0.3153438503677004,0.46215013021234785,0.17804798777579983,-0.6219534078445689,-0.09515318695700714,-0.1441844239427544,-0.3142452882821073,0.0520538502998307,-0.3374371721492528
31.34494972229004,1.1311016082763672,-0.4588951589475575,-0.31738738525451726,-0.18198617102248604,0.5645831560371989,0.17275322177367994,-0.12001363813422153,-0.19686542044122676,-0.09376784040306016,1.0214652826300312,-0.03992468564987954,-0.306345261953145,-0.1329344666677551,0.009716491149000986,0.1834517791385532,-0.005027003594404611,0.4146020844272263,0.35640333802602986,0.3030981643083579,0.7547975099766497,-0.125635129062619,-0.5580259158525078,-0.25398247224837867,-0.07168726181988927,0.002799532233480964,0.820450544726082,0.003184608401344876,0.028788765000984234,-0.402321876862869,0.06017731328300868,0.1449999021522884,0.1276593058550874,-0.35476038528785536,-0.2661860718593576,0.013572971678674798,0.5670675245996137,-0.15437583924321494,0.07825341832787183,0.15769210996746943,0.7739341635754513,0.5832629699250963,0.3731922054654026,0.134200715408231,0.47472383255112033,0.3000119819116809,0.38577408876144925,0.6433393774622707,-0.15254657995787507,-0.4222361295860029,0.39689414505192155,0.4211378736963634,-0.5087693869021365,0.3446152506656525,0.14252143158088287,-0.36154393456560435,-0.39072443106903415,0.47437266245459137,0.2596159693818614,-0.17104215760471192,0.06333637357388558,-0.289377301068539,-0.2776237138645387,-0.3044927165164285,-0.3335735762010002,0.190566604205975,0.9037923582466277,1.0633012471011323,-0.07282601539781772,-0.1541275637399451,0.2600657196654308,-0.056118622489030046,-0.03182335570052065,0.06487091664770356,0.21058108841764922,-0.1364275805602388,-0.0895364221433484,0.16731701562989912,-0.35094328534444047,0.2100234177702685,0.1589468566218473,0.18839444631868246,-0.06751207524315213,0.04467960868279856,0.19305565237575595,-0.6581338650943368,0.5471486569201747,0.041456783292074764,-0.3626182511395509,-0.3015682163565272,0.08600120189488779,0.04260938174880926,-0.18800859803338105,0.258210418102297,0.4823227385538882,0.23542607101676008,-0.17356349974039045,-0.2144869439785215,0.2564445859824588,0.12427403519959984,0.3754899578810069,0.001108392521261381
32.476051330566406,1.1310997009277344,0.021842199947646357,-0.5367426042312331,-0.18693153763148573,0.2035411926085378,-0.29375251024811316,-0.780927532697427,-0.019569914418677115,0.2253231280851457,-0.018948963176031838,-0.8627244533579389,-0.3104090974706541,0.17277918717075033,0.1637816913250737,0.16549650610325894,-0.33751289906685755,0.06650292264941601,0.08763667606038142,0.0909521437125908,0.20930067492244522,-0.1324503714394905,-0.1401225040432435,-0.026790364702411786,-0.027750621608471814,-0.04074174114461853,-0.16075189359876188,-0.05957514479767535,0.02600358210693178,0.10341218312824653,0.46164753362173505,0.01440387717472666,-0.2671836111785305,0.23657826484881267,-0.05675319876676328,-0.2493865795350496,0.011156153227827575,0.15580031381386655,0.11617116840470758,-0.20582128474468997,0.059340568043782405,0.1729357128624221,-0.15347948992994045,-0.31837539658966435,-0.30411989865118405,0.0330902186714998,0.07558894382975745,-0.3103015019231675,0.040302125796998815,0.08727789717312791,-0.15231521753574456,0.1986066592974919,-0.16735343779881595,0.2039252883303445,0.22134776181195737,0.057195691427034276,0.08733263903705593,0.2694098867376994,-0.14545096359396534,0.3307351818430714,1.0362745426421403,0.20504559277804502,-0.6175942508523125,-0.3634836048482075,0.7626151228466747,0.45438663981903266,-0.21666323086084416,0.08716157478300904,0.2069600922702213,-0.15101297715454204,0.2828077747142704,-0.5772664807372676,-0.22409405191185305,-0.05943270232243647,0.14827008663891295,0.13345540728552108,0.0424269707916973,0.20404226955194696,0.002326843081540143,0.4337482767728696,0.29925317118646555,-0.6864704537392828,0.08556326962841428,0.8808085239282106,-0.08030095824525928,0.16045116280965502,-0.0310587152984583,0.05365447329643716,-0.012856280741923319,-0.09830636669180248,-0.26135175787611226,-0.15578426417441477,0.0032339710069798216,-0.0475007300067293,0.5445265794435512,0.1938831118680252,-0.24343861723155136,-0.1005968999243523,0.08503557621727775,0.014986252826054813,0.2658450556635988,0.15424600115682618
33.60715103149414,1.1413993835449219,0.2986320151124911,-0.008297133984848245,0.030151074878585135,-0.31247471875027766,-0.4339577447113782,-0.049857380645535826,-0.13438342435877923,-0.3717764474451856,0.3189028852234113,-0.024461930928738683,0.10208970737358683,-0.12096809017117352,-0.6238908001342529,0.40886750118955784,-0.10833707943208629,-0.23164340839297173,-0.29319360038788256,-0.550493867073947,-0.49992636286723413,0.20651207688580508,-0.2324863566159102,-0.14450791359292406,-0.14001737035906467,-0.04979405826239373,-0.5636872851746486,0.11693480745701292,0.11629725908367422,0.17321525493554746,-0.00717628924457875,0.2182216187137152,0.34131121868574243,-0.20833128741823287,0.07113924000124061,0.41520031559867077,0.18456901923306246,0.29134218671230894,0.14388918296225792,0.33447461685546,-0.0353691112711704,-0.2701360684364335,0.14391677617693252,0.14231111980564592,0.22329685963633455,0.20082443439473602,0.06521725426823916,-0.06776226380166124,-0.29552781437049047,-0.3833786696659587,-0.4037722124435843,-0.015316151123973547,0.059812598131643226,0.29726706461431923,-0.05419494694378979,-0.1992499068625392,0.16422439431182154,0.07560452489036971,0.4461610056202783,-0.26930839245468635,-0.04547336990306464,1.3374091655163607,-0.6402280811104732,-0.18368595235535823,0.055606925900938686,0.13552489961981143,1.2787699491222657,0.19788432815097518,-0.7617981921498377,-0.7424293645274843,-0.23803494074020182,0.35028388276283334,0.04292580977981103,-0.2478181092248063,-0.04887285998065263,-0.1301361112926496,0.3611158658140133,-0.06062931079862712,-0.2888465848043704,0.008217256241611945,0.05513458073188034,0.141187331645469,0.11643175795199184,-0.27960871214623695,0.2265099147937001,-0.1693821397106296,-0.43654647214112874,0.06686666174873289,0.061307900794529246,0.4026513819011212,0.14791916909135708,-0.04281247809457297,-0.23400027950187055,0.04266182862463178,0.26468752157141334,-0.32612343015608497,0.10417984037855597,0.08620165002640498,0.5887135546317405,0.5831801819499028,0.0908385154887863,0.33663860776102383
34.74855041503906,1.1711006164550781,0.19931951798921752,0.23177017553777524,0.22534597157310612,-0.6043650431264557,-0.9159606248213417,0.30507316956872016,-0.022511211590049714,-0.042652289300488797,0.05343746688432564,-0.07802980220117847,-0.4127807561490733,-0.6503247111229742,0.473721472962632,-0.06281106751093608,-0.5393008216729254,0.08604113792327317,-0.12740924638730755,0.3677187630820438,0.2407540776064317,-0.15473057620648067,-0.1020706891139799,0.009200388429408703,0.01339037127215333,-0.20428111436688645,0.010974270671377143,-0.2878028410183305,-0.24418066991414913,0.13837374819174136,0.1701429717031425,-0.28246632653455944,0.11789333873277552,0.32181264309237173,-0.06773070685317199,-0.14157765517399712,-0.009231902442375225,0.2140785335318978,0.008182038056637045,-0.19178887653897214,0.08192958535187816,-0.15806028677894304,0.16215453750043293,0.14717832391614086,0.08471810026933528,-0.2456615752501019,0.04745354508506698,0.23833924405124446,0.3783079132104405,0.16665745085385966,-0.17707598494631005,-0.17882129693736187,-0.18147785954422258,-0.25892179095968876,-0.9695298611640535,-0.4964600593680719,-0.004213980835395037,0.28110391908790794,0.07486855257088493,-0.9466638573571221,-0.9662178500862066,-0.23396978443777983,0.040421286899583464,-0.04169744333337401,-0.37226753050502853,-0.44452993083122394,0.08067679460530927,-0.062222145913931395,-0.3091496770308387,0.5933925368271586,-0.2829285398209947,-0.2668082437010509,0.5740694305639263,0.6219156961602773,0.35757020236960113,0.4426431126694261,-0.14342888468847417,-0.021679890616796555,0.4781866181277542,-0.19049413528955494,-0.3077770570833637,-0.12968197263289688,0.10374602879298354,-0.09881902521471433,-0.7128049550644825,-0.11433873984645417,-0.24575799626684933,-0.40086417733064217,-0.42504517019037114,-0.2933991899400483,-0.1728199515695335,0.2083376596035935,-0.08790011361668008,-0.3656788841221797,0.12408095149159311,0.02365424868521087,-0.14022027542113558,-0.2459715664925883,0.6959573924001587,0.2934851809623097,-0.3551324266927016,0.1454108577840402
35.91965103149414,1.1313972473144531,0.026692601366750182,0.6105158166920666,-0.08147177814994634,0.36539597202666596,0.37439657481575733,-0.011479350670177052,0.20324798810715483,0.02930158571631749,0.5324833384858753,0.10070338483170611,0.06089115238744233,0.4977770033135176,0.3267268024794014,0.1751750955432817,-0.0779204895713721,-0.08311451082797663,-0.2428549859785305,-0.16295449573198026,0.5020207801883392,-0.4904389471053485,-0.8449427113474651,-0.07704038387830577,0.018873856667821792,0.03641025757955005,0.7089554030017324,0.11038594646541425,-0.5731419337431263,-0.33025021080326966,-0.43314286133455937,-0.1476538468073435,0.04631045893638236,-0.07527795379734205,-0.43680791157367455,0.7137143163989532,0.0500048193259129,0.057908541757949496,-0.13555650926347093,-0.051093233164561117,-0.012059570582253978,0.368659465806,-0.033228155212862986,-0.09909481367502403,0.1311361286356404,-0.02956594725895194,0.08995383115603568,-0.3074886621595608,-0.04797298159478537,0.18045398801621818,-0.07918371492383633,0.4319276436220821,0.06124191887899842,-0.4698500712762815,-0.6706061287140557,0.08507828541677126,0.6408715461953894,0.11872322387960951,-0.085795739299604,0.3053499574037025,0.731079015359462,0.8744519811685315,0.09408184469335543,0.47968395145410253,-0.07727571131959196,-0.7253612551287612,0.2864489764448533,-0.4777135451548377,-1.1949176951037719,0.5319455518179099,-0.13930812172076634,-0.0795361467624434,0.48181541066114775,0.8693619280913851,-0.3008521030521199,-0.3121519019822567,0.051176419744200174,0.3608824130135723,-0.043997648527923094,-0.0716293611755853,0.08962751738006246,-0.028150534593711186,0.11023461064978146,-0.2715346959691176,-0.1842136196736184,-0.02758031704118375,0.062203838290374534,-0.0496476386278513,-0.4652120164717476,-0.7956564017757839,-0.12048884645559285,0.37024837137527716,-0.22135369356394363,0.3241838370381425,0.5618743999880544,0.4049335993265876,0.2362988580601548,0.3103045703430201,0.06307998886379926,-0.7451563172464235,-1.2241465171351325,-0.08935011240104657
37.051048278808594,1.1211013793945312,-0.1350700372462054,-0.17666850083867064,0.49591294926092466,-0.42521701823233327,-0.3022848218684332,-0.2758486956451858,-0.005779973428725058,0.32053298024839494,-0.18876283894295773,0.4004649618290368,0.0014283645308895698,0.17353836105520115,0.22918677377517752,-0.4060100790456445,-0.023307290265034364,0.06942856470900824,0.06877267378634132,0.2853485296630509,-0.7008088816949094,-0.23619445492870905,0.09617646536075551,0.004716245327417859,-0.1356569572194023,-0.1293826751814129,0.5125359648769071,0.34716188830879835,-0.24824354877803986,-0.15709174335761783,0.3024909561257399,0.24865838399278314,0.05516366754650773,-0.17056921085159096,-0.03186442569027608,-0.10029114386335587,-0.04943296189412577,-0.05899407859888243,-0.04448684787998318,0.09615980997506139,0.3701543098712078,0.20745548986756382,-0.2731010636239539,-0.1320451218407797,0.33754780927828226,-0.035548470540805815,0.11049298103581182,-0.028095180811584804,0.10798612843486102,0.05610349083175452,-0.35303722177152613,0.07970168978431681,0.12634063074962382,0.04277840940815783,-0.05173656187384424,-0.17778127307779706,0.38373724271897613,0.176196270812497,-0.16661375560311464,0.13108573353352895,0.05713188874769739,0.004148514746232648,-0.0004916749437857103,0.665940513204792,0.18874202633651532,0.5222468214537622,-0.2927032234118176,0.24124382082487456,-0.2617099362651336,-0.2952112908054014,-0.019632261492131493,-0.055159917066958546,-0.23985966432654696,0.018289168943417783,-0.1421150121965205,0.0882812499052007,0.568981613518399,-0.26871225343548233,0.1596715981783976,-0.08547852101683708,-0.045756220954557815,0.01850702123661625,0.2754739592409293,-0.22675093456120635,0.13607491970397947,0.0314999805346613,0.11017307062900798,0.48606355001061524,0.039943106893369995,-0.7672302089226969,-0.4355426640712911,0.33624178870301746,-0.41676242301040156,-0.5444905159273415,0.02008303192212665,-0.21538415850042072,-0.31926650421370606,-0.33797500810564357,0.1872717183729005,0.4274548780283237,-0.1292913696099168,-0.5793731527942634
38.172149658203125,1.1609001159667969,-0.4646138048187217,0.28694216937151396,0.6814698072373457,0.04378477090885398,-0.1671944904874117,-0.20228143179675057,-0.6887073951896705,-0.06388433699238218,0.20005640735811903,0.06067746673672034,-0.6684248118961473,-0.31033940232091445,0.19609806837464216,-0.45519686848924823,-0.5103816352901865,-0.1565974179302516,0.11024846394223005,-0.5548935457703686,-0.6020921442418242,0.08076774487712009,-0.016024539196776183,-0.45217960270355256,-0.20713634071011375,-0.06366639262668913,0.49625972837376636,-0.17994656321110855,0.19290301823670342,-0.19245971573880682,-0.02010654715770165,-0.10324931448743759,-0.09945880722634079,0.09663884389816711,0.12216712352909877,0.0639276266598706,0.16528995421958798,-0.27444971106545024,0.039876331856534754,-0.004503843039027372,-0.18688990005102224,0.12977974434692202,0.014665568477194364,0.2655765995272418,0.057057271507559314,0.08714323597610137,0.002696271513720267,-0.07504077536328352,0.03625191319489228,-0.11507742928316099,0.08006937301725578,0.4701093903013886,-0.011848569966015667,-0.08607775254265541,0.09463711798402182,0.33524304276494177,-0.09270956195567845,0.2014023072575779,0.5477819019692134,0.32725609503734343,-0.4544784308712237,-0.6016517247981297,0.15356107451345377,0.7390646694828047,0.3059051815562321,0.8228373182989706,0.1933487313956022,0.4503747660191621,-0.5040540484712817,-0.5291281587836031,0.3353252620663272,0.8071768699058902,-0.13646429671580873,-0.9252462116387933,0.20999125332989876,0.16257176475391621,0.562612996198482,0.09380912023973939,-0.07570840585337206,-0.25898481662790684,-0.09772885160995755,-0.09102025532757914,0.008810294262960459,-0.5165958395383887,-0.33727061652276635,-0.24087280802988392,0.08130326222789776,-0.11838850953256833,-0.3074216122103445,0.08191995306472499,0.09276251758128992,-0.19318959234977465,0.433011981623023,-0.27816883349713434,-0.19307660439929533,0.10840314603337059,-0.0477762759629892,0.17857226053932918,0.697290760034746,-0.37476363026132853,0.42556460343707075,0.4539347484753532
39.33304977416992,1.20159912109375,0.4427980542925435,-0.5087049637959009,-0.693439892249204,-0.2297922179610014,0.33564139331716647,-0.012533338037392788,0.1439199946092646,-0.3069553889681006,-0.262319436117192,0.3484853875496651,0.09737367267184228,-0.201030598885753,0.002076799126696602,-0.03983139002082221,0.21161941619744656,-0.6109378671220967,-0.2081115541163146,0.41741759357165975,0.2313951056461376,-0.20033943095596915,0.3535974984438589,-0.016111709169190025,0.03603314112496446,-0.12847775145793353,0.09827391580375973,-0.08266631565003302,0.12802825314904206,0.10651669285013268,0.16721503942880073,-0.23075621565043608,0.08616549776311519,-0.0885469645957511,-0.19356593593742066,0.05948828715455659,0.27954350972333564,0.055962396126149755,0.10022098183728506,0.02120479964372772,0.15617814605534067,-0.21723457882773714,-0.06026664095896657,0.21095959199234027,0.03408013076075022,-0.07147618899679703,-0.005680256434448,-0.013253535656000324,0.0580262490684498,0.21966006324237805,0.38710183960134825,0.04354324276412921,0.29956562438755435,0.5697435214238149,0.08175557411373835,0.027963602489395847,-0.20097008449510745,-0.03064351834893797,0.3570417117220573,-0.32527446000997606,0.061547663190215485,0.41530762275679944,0.008256805133626921,0.37119360582657523,-0.35689474279212635,0.2198865948121518,0.5670134618176159,-0.5249081242780976,-1.1663746953904621,-0.12485317502860094,0.13797750007014745,1.186489957361133,0.4593974446619787,-0.3182569293989024,-0.1471246276293594,0.0573225352892878,0.4306504461402854,-0.32497052821066696,-0.39431055006682575,-0.48752385280700894,0.05416668939443923,-0.2104206785271916,-0.1484937054517305,-0.622971206511385,0.00585247217128234,0.2936623491699784,0.6885641739324966,0.40056676821768833,0.02964927473330654,-0.09948348779286191,-0.1421516939734157,0.26649240140763725,-0.1761439002029481,-0.5485502414565667,0.052917839076807825,0.13579946598849596,0.11578279181469339,-0.2714329298611128,0.2473249477688608,-0.34306415940793994,-0.15064101862531779,0.07447214479194919
40.53464889526367,1.1511993408203125,0.22638679111769056,-0.02817899005567146,0.21024532443547445,-0.18666241540828726,-0.5704918583012235,0.07105613576019648,-0.0003832135867191779,0.15149817199308202,0.17495179852776666,0.3498176729785568,-0.3773198804917598,-0.8376554173038395,-0.01130345802778751,-0.06753136323957015,-0.017455111888213526,-0.2545980934720361,0.06582635570111274,0.3063031857336993,0.4322463009113736,0.2538486622002478,0.2493064093563337,-0.3533416712475481,-0.027262485781023776,-0.397362186456723,0.27138491515234364,0.09490731648351095,-0.3394536107284292,0.15087633432097436,-0.19669502935638414,-0.10312481967529188,0.15935122825420592,-0.16791140526632858,-0.2164150620728654,-0.079558358199129,0.031238223020650827,-0.15388805985860576,0.04058459856022413,0.06137545324613352,-0.010260478748920224,0.005233048996859349,-0.09060443421372974,0.13713679846104398,-0.30419581322826467,0.2501748818136672,0.09931192926548116,-0.15294058283748743,-0.0352472148766768,0.020015464433706914,-0.21411587618087807,-0.11954258788418819,-0.1948556064375114,-0.05848495369813002,0.5286334306037931,-0.03509009508001497,-0.07170003565189645,-0.1530319633661104,-0.0191717817286363,0.10447211283867895,0.17947412979322466,-0.3551493260957094,-0.5550374461044736,0.3613457485498353,0.3731577571947243,0.5439451423044573,-0.7010517852015479,-0.2744092649313912,0.20907331544259314,0.4072115820039475,0.6562220802483688,0.6904974364211195,0.7404915658681744,0.2724085505013029,0.24133042088916729,0.005831711103350561,0.1957506793666562,-0.2885137998492076,-0.18436491175423886,-0.19773486434174453,-0.47288356512952406,-0.5472513253656609,0.23875340059671324,0.07169638986362087,0.11662237066441299,0.4624631293763462,0.4271452808867596,0.16474170507153615,0.12529156633511232,-0.3691974167083116,-0.1984493116321672,-0.07979486927322006,-0.4158350413998698,0.3355987263886017,0.07952348996324758,-0.5200333599885049,-0.38732755334688396,0.10731500617140494,0.28987367016568966,0.13633536990814044,-0.18935256422931562,-0.06994572214186051
41.685848236083984,1.2813034057617188,-0.19203775320141675,0.1303381703540521,0.42995766994110163,0.1066842411653522,0.08676201320141866,-0.10979621616312829,0.03747016642572507,0.12793483824270063,0.13610539120876025,0.26891261203973327,0.17651920921420136,-0.0758007611943026,-0.14440924601136443,0.11524762313023965,-0.0553190127325381,-0.13282782555673045,0.016756651154516092,0.07253022014739725,-0.47130905908614706,-0.13821907775357092,0.06280288401479166,-0.19483782258750665,-0.7005657307881644,0.19723647776626282,0.21334452141674765,0.6633027481060727,-0.09211580906486283,0.3982872374476461,0.22072901756672703,0.39541163689164394,0.43860044014746813,-0.15272311560418933,0.27509630229056753,0.7273361526009562,-0.25558616469984957,-0.3884099516193024,-0.04815557591216647,0.3644868569013351,0.12620919773650316,-0.11791489231848676,-0.5308113048356758,0.23662460687392217,0.1694192258362652,0.15058159893028783,-0.11576136189339839,-0.24372605312365417,-0.08736103704008338,0.14769314650799126,0.09749671490906507,0.3128960770078721,-0.04951781607930869,-0.46468265706831335,-0.17907527562892456,-0.22552356915765207,0.04275338347742478,-0.3431054561183129,-0.022578990995104867,0.35531577982506446,0.17288805472594984,0.10689013896373287,-0.3055162194725396,-0.3656264618722714,0.5968698323361398,0.01409947327970181,-0.17816028224419264,0.2934863445785966,0.3132653067012314,0.07277243181608092,0.38893013717113006,0.21251466068012656,-0.27381423860250254,0.3909393302227238,0.4114322753215711,0.40984403735680974,-0.05941498968542365,-0.22201847745663328,0.6285416082638348,0.457093330180551,-0.06184899355122727,-0.5493592736673363,-0.18374708061297193,0.21454080218416133,-0.09260902030490739,-0.5664977610951283,0.020264600092609535,0.25931774283450904,0.11764019010865022,-0.1376135534088972,-0.0017567093612116946,0.10248729617640051,0.00213909548899497,0.12182508867787487,0.13171991683009765,-0.07862065711114728,-0.008613250525750502,-0.25824054053100676,-0.07655563585902786,-0.010071617639515695,0.5514535357325316,0.06782345304991089
42.9671516418457,1.1509971618652344,0.18996222502410176,-0.6000074463193691,-0.8527924819919223,-0.20450262728232158,0.015302248069112465,-0.29771596837723974,-0.27665145873279323,0.06367492228603627,0.27328475257748985,-0.19561607098001826,-0.38295588160554017,-0.34104748538691176,-0.6179227809059854,-0.3721626782592954,0.16457559788902365,0.09067418453397039,0.1995099999136542,0.017543728781121523,-0.05995708932173241,0.10802341879049894,0.016301768508221126,-0.24374562966847046,-0.014616650225369968,0.4064024277131985,-0.05071093364215398,-0.45644518607154144,0.015337136421263331,0.0002666958462401,0.12633863956655633,-0.014760095849168774,-0.12784444691900784,-0.25887057651063416,-0.06664531050504738,-0.02516884122862712,-0.09151577624853137,-0.1155635777092543,0.08121042924846246,0.04104747654936642,0.24459409020248482,0.0880050534901787,-0.12030823477051594,0.019580790741061865,0.3021577031426862,0.2284152244362835,-0.123306945598746,-0.10810864468094077,0.12582111689687697,0.09970258441986142,-0.16302172164540252,0.13676642738559652,0.129613685469182,-0.2307185811167603,-0.026596743460944285,0.401821024035822,0.2778061096739042,0.21778598745266115,0.09971205371506504,0.01825009557861275,-0.11855788061949103,0.21159185552485824,0.017048051506688557,0.2988698943104564,0.20435825341007807,-0.9566738898761507,-0.947722311810081,0.550581852201473,0.13147758430779552,-0.23549374488024294,0.02142505965091991,-0.029382233847094347,-0.2805484757846992,-0.35538868950729413,0.18771842028287278,0.020968240921678476,-0.14456411033097655,-0.11220943098992411,-0.1518455038707011,0.04555215810168106,0.0657304352650773,0.34560361072120055,0.22317480715895907,-0.3195253650699569,-0.055614949052415596,-0.10546744910568316,-0.07595084691677399,0.14636888570409962,-0.002691370964903657,0.44794894757166637,0.4415644842561748,-0.0542900121148541,0.15056133152125856,0.04351236687139252,0.26800982788746114,0.22515638102064534,-0.04645920432807804,0.08104272675083403,-0.05534740799184565,0.2875672422563573,-0.1249888578830644,-0.18047918265842927
44.11814880371094,1.231201171875,-0.2062206683188217,-0.29028579162038304,0.0033645230497406416,0.10039969463871683,0.013907465642963558,-0.3130052328653039,-0.16211108848833544,-0.20164611595933302,-0.38574795771664255,0.09451174785977974,-0.22208042882323617,-0.09703342987913591,-0.21565417625608163,-0.22376894978816925,0.3127447756800432,0.0798930934555554,-0.2260658022735971,-0.11748181421138755,0.00826012098382439,0.01687925749144796,-0.22481398234758132,0.07909743989035052,0.23964627358184099,0.1974212007676357,0.057053384243153746,0.024851107548496232,-0.3565032571368153,-0.0871391120530541,-0.0508012644600914,-0.19227995915590174,0.11745326918088084,0.05426110084309228,-0.08163309048827269,-0.023067881522151962,-0.13475773448557746,-0.013208835998539468,0.18162867236171973,0.036122508712904726,0.11427307567981532,-0.07276313261226128,-0.10069338831644867,-0.27342103882256225,-0.15648923478060964,0.5314030034997443,0.028644812488962813,-0.012952731685100763,0.008654751495624939,-0.10188123116808873,-0.00589809044940059,-0.21836962612735877,0.014639663386393897,-0.13918480555357887,-0.0042135521529779035,-0.09088365232442472,0.0031900109378750893,-0.2524214030997017,-0.01411131348010431,0.3772775639390112,0.013620772879827834,0.022845453838264133,0.05276556940156245,-0.5790165226756273,-0.8444275669133764,-0.0985427608662595,0.18016135843073228,0.7331223417045881,-0.07513244143781263,0.12800194424738126,-0.40092190311431863,0.647030389522389,-0.058181100049212356,-0.047163381191038856,-0.038524839685930776,0.11097926562030211,-0.2505554422041917,-0.20489551094735572,0.11298494398764916,-0.4759634972892932,-0.07684346555399553,0.44770433314254315,0.19789100477126748,-0.7106662640898889,-0.18814082843535107,0.12248500248339277,-0.13832933280368423,0.05274426195680791,-0.05873243115005783,-0.2749811192575943,0.06429296175834141,-0.21168899902866092,-0.27168345592834886,-0.262797462368087,0.03885562029614417,-0.1686392455388353,-0.15306240644507782,0.09076666714549826,0.5155652872431855,0.4144106889625969,0.21357315539889643,0.31697963715902155
45.34934997558594,1.2114982604980469,0.3305635812119097,-0.29856429115136385,-0.48856011883992745,-0.04129591569084392,0.06105616179126177,-0.28732942746069734,0.07460883531577334,0.35582763653133126,0.38200256381150416,0.21247966463346948,0.115861124570481,0.09583594447012933,0.020177899476563246,0.18581467805728358,-0.31120030939832166,-0.47285045215988264,-0.1207260791155285,0.3143706290243108,-0.007733630016995091,0.11398970078079196,-0.06744445208706827,0.08998180101248393,0.16598543205450264,0.1368196749014725,0.30555729753130123,-0.06294633283839472,-0.07153565405283399,0.13845544351927053,-0.032783252647188114,-0.04710605516254835,-0.09341836594788841,-0.1182453600448439,0.030377971629391962,0.052994272582414105,0.3308657458053729,0.2144175446327697,-0.03279023741360651,-0.1796790034677001,-0.16897393184635565,-0.17724724926371524,-0.06186234058134846,-0.001154867401475787,-0.3347820734804908,-0.0524646405524086,-0.2611314713780492,0.10492215162767297,-0.1599653494253081,0.12392299559298876,-0.1310260235930945,0.10600133611716032,-0.1246232532308802,-0.2809442692981992,0.034171331754562696,0.22637057416063494,-0.045921815495149135,0.13561275057005479,0.5406286646242449,-0.06706664481056139,-0.4256500687795287,-0.37384908130064803,0.21296711461447881,0.4717958238713127,-0.5726926403873315,-0.7600297215516117,0.1905856779904724,-0.4176669082333735,0.16886848307525953,0.2853610176657934,0.33073142418046947,0.04813723814734559,0.06271019105693515,0.16578111554217645,0.05271465687939962,0.32981562935313036,0.10076772836044992,-0.23217280588209616,0.37216248882916253,-0.20704939178715845,0.17345279602662922,0.1343351951966348,0.16984277362413855,-0.17856459023597215,0.1370674862892437,0.1836470958490721,0.0006461023622053844,0.046277047280491215,0.3136145550878338,0.08527563954622283,-0.06088289569177971,0.2966042021594384,-0.16209052533635596,-0.22735432881336212,0.5881177083945449,0.10275220008878469,-0.08613818941433024,0.2190812030595725,0.4287087107252306,0.22848389786886691,0.2553224609152283,0.6237957793908826
46.560848236083984,1.2311019897460938,0.6458938597165895,0.12149030108550149,0.05816441818756468,0.2762437929888562,0.12368159457866579,-0.027854188045601205,0.07207497296918254,0.0032459515011557527,0.03438096914972302,-0.21876903958461286,-0.2602673765536293,-0.00951202110230448,0.06483412101945342,0.1929127960223435,0.13221299100367637,0.3012456194164028,-0.0680166342840859,-0.16478248547956312,0.005753317191514132,0.13083578995851708,0.1362734720481239,0.013306516560231324,0.07983679172737422,-0.10539030518514625,-0.04108452620400111,-0.14464825707030154,0.2130351882241028,0.04922543518920044,-0.09260328620891833,-0.07053149817497942,0.23476489213348295,0.16794984379332173,-0.0723280502656135,-0.4846730987613707,0.00020805114392781075,-0.26233839609905935,-0.17969489312005243,-0.1660536222708932,-0.14430408466313144,-0.22386753486195113,0.25023762439301267,-0.08030706359655554,0.038675289829674706,-0.2719303168049365,-0.11124478497794474,0.0011827518425227609,0.08748446883664664,-0.003630764799117246,-0.01368072295511471,-0.03851350457252838,0.08878729379135654,0.2304477278036299,0.19603738745652546,0.25033025386149566,-0.38677137529921596,-0.28385699031639633,-0.06306987669487377,0.2160937855049865,-0.31644144956446907,-0.11987284537130438,0.03760865791969542,0.21786700182467186,0.9178751505165883,0.21118225872150764,-0.4576484638075235,-0.28929658155881866,-0.06882937412230623,0.024944442766309735,0.3722710583471489,0.28250315494402944,0.9534737291991082,0.6974871787088679,-0.06110146527477797,0.558802873141955,0.01820662631947671,0.10815958065391468,0.7143830585676583,0.2365482631156113,-0.1155186335268224,-0.009435119077493032,0.17675010246818088,0.24106238154947685,0.2626913231946232,0.17101998999893442,-0.004593527536071139,-0.0939600798615174,0.15753888602168434,-0.11425230596711465,-0.0757145536910965,-0.0061713114621864615,0.3738477630257377,0.18943421743982344,0.04756869398258567,0.4261846606237718,0.18716471938593843,-0.033815086450037564,-0.30119846849882215,-0.2527337273772999,-0.21786600956884827,-0.43396224106809606
47.79195022583008,1.1814994812011719,-0.5784421955509605,0.24003918045526776,0.22180718819885734,-0.2199529903180704,-0.294805513371735,0.2747800464283404,-0.026541375006058892,0.11484343804938116,0.15972180531557298,-0.3787427771171133,-0.3503653995498126,0.2722294531518517,0.03352062313353482,-0.08137750943259116,-0.2947895451490253,-0.12222046620994556,-0.0329755701263293,-0.17304682567479737,0.09628629427470133,0.09778682112649102,-0.21095720039085855,0.0407469857819488,-0.25438360716795433,0.0022945719399144167,-0.046218149521828504,0.08600696355520074,-0.09107508715988653,-0.04167914377735038,-0.047621746606677534,-0.00010258366639353048,0.18046272963800936,-0.1015793914761082,0.09960064897480847,-0.1755555612647799,-0.018485504896400443,0.14486143326948175,-0.07969088607769084,0.38535083033039347,-0.013190133722741935,-0.021047467441490567,-0.13611583292901536,-0.2219013316031654,-0.20704611511632387,-0.12875988277800984,0.0690806269782319,-0.03980939566726994,-0.17351774663314518,0.14838553890071618,0.030493756448748355,-0.13632370122900475,0.31373288320579035,0.02668875099563267,0.05628320767009881,-0.001453946777372111,-0.07104586716729422,0.11031164631391686,0.37692081356402435,0.16618448270000094,-0.4094914432787483,-0.004462796461452928,0.2688830936239189,0.17825906512262418,0.8173548688222093,-0.08003701696087726,0.42080506876649315,0.6244328686308672,0.5085796822997081,0.42581935738153465,-0.2985110399258897,-0.05037941569236963,-0.13287065801476022,0.0837630892888236,0.9373973612399633,0.6973334611660755,0.34834317713505886,-0.2264757109257144,0.07697521463476004,0.6024799025064993,0.2244810131522657,0.08242917173142002,0.1949179814175345,-0.14195284847840028,-0.21768417022062556,-0.2768206665415474,0.04469352268101759,0.26834734876478855,0.09924592150675111,-0.268591413370351,0.024353385730453897,0.13694051927179515,-0.05618469547690784,0.04101883573365184,-0.06989580789004735,-0.17904868547632305,0.01659895760773337,0.5158388348124952,0.13495469302588137,0.11445935325505129,0.3553118609651493,0.06826945236196566
48.97344970703125,1.2013015747070312,0.22005347997792576,-0.1860998635019696,0.25689803426553726,0.04943387098381207,-0.09943838545240517,0.356297924350028,0.1147454315396213,-0.10983790469300779,-0.04556199514698174,0.09095750719650594,0.04113631156158545,0.3540576357330396,-0.0226185131462074,-0.2619951985705144,0.0577063406916841,-0.0308232685646151,0.13286312055162192,0.08923418539348314,-0.0777021609984038,-0.030435137624223948,-0.12111088620140617,-0.10565324588328207,-0.36043382011505043,-0.030440788319378572,0.022375677344438898,-0.10171673309630447,-0.06626797559188571,-0.026439033104256056,0.11714572830119833,-0.11852850363812291,0.14107321709166729,-0.023189512932950452,-0.21291477155792762,-0.07741445131692867,-0.16999318406104727,-0.36342636381136595,0.01894842025729181,0.16057617363362534,-0.16351368004430786,0.061759016577146615,0.023571592614539474,0.035625747464879426,0.052470306423176336,-0.08959311510794615,-0.3088420509421917,-0.1936066652619946,0.032713269702202744,0.04610113415426746,-0.2867354575248404,-0.05088907967139396,-0.15251851291591592,0.04144629875352817,0.35022951079642517,0.20632976185986837,-0.1354178166662215,0.48612919985848585,0.3458336020843223,-0.5221653546104169,-0.10743765862451027,-0.6672345073745479,-0.2544652051537446,0.27297445186481417,0.26953424062042375,-0.6051959549056106,-0.17077557076381336,-0.303772227515298,0.11563841937345684,-0.20694538836752924,-0.4559250855389753,0.12994110727361505,0.2229969963431467,0.09456869464581188,0.5770558082468612,0.13992982439827278,0.4700617086757638,0.1711404366034467,-0.03821165537941438,-0.027339254663426876,-0.018827860183110855,-0.46052036292880155,-0.7904185184350252,0.14877354797054326,-0.09758978990832495,0.055219068002257066,0.10278202108292675,0.5357605671273507,0.3715337821824479,0.36289022609670435,0.30680734527998793,-0.2032685658348204,-0.1941133712692709,-0.11718097291560955,-0.010694800515499231,0.6168933862304872,0.1316149131449513,-0.7944484276710181,0.1204077219440606,0.4136640677257115,0.04346091256547248,0.13391076220265355
50.17475128173828,1.1310005187988281,0.011690009981767153,0.06436762859765824,-0.3949349123568061,-0.30603378739806786,-0.173800122929443,-2.2818800737502316e-06,0.04206526384795774,-0.10169619686317113,-0.007186829934148542,0.05740644458661445,-0.3198505295569629,0.4221640526991741,-0.36490862443723215,-0.2869805943551512,0.4297143674853457,0.14315179578420267,-0.4012659961348105,-0.4521015897004279,-0.2912537737367241,0.301707646479666,0.04843890497568931,-0.047662357326256864,-0.2031909665429121,0.17759939838687866,0.19022593140986957,0.24026060688841983,0.30863329258496053,-0.4433525575014922,0.15521011182296934,-0.002507012201920275,0.1706556101451869,0.25768180774135496,0.11238825560083573,-0.3714386181563896,-0.30060646128778795,0.1614996521698695,-0.12440008471658145,0.05766862708938535,0.10637556053694928,0.26292053057112197,0.4453348586335104,-0.1486297919821607,-0.09258054137036696,-0.08426329684527525,-0.07319659912449272,0.14647837603808983,0.031297142452422065,-0.02660360553942467,-0.4242256970276115,0.1316307493496723,-0.10551500897920771,0.10023410802667998,0.18612093376614788,0.11652175136716897,-0.06496685385199602,-0.13281987835567663,-0.015048637851310361,-0.33862123085644447,-0.2973320665148702,-0.5466077086688965,-0.11922475279357164,-0.032808417319739935,0.13878803609346252,0.11537728497202875,0.05948728719148838,-0.07559065668010237,-0.4710815316904499,-0.1287904992203472,-0.04543765254142945,0.3536515436122003,0.10769364851026382,0.1758919887074714,-0.1450730370595969,0.053186587897554274,0.6270785520384281,0.07604792859879436,-0.017442663797082064,0.5344042267387846,0.318625968159332,0.08409476717976894,0.19872782217693463,0.24086984849250043,-0.037811906398990174,0.03457326748836065,0.3894665272288101,0.16516495143573065,0.009741355835832629,0.07473968861359646,-0.010485066899686955,0.3950727149731781,0.08123373098149425,-0.37041637000073596,-0.7187029032933399,-0.1319215665871164,-0.15106279760211663,-0.16239172211925848,0.18372165374064625,0.0027793692269903582,-0.22064521290955386,0.005984013772725311
51.30575180053711,1.1810989379882812,-0.004835279361693191,0.44809453276053224,-0.18037360356871332,-0.005656219462030453,0.19593075100906823,0.04044763511470094,0.2099171608537853,0.14599734709272874,0.08553658420945139,-0.3485954626702303,0.4606376696641265,0.5888960986003329,-0.17154675036638045,-0.3025849034326557,-0.04787584857278862,0.018319707468350696,-0.549870700857914,0.06650703798728372,-0.058274342130002876,-0.33701206917832877,0.04493847655108977,0.08959316999298916,-0.22522900085980715,0.0979729689227191,-0.1874191548729648,-0.01693809055427596,-0.11396425852357318,-0.07934397552036952,0.06031733795179413,0.3008790267698966,0.15667746674852612,-0.0469443250548303,-0.15862779795620374,-0.145660457251935,-0.17605237136129137,-0.3488028035835803,-0.015844478446607854,0.03629455244663739,-0.0225621683733604,-0.136965776387089,0.16794827663480172,-0.12499845396497367,-0.041322099876180275,0.07404129352100869,-0.04265196753406866,0.02412829085361628,-0.14887069304342937,0.15438932337599603,-0.016157730999353095,-0.010390354881001235,-0.74713707452702,-0.28485777915766436,0.1412469882173912,0.0985265100425888,-0.02736748300742139,-0.08760706017929262,0.2456709003186489,-0.0502912697576755,0.3396367398074025,-0.007649175386986742,-0.2442657970220477,-0.15759984606299682,-0.038719556907485804,0.2545276653473515,0.5005779079713082,0.030273755750885863,0.09736359933317362,0.13440770360384063,-0.26649853164890297,-0.40515524469369585,-0.2507846972283739,-0.027176655317260823,0.14082403938080773,0.04427491672714007,0.6335495022802714,-0.04198641981304758,-0.3142465053770904,-0.4734388449692008,-0.5523561138104912,0.03152850588103186,-0.3964405036794091,0.0441236029490193,-0.2668006016068867,0.2721508333134141,0.10691005319729817,-0.23181366049461236,0.31284955429455025,0.1383051967899041,0.010737796332259013,-0.15930477297961673,-0.06898377324969657,-0.007701454059676413,0.03363748645860083,-0.1386253017428812,-0.13806573950296464,-0.07953598279701223,-0.3306331404999232,-0.56819187922217,0.4701599580082077,0.275042574233366
52.48685073852539,1.2117996215820312,0.15133539850324232,-0.35820017956382094,-0.412805791043972,-0.3062405926686539,-0.40018083320278314,-0.2701067726305276,-0.29914609236942735,-0.10901700206613102,0.3445259157290962,0.03658110811865323,0.1080800974763154,-0.09617954148832693,-0.44830350588163875,-0.2529276386254991,0.13571192355785736,0.34907198295020975,0.09013564687930459,0.21315385246870633,0.13304310295952904,0.19286268717543115,0.013159773463464787,0.12155878745248559,0.05264450173312517,0.02324427201821385,-0.09708061247928004,0.031763763579015794,0.11941761970996573,0.2626813582323869,-0.07169518657511889,0.10162907925428895,0.011431985826921726,-0.07916237945640897,-0.3664162545059647,0.08476383986497096,0.019787411295736985,-0.3034055740353059,0.09064017842238173,0.21187434254977294,-0.06904165055231995,0.18431477521086478,-0.16137278796235172,-0.20799576394004543,-0.09433574331906956,0.0075229210633864525,0.14246289978601118,0.02154731580446894,0.04438337876944958,0.17790154743708622,0.04934703728388866,0.07668849287629999,0.054115725982197715,0.01878820801845779,-0.051787184500999145,0.06721729424248506,-0.021896082379611048,-0.2819704183058173,0.08362189017493711,0.23360180157617563,-0.06138342083317126,0.32574555620987594,-0.4877961402426411,-0.2703592338517375,-0.22269167774173856,-0.19325970218853855,-0.5100584439186034,-0.9058021048929288,0.21966312434449967,-0.4568410036784582,-0.3092386066973154,-0.03820586027888218,-0.152892043586431,0.007886251034358693,0.03422884092609328,0.10163536802311104,0.26730751763254124,0.08998383460073311,-0.1193024437794192,-0.34196827722200596,0.4359260295083267,0.12827780356657004,-0.22190132423888187,0.2824367706666432,0.10367379622066886,-0.4628566825416398,-0.162865046123791,0.1522111420109926,-0.07932975056545763,-0.05716517807145704,0.23766845191472297,-0.3009172441184381,-0.47571193065528916,-0.5138828825762385,0.16492962930174615,0.08982131452975775,0.11278446367732929,-0.18901249424615038,-0.25337145084123724,0.14180438351063454,0.04239205423197823,0.49031671412386824
53.69865036010742,1.1110000610351562,0.5186032704977336,0.13961690677302213,-0.04189106839483786,0.5622844757955479,-0.2747580752103937,0.03219779451354478,0.4854851612072707,0.4772413688263897,0.16239181005048506,-0.19425682434968886,-0.1798038027802236,-0.2337964663170411,-0.05787307767887695,-0.38305534514526224,-0.07135621395064301,0.2891600045386336,-0.047914646517760257,-0.259442709814551,-0.15132537462690518,0.17959754145295637,-0.128547431708972,-0.218340770439308,0.31615853505669217,-0.16340933283721387,0.047167403844427115,0.19399184133585293,-0.27785654955580436,-0.023306040966861098,0.0738079104337411,0.642556050908881,-0.07596496899006781,-0.1323603941642507,-0.22173431833501078,-0.2817234022223152,-0.45864052223842805,-0.34294707738878893,0.07512009087833196,-0.08206743274490401,0.17894173943039804,0.16455285447605797,-0.21474092180848273,0.1928468345172355,0.0077611612634759216,-0.29329466111445684,-0.16936501640238966,0.14144579352472145,0.08993499703329508,0.05677788035228549,-0.13118053556746556,-0.16857367368229956,-0.20407707272241926,-0.04452749148366027,0.05071471377248324,0.00036938688520257723,0.10486543170243909,-0.17511922815253028,0.06909881080853149,0.06477441665161748,0.01291733676789538,0.12210760022921163,0.2469556400447941,0.7364143139882469,-0.1709796836011033,0.1599561616926137,0.16298331040430153,0.45552310697543363,-0.44514340688422804,-1.097376736341946,0.15777512376968425,0.014970077608604315,0.03633512386053882,0.4143109620911236,0.5473554983388306,0.05598968268977065,0.14660687710756576,-0.10447332317901481,0.45332577877908997,0.004599667093573082,-0.11379046298673753,-0.5148753974644573,-0.010975214892780406,-0.27344412014110825,-0.4502874225573405,-0.2205106220743268,-0.2507644790509774,0.1152192136479858,0.2999205481111762,0.24861819694084528,0.0251591141962249,-0.32637599313634175,-0.2050022839096818,0.22406772760226684,0.28057078048168965,-0.054775912668590304,-0.19943300384673196,-0.11561714977671346,0.2946467973560667,0.1410380712845011,-0.6320601092531941,-0.9081813150424329
54.80965042114258,1.0913009643554688,-0.6154772120978961,0.00868584032346752,-0.005318135635117835,-0.3784111113644065,-0.17179864225620672,-0.17953635982935356,-0.18803162802227066,0.17776089283008023,0.2245602617145242,-0.026690175123403423,0.0460512053705997,-0.4940771047404867,-0.18464000285896215,0.35720265215695923,-0.20948620588179134,0.012558832592601682,-0.13697366804451572,-0.40616442449160844,0.3191861253318035,-0.24531189490418517,-0.09049879845452521,-0.07163075054139782,-0.106839339105551,-0.11155688093059321,-0.2318571468761702,-0.014599475419709431,-0.03987383627184887,-0.007559485976713513,-0.0011251907493536883,-0.02879449137828818,0.07223585265493061,0.21252182584125331,0.30613887201250595,0.03136538429200058,-0.015269472346895683,0.07333112821606405,0.06811145640944527,0.32693333962669696,-0.3499581529488463,-0.2523424101979856,-0.08956686541518241,-0.18889246836848284,-0.006192751920342703,-0.0948703595842611,-0.30976919763434363,-0.09230762012392106,0.002391475424169301,-0.07098950787621026,0.10172273377041148,0.021165702623242813,-0.04972258498336569,-0.048626861614703254,-0.1142728028674806,-0.19902414051576467,-0.19105794525217873,0.026373753643207935,-0.18445089751949661,-0.013042454310364784,-0.305578871738461,0.28987581638812543,-0.06791652977481386,-0.32840511800160505,0.4892732306836167,0.8204636112667588,1.0530034424089691,-0.2997172544425945,-0.10158893090040486,0.5570241517088279,-0.6744119569301148,-0.18920536330062884,-0.47276916372747047,-0.14652796724666695,0.07276084831911026,0.429608884427607,-0.20978392703651666,-0.16936178410915637,1.3012928692232208,-0.25836975393909944,-0.32643471932756674,-0.23346278783006627,-0.1694593484314224,0.6766034569013145,0.18303070577577996,-0.02516509828829148,0.3437442691013619,0.052419864885028755,0.09386173181835399,0.12185604191871127,0.017331774952342074,0.21786328284598896,-0.048682558672197146,-0.047808336416825754,0.06254332510265606,-0.60990529920673,0.06713361049626339,0.10646761674974994,0.12127526568449769,0.47723609768740965,-0.6819724333413881,-0.007920967664364426
55.90095138549805,1.0809974670410156,-0.0280018621578165,0.3517762906756749,-0.04868711515006792,-0.013577469521061432,-0.09960067233139422,-0.32427972650449655,0.12690303637994638,0.2633782828756747,0.015020348030279358,-0.06205954429232899,0.15516589189803903,0.12529532842120022,0.03697984710644942,0.05897941001046134,-0.050239754425342086,0.20430499312221995,-0.1694744202207263,-0.12303162697095722,-0.05302072676437538,-0.04750356213885583,-0.01858775010266059,-0.037172336122150464,0.018157160049559716,-0.11221624681521128,-0.034265665429942416,-0.0721749203355684,-0.34014441027380743,-0.13890890613773893,0.02827449196292814,0.22208325859604966,0.024916280375421294,0.1319698611464865,-0.06840608326107324,-0.40760962855042654,0.053970033596385435,0.00848250326553771,-0.19435328970567922,-0.3667589815443804,-0.03752138889536064,0.17538324500155172,-0.03259863424916141,0.0710356139689508,-0.3780180475189284,0.02683056574526106,-0.09411085262666628,-0.00886565976364978,0.08690064989916328,0.29383228550838836,0.056532343854667017,0.3374340002501763,-0.24197609514485716,-0.27879735003378736,0.3202351236770923,-0.04227366067934912,-0.04764040780849124,0.2542295286509674,-0.051938592265650785,-0.14033485909736254,0.2325251829380742,0.3377677719105632,0.23185851079570682,-0.5412142473685366,0.40351759498568707,0.4485872030704739,-0.1712820979882268,-0.48736703543986987,-0.23927337800142068,0.6663425871881111,-0.08926114523582698,-0.23398809162156262,-0.538789145302478,-0.42133314177196896,0.911978092881969,0.17566447693534581,-0.6765316148711688,0.1116538251466635,-0.00832870679312446,0.27079441451617403,0.7237367909731179,0.1863410514235605,-0.16313274952640627,0.17914345959359892,-0.24672084739493658,-0.5001291296076368,0.1540768274095848,0.1768547985562758,0.142261015380514,-0.031267375447887866,0.2478758254203196,-0.0771573393100002,0.07352761333848905,0.11430609681025919,-0.252477078153315,-0.12025893876859634,0.09989583448386816,-0.23775928783112912,-0.1639178941843014,0.16204090137298638,-0.14617853362851768,-0.1808327003368599
56.98194885253906,1.1412010192871094,-0.17080132080144136,-0.05304600639048109,-0.3397407444297863,0.5377599351061468,0.001523545033761519,-0.023983980519684103,0.04444043132119925,0.2237302732589411,0.001491102106882779,-0.177349007701735,-0.1961362278803245,-0.25823713968177153,0.1089765362479461,0.3730135732988612,-0.017312524890908933,0.15922107898389898,-0.3750886490077727,0.28884483306265957,0.4198601554144751,-0.15519088744016865,-0.15898668876923916,-0.17757511143253452,-0.2946621206341154,0.3707036255884777,0.40120863726516837,0.1970400224458807,-0.22917008213778955,-0.01038349834256527,0.03570093470171995,-0.05703116368334572,-0.029945259559226306,0.10704676941521866,0.29405724563562985,-0.18251247778270507,0.04201506673826709,-0.1360168424964901,-0.0357818553606091,-0.2060914270460228,0.09912161276149878,-0.04414356231557874,-0.04067482733779457,-0.011591877468988222,0.22162669316133532,-0.28107958124483584,-0.42684512519720963,-0.08173798918078365,-0.027832542972513252,-0.00805644497469557,0.11783856676318799,-0.09983667360497002,0.2069835508571053,0.23548786229151591,0.0996967991924214,-0.22840951240470508,0.0791660326693205,0.1891771676382347,0.1053032595104122,-0.002990800259457542,0.030505531758533804,-0.16657697306282945,-0.028438140982326263,-0.12433294635530057,-0.2708411987242626,-0.11684066800152985,-0.7328558242165147,-0.4149028333416115,0.07988467896441187,0.29513920638012836,0.4744758060493877,-0.8822884757944357,-0.4468070196703981,0.7875716968355111,-0.30825604304287796,0.21632607746929908,0.33599477125827626,-0.33241011747078536,0.076305741602508,-0.10609037479502637,-0.25787018335807305,-0.30675814550475444,0.3579569397478757,-0.3043334069640914,-0.40649126402390323,-0.18279668670584842,0.18665844302413537,-0.4810875801163819,-0.3422710151860402,0.1007444245254257,-0.24822762616226623,-0.23594471651798055,0.0699254030681107,-0.035954075812375835,-0.06575709573450525,0.007182627913926126,-0.1706729185875267,-0.2655954534738296,-0.041517230836938146,-0.2683424905516067,0.3121593200485259,0.38697412715740864
58.12314987182617,1.0211982727050781,0.5331455245231764,-0.14566248696081008,-0.11928729705722342,-0.09767942318973001,-0.15108071695181735,0.00960759035882708,-0.45299472263036616,-0.33845465958600907,0.4978683255617401,0.166299847484447,0.08862540637553036,-0.08574850800383818,0.21439714986008296,0.22655025813201138,-0.1376043140151199,0.32935395264936196,0.6755893666828161,0.4056527645516774,-0.2633931992104997,-0.18026660746249443,0.016645155869415958,0.04039354652852112,0.025252671623521197,-0.055687110244957705,-0.03948294482776245,-0.019078258068584573,0.03104769600197091,0.05183203457150994,-0.21600591144633757,-0.261821793293787,0.11644664863599571,0.01215436507656439,0.14588146239202993,0.01609360432005505,0.0566339616001367,0.06917613462397476,0.1372228591749944,0.12153480874185532,-0.023972002121663907,0.047616156679659224,0.3163197164726239,-0.022771662855302126,0.006028350655626263,-0.09563754846747562,0.22008348663335478,0.09986501987192409,0.06579583305777544,0.2910495325763761,-0.10862305874378307,-0.11410548564336197,-0.17904778835296292,0.06027465796760293,0.04564812700036871,0.1843772677609949,0.0426597461942089,-0.5089939933476109,-0.6616800040851818,0.1697302200874743,-0.05673853630094922,-0.7377322457861035,0.31292761204843583,-0.328314162778727,-0.034807756893217495,-0.008123918709079837,-0.2636860343260117,0.24982842089487753,0.5686871574980294,-0.19489041559779383,-0.21913026632606486,0.017657432326348643,0.15943994894201663,0.26458200852214964,0.000881506457484223,-0.36134524199457885,0.23245110347107806,-0.12045775283734232,0.38516790253952815,0.031219607624700864,-0.1614024712690867,0.187204484127791,0.26446475659623153,-0.12839253241866458,-0.21764020025868408,0.301978099327483,0.03957096433388564,0.06290400200864739,0.037446297391912686,-0.45938204076406075,0.03381012589130617,0.14073208347520125,-0.24295402446722503,-0.23563587324172275,-0.0680136735450487,-0.07660991999126143,0.15643975896757187,-0.24403924215327438,-0.27790280527542566,0.20299001286413515,-0.09587062349932335,0.21702748217444212
59.14434814453125,1.0807037353515625,0.22819641576139077,-0.3619192338325212,-0.06084218231238516,-0.327854574400088,0.009974543175396268,-0.05020028775592916,-0.19007971666039764,0.02565214784229181,0.013684097746521802,0.1984947975127937,-0.03279577717509183,-0.1342911744949742,-0.06120515954384523,0.11928558364533681,-0.06949324727179455,0.22341502983143263,0.223192922090977,0.14022112792161073,0.15880595991052854,0.10808337310520202,-0.23480186653424526,-0.05448848265334082,-0.011482997957676766,-0.14837422708649692,0.2825744449834609,0.15369670381892148,0.12394558065064062,-0.12342888607293763,-0.004045694825996078,-0.20745898690030787,0.013125103187794668,0.25892390191972403,-0.03417759638636105,0.12694370547076725,0.06560558700920628,0.0036516336668609246,-0.011359471732205792,0.3010743515675934,0.14414196710941724,0.008863762444651813,-0.13690196245913255,-0.0540825669190635,-0.3212135490584921,-0.20529306787365803,0.10247112246174148,0.07054309119352048,-0.14557046493443815,-0.2586781907658408,0.001527290196442284,0.2914972864428653,0.19993955650880607,0.09744638075914212,0.12741645112444547,-0.18878939303209757,0.13697122682928164,-0.39066995294966733,0.1222627836461361,0.06454748427816087,-0.1940678822700832,0.7271276236306432,-0.27575099156544775,0.08693089928270897,-0.776091010301565,0.11581544556211176,0.534964072984128,-0.3635488039644208,0.04055261106218136,0.14478525947415502,-0.131489440870562,-0.12899759106353043,-0.17513431446561797,-0.6041961968556246,-0.4139734592892084,0.029749637823869284,-0.033859855143210514,0.47792628330941844,-0.20768567675368318,-0.4267462573797174,-0.3883753394022991,-0.007443975215967354,-0.040140133717157356,0.42202976590018804,0.05459618075517267,0.1056096100660392,-0.23170861074427596,0.0631749505400751,-0.2976159260628074,-0.04738894271482963,0.03055337524942269,0.062171834935600086,-0.09307788671721046,-0.025208235060695194,0.4252204213401648,-0.5599035491803552,-0.012059244061301513,0.13317038953544025,-0.23324954784727134,-0.5178686732832359,-0.12885041469757474,-0.44582014546588367
60.22505187988281,1.2115974426269531,-0.4328960296991638,0.37513290809619737,0.2044185029586994,0.10912645763618758,-0.4648179615124454,-0.10752824678602128,0.16243369904269228,-0.16924382135305233,0.24742878039773475,0.03168110619501893,0.018277476346410172,0.03712419670359137,0.07858429088125961,-0.3131057732487573,-0.14556595243525103,-0.6956623103666331,-0.020183344910266562,0.12796876351566408,-0.047968635881980894,0.052617358310948145,0.0016248003979513052,0.015483134006986445,-0.05813132790421512,-0.10417890817981401,0.1819236596269921,-0.19331591965785833,0.05030804989875398,-0.14387732550765336,0.12981060067981778,0.08478869284631142,-0.26983591431902215,-0.0386410053797183,-0.23276935559234627,0.11986908370049955,-0.19561434396561453,0.01087098967906808,0.03581230517771634,-1.8301038373982892e-05,0.08857405774418606,-0.059384139526354705,-0.3357283836410822,-0.11168019539253021,0.020328543519840186,0.24799249917169736,0.026859857956521706,-0.07249236899655118,0.08602677526893755,-0.0920707234889668,-0.2763252753191445,-0.040281222902581404,-0.05439091973415508,0.10926843874134577,0.21496298471175568,0.1617563095641045,0.07037633245985929,-0.1282150115102149,-0.12237070451478307,-0.11510488065861095,0.002253063856648632,0.22560213812395613,-0.11049635286098307,-0.03512304700351897,0.05623543762984456,0.008828792178278803,-0.5279186983681181,0.18582036806701227,0.12756047005452512,-0.051364710108376656,0.004972565014919633,0.3680327657972492,0.0027583231969522306,-0.15147897032248886,0.45335606099976844,0.26775295692837153,0.021376245439182318,0.1265025250979735,0.08497062285205835,0.17159545894778067,0.043662460893340055,0.13251038973638604,-0.11902050699995251,0.3902708269608263,0.03600590392017121,-0.5368457028957772,-0.4623922003833353,0.018134752803279426,-0.31779116238023797,-0.05219060007352966,-0.1770528139412425,0.19894631729595882,-0.1644859763307926,-0.1316746703275523,0.22518959114774562,-0.04483698374795907,-0.13850119342603062,-0.0644451998167016,0.11858087052951974,0.1731228354851187,-0.08207725567324438,-0.27327112111947627
61.436649322509766,1.0811996459960938,-0.4368712076178871,0.1877005715852451,0.19405862965384915,0.318247738475167,-0.18418605934892546,0.2847886640398063,-0.3511683847138027,-0.4988282027688662,0.46388802730077183,0.14467128001822133,0.013303980383239707,-0.2576304780081886,-0.0639462745358191,-0.026589741826274084,0.21707605646395473,-0.4261314065754623,-0.03880923337182307,0.34017067788223926,0.22870164704796084,0.05748434141126974,-0.07619614148018512,-0.052786633592743146,-0.09668819888993872,0.02038670998161828,-0.051796512053065166,-0.07551247165674124,0.27814646007039273,0.11391984328814099,0.09326893014591388,-0.03435179578342473,-0.039678157322192965,-0.06571960239077203,-0.15560985100519073,-0.04189156201003807,-0.023463405573103314,-0.15020119731391132,0.028337713543118814,0.1477712749993884,-0.050407509450185704,-0.019296675187702922,0.12787312717505062,0.02392759209076866,0.02802015617600706,-0.06881653172964095,0.23897440431636274,-0.22734623699890652,0.0018165948702879159,-0.03178749645989071,0.07842850489576089,-0.09579548431172964,-0.27143373653799646,0.012174399699383609,-0.08557735038883957,0.3989976396559865,0.04518835998464048,0.018970396363962316,0.26450773967644925,0.6149545349646321,0.23559992435253135,0.3700230337087089,-0.09739710921334557,-0.3074421833912372,0.28199650746899285,0.367046753611179,0.19653734626549185,0.6817566201962917,-0.06991360098093834,-0.11537587822736327,-0.012604508890485245,-0.3598854408806177,0.048390501729642654,-0.5774795804674056,-0.4257418681605147,-0.06557304829857159,0.02796905104552008,0.5019251742422509,-0.1955840449154382,0.04682955895209174,0.739511888591823,0.20082805046168878,-0.20269174207169743,0.19103836379001138,-0.14034153965681787,-0.09233208115531262,0.009745704393296415,-0.02163225036889671,-0.024177565537431812,0.37077818445957683,0.38692313417444457,0.11630652951037138,0.06355906956406486,-0.11285314421560722,-0.26098792275276245,0.06188289761441821,0.12984388446753461,-0.3756343628920474,0.009553888429773255,0.6038148346077562,0.11699195291268222,-0.11012871323451123
62.51784896850586,1.1713027954101562,-0.26972173694537693,0.2597387531940165,0.45619965946437013,-0.04488673423826476,0.05967650052568547,-0.1881688002849658,0.562814296144386,0.027375175315475904,0.09002530816805698,-0.13060288140228712,0.121835133837966,0.11917958992538322,0.2427574295280313,0.006083586092012427,-0.24833990571816214,0.00042210615556838586,0.13239278814457733,0.24839446424118164,-0.24222832720265625,0.13828538810813967,0.20951728563532102,0.10247025691415781,-0.1784093932478768,-0.06339494499278608,0.04771867539334334,-0.2227861016850459,0.05898678073012556,0.32060904039830274,0.10395418452411061,-0.08422425792786062,0.07128962493638118,-0.23062746677606594,0.04032719786040874,-0.0967545479112981,-0.035517104375506606,-0.2144465230614081,-0.10614204686415099,-0.07154259216529897,-0.13476441940877532,-0.16710610355198627,-0.11388973536046017,0.06824043249846796,-0.3473175559968279,0.006922664847291638,-0.08553173742925171,0.10294553227089044,0.05995636586280583,-0.2117530648980745,-0.10586273472661095,0.02847572481171318,0.05754510142072785,-0.04212729215539493,-0.09956642459536189,-0.15676357515713513,0.025558048297547934,0.03627806850857707,0.22353374959837383,0.23047758664002768,-0.19490932261142696,0.11926033723725697,-0.1299981689581098,-0.5955028729047013,-0.34791340894277495,0.31942874964559487,0.15149931383495174,-0.5965623344963186,-0.4537118772438071,0.2749682780672719,0.18097135302107306,0.6952701179087285,-0.22666410373374202,-0.0688727379113822,0.22276700792172463,-0.30703268727193306,0.13951724803550755,0.3852756178678423,-0.3162659958331993,-0.3652399182428513,0.17296970709931903,0.47072255119164463,-0.11860002480518433,0.6381928279643234,-0.15568969567802968,-0.21684309208477656,0.3672309461882177,0.535870200626669,-0.07095841393304525,0.04382026141109209,0.3565125217627801,0.14525439267384813,-0.1463491842727342,-0.049474469199736,-0.33375655367305607,0.24241610386363982,-0.17762410391854788,-0.2710868762923409,-0.11027386816651355,-0.5111686538987078,-0.011684433955831455,0.08495514049532665
63.689151763916016,1.2210960388183594,-0.04080109837029822,0.11674434749864104,0.18929247123861245,-0.37882664846239544,0.3498338196994566,-0.051652182445777656,0.05913465912706983,0.22876669777472175,0.097443973145099,0.18082819011263562,-0.03959397708857534,-0.3587692185181933,-0.29924843563367365,-0.1062548992564097,-0.026525016548551418,0.14128368537640915,-0.13216331252351649,-0.010847737611260011,-0.014178933718415873,0.22329471387115646,0.12722174863382643,-0.027620176884105008,-0.04685273256944885,0.08533615994849622,-0.15314827924280625,-0.23553930076380258,0.28339677705026245,-0.01692393630587657,0.01701707234289398,-0.016314524500624195,-0.011801730587323624,-0.04157816984726712,-0.0035879678120668695,0.08300138754759763,0.13451536906595393,0.028101319053490788,-0.052390233542976124,-0.16989392169315842,0.03550486397885657,0.45863068627453163,0.226968310829106,0.021334131745144248,-0.0054517248175099476,-0.2590675973346807,0.04020806098316712,0.21301038300074665,0.12569751676242802,0.0003562433006138094,0.14934812416073226,-0.19644092412719205,-0.11745719352312672,0.03977745107245706,0.15237437174892812,0.48134371293381534,0.0984006071227849,-0.052291818122779485,0.14265460300899263,0.19859643915185457,-0.07059960175025214,-0.029043277185979738,0.13579608135148113,-0.2148846828760278,0.2677720911933199,0.11490913783720891,0.041535382640755375,0.2794342461222276,0.3454048699043756,-0.07741810961200693,-0.037887646879839296,-0.0396621243084216,0.08008498340707935,-0.18124295309523414,0.23527277875590732,-0.042841432921487274,-0.3755678556187035,-0.003092238960458134,0.13873845495226061,-0.13769587142155923,-0.17444931438882536,-0.056932678979273656,0.07707070567156002,-0.11028605896887292,-0.2995588977527641,-0.09642323767577074,0.06230957848704978,0.06092228775286837,-0.18587905913265398,-0.006274354902420759,-0.03385688213043171,0.41115650670820425,0.20765825605553118,0.025461136935729767,0.16664210720139222,0.2799521645817479,-0.008129644336665538,-0.2238064725123129,-0.004343122217117526,-0.029866285749878832,-0.004200686460264266,-0.06748166439846799
64.91024780273438,1.1413040161132812,-0.07343466785219696,0.30208393826719826,0.25573691311994123,-0.2092364305618722,-0.33248347492893326,0.040493356319985005,-0.03549303215413894,-0.049257568449833436,0.0864811187098165,0.22349965189904256,0.18661710257608982,-0.10589347982494732,-0.1602066530199187,-0.26915248414051945,0.12971410336686048,0.061836051447736615,0.2636795447163959,-0.02273291836873574,-0.3120614836667768,-0.14063736841570176,-0.17006804937388567,-0.19501507360623713,-0.12133392775424187,-0.07717973615929848,-0.19867817761735748,0.015090182872673094,0.2885466402473828,-8.802223495978784e-05,0.007525004553149932,0.01211368358891457,-0.07649875170209539,0.016580444317815458,-0.04696835112418102,0.05627316835903417,-0.14221056108721988,0.06532897844911639,-0.0855145214535367,0.1284166302432483,0.008604498951260713,-0.09186264285059868,-0.1479942141441553,0.16014269629880615,0.10880401941149442,-0.1389489318734029,-0.02460158504531501,-0.08029647791690665,0.0018853275738587513,-0.05991399396342867,-0.09776094325759532,-0.015868231609711188,0.11771402203213978,-0.03300091514713742,-0.12211820687333515,0.15469262703621794,0.04149030725324446,-0.08201295475914457,0.08664982130393188,0.10891922317007936,-0.14049363708178497,0.07077950144499963,-0.10965195787502868,0.06926974568354548,-0.38540639459880155,-1.2717989859566599,0.395537256890645,0.26840687212570935,0.15694776573617777,-0.03655308980240059,0.0034897588515295057,-0.0995676020687727,-0.4396915848104446,-0.04562775926425537,0.4702325837352872,0.1584577536350522,0.12411810536846474,-0.3274127343368732,0.006936309222909868,0.028112668749296136,-0.29201462661582633,0.09862257439634167,-0.2724199541044737,-0.2667923757455218,-0.28624195097006366,0.12646070167517465,0.07905016186558436,0.03915128002071993,0.01188277440088275,0.14898507712952555,-0.4037010103440829,-0.20901837695284942,-0.2616869959216679,-0.542871293070514,0.5188016381756643,0.052026008581662335,-0.21513823003311258,0.06776772106217217,-0.047252424580933254,-0.20500281679123475,-0.2685308865646904,0.09276609407529099
66.05155181884766,1.2509994506835938,0.22705431697276274,0.07476760932876542,-0.10211298876277883,-0.17669559959114983,-0.025341756920040204,-0.0015154231715431307,0.0990666444853939,0.02866924916948656,-0.5510921750513854,-0.2859974453182492,0.0036138076950563715,0.15525728671545191,-0.1629960588255291,-0.09728025221219735,0.263047333640147,0.2236242600594833,0.04414523751805313,0.27099939561843983,-0.05137165599018623,0.23181179303742305,0.8083668540658612,0.575235213832452,-0.027372039539700188,0.15598888142208847,0.15093586619828275,-0.05125771078475155,0.35654284158209576,0.23470886131596935,0.049579389182938936,0.18611090887345688,-0.08387272325744438,-0.10659950117055488,-0.41221289197720934,-0.13398945883922866,0.036720085320399304,-0.0033750959545664153,0.25189718955299056,-0.24528660948968856,0.014657123718540853,0.2268806594282634,0.04683034579169901,-0.12580358440886227,-0.11283683766637892,-0.3422601695828044,-0.08712480466440872,0.13301371343459895,0.060193002736839696,0.03841738593027526,-0.11201613672977709,0.13284554550199723,0.09861589066993581,-0.05267861644157039,-0.28175222973538877,-0.2827517984198158,0.2778416840777538,-0.1060740888645237,0.12371809124815901,0.15687752264412863,-0.0905801560721448,-0.1454966099518826,0.04375738108630395,-0.2316356804420989,-0.5717515618044192,0.644135409326166,0.21572688301867254,-0.22029294245307934,0.189658411613863,0.14741306929105852,-0.4768395555288897,-0.7448605931919405,0.3890285342958891,0.6426195232111137,0.04837536595313288,-0.22343736948669837,0.007169056349369707,0.48107125797700684,0.4555073756488661,0.24472867786724528,-0.04421688321363659,0.15839003820779507,0.050301434456650945,-0.06660158248464755,0.031859502830100944,0.0044834229342396725,0.18767833275925483,-0.3831395587782177,-0.35381305795394025,0.08290394062824703,-0.5348631485534162,-0.44125990765328443,-0.15743802563564685,0.13090405533828905,-0.3392947738566127,-0.1024776532687108,0.20259291818090652,0.1039882237123641,0.09231917214731225,-0.1206964747975664,0.12287436894491266,0.3399281536333873
67.30255126953125,1.2212982177734375,0.3158261450604611,-0.6388391095957738,-0.25245794430636215,-0.42986130382637966,0.17427724288549268,0.09559951706079137,-0.7654772540610968,-0.7409820254857671,-0.21385067877989777,-0.07024605685287005,0.23758336875991362,0.15067963996139389,-0.0891410523873179,0.3797768030218553,0.13922276880478623,0.2013100020827541,0.0038605682095424615,-0.2975524571191561,-0.3138520429492765,0.16070692326441147,0.11828484633141477,0.06079448104262322,0.07134792624179874,0.08810618349041655,0.15848863320593978,-0.16873951228596856,-0.5434132184834847,-0.15032436391228735,0.06953737734458514,-0.03888694332955596,0.11652408989675433,0.13644965080610746,0.15344351022891228,0.2963860381798611,0.022664873075324138,0.08462139546979956,-0.07988692098588904,-0.21399703068336645,-0.01594256976235795,-0.08075810984096082,-0.27849906352424647,0.10793284512670932,0.09625459259154663,-0.28773323027254916,-0.058315110571218264,-0.2557215531537073,-0.06691411128385025,-0.12150953776531148,0.08572511619037808,-0.16903680719043782,0.13576657263732558,0.21210166640392894,0.252616343809888,-0.19844819322410312,-0.06303201395950905,-0.3543285680478233,0.019243490001194925,0.05566650840206738,-0.10794149376652606,-0.042940625100727284,0.206137134930374,0.7900557228958532,0.010916748862922543,-0.1873098836613969,-0.2800063881116314,0.7008778228359297,0.6662615506901454,1.0824350010533372,0.5982005873906193,0.005000122618199092,0.6612479104319686,0.42401386302291894,0.055688222852394643,0.016402589148700464,-0.056700339001058336,-0.24569517747074238,0.27762580147321986,-0.26944554392819414,-0.5335120510730895,0.22204219897734734,0.17769418105630916,0.4552669802839423,0.31752566812139177,-0.2366395558826383,-0.1509714134083684,-0.23724209686728687,0.26728526000496955,0.1418907824240958,0.13247521219271732,-0.08220390905008591,0.44907068926432636,0.8726489165351465,0.37193905103105707,-0.29802386505078254,-0.5293088647870137,-0.12145426951248556,-0.0827294734929093,-0.06307925514138342,0.38127161036311374,-0.09311477841855428
68.52384948730469,1.1915969848632812,-0.1195403905333762,-0.21946731746970097,-0.20386297255817507,-0.35659224709062276,0.004391807345770819,0.1843497577690612,0.378326028005455,0.14023197474406085,0.09662823300619047,-0.09316132515645817,-0.18126045274588695,-0.22188010357839574,0.04723621460918586,0.05309608880627942,0.07447965102068393,0.07652655252337005,-0.047232537126463206,0.01690931205959139,-0.23064150479090384,0.06389473715607943,0.15879198459406524,-0.05005189138877049,0.010529420189687388,-0.1691385165646151,-0.1076493627356592,-0.20105594818769176,-0.04757845699960145,-0.04172552814179075,-0.13011542895044523,-0.051422789567728375,-0.10721239776717933,-0.13848514429870337,0.2445841501217455,-0.04748325827368373,-0.18854765415981564,-0.14519292962994218,0.03851424156997986,0.16507240557711003,-0.1269095975677665,-0.04636966894746104,-0.14637053116493245,-0.33487429291965554,0.06281971506810963,0.2346694820928229,-0.30577480570763466,-0.19677225097871054,0.07384562747605589,-0.1740066037738529,0.16352563380733998,0.04387702440801143,-0.21649684649656611,-0.050567192503341823,0.10080311113899244,0.11088871242806395,0.004703522506627658,0.07373874889216396,-0.10823695952037901,-0.5033294917612945,-0.7233671420027884,-0.7065523605485464,-0.21182484945098048,0.014652475259030115,-0.08707848657504198,0.8671328462038127,0.4367623630404804,0.4990102475343124,-0.5303278073180229,-0.4976809224898053,-0.11199787129907174,0.37588099676765496,0.7804470965398275,0.14526275455779314,0.15371587539209514,0.4240499968768672,0.51469646482757,0.2114588388051578,-0.656862789933641,-0.28528380044778495,0.06918719229039114,0.11503672223494496,0.21777804598063433,0.17419485513897345,0.4117685779179518,0.05991535755269607,0.09164073552476765,0.300764786924144,-0.1591779986052246,0.2058682182498512,0.1088891736484322,-0.12340460835023107,0.03490809685540003,-0.012771800236672903,-0.24143209156949974,-0.47956342261785373,-0.06084082179574901,0.15971397468946222,0.5798262013867542,-0.1806614287870159,-0.02989646780993752,-0.24310857676036204
69.71544647216797,1.2011032104492188,-0.14567680926000842,-0.049630149230013125,-0.176292043819065,-0.41205314069345944,0.3221612742002849,0.29281266520773636,-0.14509916041435042,0.10358988874520526,0.19803106714309004,0.05713313835116153,-0.08511282231099153,-0.14346862917871134,-0.15335945580482416,-0.2503831594546182,-0.11130557657195497,0.04093351262127805,-0.02516322338348459,-0.006176522884365994,0.06035248637010357,-0.04241175874883396,0.19513138316702783,0.13150625596595036,-0.06433252008301929,-0.12144782502352776,0.005285683561784087,0.022434637544222494,-0.057194626885471445,0.040718955084927996,0.05004740158817602,0.03192781704634992,0.20820053647790385,0.10104334133582195,-0.00890182574352774,0.2757758593413832,0.02500998428466428,-0.07629483612510354,0.04284296349394938,0.12419634991911847,0.09623622849396421,-0.19268511200695834,-0.03807333408223424,-0.03188173390789536,-0.05122371080660028,0.16918968107244184,0.022724670889374323,-0.15962672380928494,-0.1143481180999571,0.21383905102468012,0.1864490105163387,-0.04600739389895163,0.020351796496167928,0.028377950944950155,0.18357364123374054,0.0014078568591653767,-0.04802287251201018,0.43606945028454985,0.21487905976402108,-0.37608035835564846,0.14094881200930306,0.10435778704695736,-0.3693245644412706,-0.2708020248902212,0.335228501414365,0.11869448203774263,-0.051081174942705976,0.01193827676543055,-0.24287339633209426,0.2003045783428481,0.38387505359655977,0.1625621399438278,0.04720762125490174,0.04173939797644543,-0.07521335118074843,-0.6273615655849707,0.31729886175555866,-0.09402730957238856,-0.5136323830326381,0.4189461391138186,0.11695817340903229,0.37487657963420035,0.5156869136068281,0.29781498394864503,0.33012887481872,-0.17079975393694116,-0.1168031018123878,-0.03592887406196595,0.12594412446534167,0.09422046337641132,0.07459603763716723,-0.19368954450444806,0.3306715456450215,0.027338814094727992,-0.5049468730746002,-0.2240054565258216,0.037718757316275414,0.059258645820659636,0.104926298840747,-0.19874939827233729,0.14382289935725726,-0.13752205970168466
70.91654968261719,1.2715988159179688,-0.1729157114181963,0.04424220964324664,-0.15114384926866334,-0.487582263317482,-0.18116416827179496,0.2112083313867263,0.004787188535655351,-0.07585501356990526,0.24422909404434368,-0.5152695939498018,0.07979212780092707,0.1066001375129351,-0.02724380091420915,-0.3555184049122694,0.04188025583369946,0.20443005963670785,-0.20706321886668594,0.03022442665608873,0.11527123437870115,0.2727864947753526,0.01473599433894969,-0.10851688349468898,0.18952158143865522,-0.3559693956856049,-0.16710692496755136,0.32023251922637375,0.12303424163385006,0.011321118467445533,-0.12581286708854691,0.09775520996964707,0.2502670404337938,-0.0447300190480263,-0.25526966957935093,-0.052163698661408825,-0.027484006685734794,-0.01180641578248196,0.018790246701285648,-0.03764007211650043,-0.08230972134931241,-0.18770666183756637,-0.17709560495521978,-0.13164213920158654,-0.4329976587039722,-0.30749243205707594,-0.21701963027710447,-0.026126196279337974,0.21309165942751285,0.20266839538840747,0.0887458894678473,-0.17356716834360025,0.023788700537003143,0.010173157342473805,0.06224447239775738,-0.15345702082726737,0.09159724756871009,-0.2653687666992981,0.1252662610166581,0.3963675747020022,-0.0708980926806326,0.246645262509249,0.17783500751508682,-0.10085537506351801,0.19822583173602118,0.21866844432753996,0.048360903653606235,-0.031474706484284236,0.27676754054113994,0.2133608376043325,-0.22269161669328658,-0.03834396018253921,0.2573389697660428,0.12822256964901324,-0.2698329217884813,-0.40304181811871365,-0.017796765144571007,-0.19298486254945152,-0.2921246934723927,0.21691406874231473,0.6736163597706368,0.31154778778896214,0.14693009105135843,0.20993213078725673,-0.3746783250862108,-0.17343054597550056,-0.3181210929374245,-0.7062404008926714,-0.002871421624045377,-0.17078253789639355,0.00454688810717839,0.0167248101698571,0.2707395191216518,0.19725155271664976,-0.43607300011280326,-0.8641355334381655,-0.17344137770208046,0.5000609053395222,0.2697178587367576,0.23609800929092511,-0.14514619983711885,0.10403783220431118
72.18814849853516,1.221099853515625,0.29419984629983414,-0.1164540760220184,-0.8294411559124946,-0.2771959111109868,0.17797456032366726,0.08519051891278662,-0.018411291315212793,0.017353574994681015,0.1482867114797789,0.1304119151670085,0.004989793052129137,-0.10453781188137609,-0.060201434589379,-0.19475527725130934,-0.1208825117364448,0.14694029607079034,-0.06746601603569567,-0.2131020427770681,0.03866863401461541,0.05998137846130698,0.25373042808362395,0.10426282904110656,-0.024715244054066457,0.11210755750104646,0.0025547607888803912,-0.16072057651817326,0.07791248695752742,-0.108218053626526,-0.1581267218542702,-0.11376514301204087,-0.028744845279028805,0.05406562149522007,0.027322647861423483,-0.3155993147868878,-0.1860639691634774,-0.24249535257684127,0.1487934343989411,-0.12262238816405534,0.1147073235406088,-0.06818859966897285,0.34942553045710373,0.1423804521944369,-0.3991162474419828,-0.2132976302247985,0.1539305481431308,0.0477602855089934,0.14070968226293376,-0.04028941152264581,0.2936262893185015,0.15380947824087976,0.04280737985651097,-0.03853437320307526,-0.18831219092605617,-0.11500407559285453,0.032990435111344536,0.002444238148970504,-0.17812868875432994,-0.3513295728153245,-0.2210320704921517,-0.2690379876858075,0.5413634115916407,0.46715092177794754,0.24218837589282438,0.3594212599427861,0.3444740511449212,0.25075553744045276,0.019313086556734107,0.5586490405845759,0.3052404352588546,-0.09612682886705702,-0.43535511749268807,-0.4323633616945809,-0.08261922349493377,0.24077956467891196,0.07354819055775255,0.19238306031448216,0.14243270913009173,-0.1640423957287237,-0.30062607007504333,-0.37790690977237673,0.14155737987778566,0.19613893461496903,-0.15827114495945796,-0.043107111735487126,0.1242440393459337,0.45037802685872336,0.1281064074707282,-0.16922030893226675,0.12610967721364172,0.3082514016662177,0.32077628847593226,0.33479570641135353,0.05292240372998413,0.34242911123427544,0.07303857801694943,-0.09752926488326988,-0.23803852087577398,-0.08066492569440739,0.17435512302723166,-0.06916305064010614
73.40924835205078,1.2113037109375,0.06425326458522376,0.18157636900377722,0.11451562190768656,-0.08972255382393676,-0.07895769184743637,-0.27877894165390205,0.021985662719964445,-0.1548075934421676,0.1126950120289206,-0.006831860285315654,0.08175100451413247,-0.18454115644456895,-0.20716435789566784,-0.1740625319014864,-0.008455526327447607,-0.09662101598047634,0.057094501289837264,-0.13795820034324707,0.06608948071273717,0.42320504536267645,0.13861315604774077,0.2145025589834578,0.016362637287880503,-0.02943092652900321,-0.07490090505594908,-0.1768088695785951,0.04375497787181325,-0.014051296151904558,-0.03403007553760737,-0.2271134330579424,0.18190206975415033,0.07452406930600644,0.1395151579907918,-0.11160258469822147,-0.13804324667807427,-0.11199980618130136,0.1739316603021774,0.09260396395083313,-0.17359257253400054,0.21459704205568927,0.13215454481159006,-0.1768066673563857,-0.08699494533506426,-0.12050668447807136,-0.36082174175948256,0.1690570555083303,0.012267645769271161,-0.1316465072519801,0.27817269501188113,-0.2604759316444326,-0.08979405832719406,0.06102678616953722,-0.05975071096230704,-0.17661007493861547,0.021241667123117865,0.01696563881468683,0.049534887057464484,0.16804255588457942,0.1393898604232685,-0.0388910178142736,-0.3920369702618217,-0.5327626236210199,-0.30261773357282784,0.15401735391539964,0.8515235193493822,-0.06110047733276541,0.14096246003749785,0.30676444410253967,-0.4214662433164639,-0.9010121334113522,-0.7703310547787254,-0.1289563982383613,0.04761598430251025,0.44234997710144697,-0.2021608394822116,-0.5993458421272689,-0.04645257692095263,-0.12007950832038565,-0.006416832499439135,0.6525202639152619,-0.038784597315569505,0.1762498805615142,0.43855401479910544,-0.204355329828296,-0.21925875811899578,-0.4774723026533193,0.15528965553002946,0.10187383452558543,0.09426460806823772,0.14479270846532896,-0.01603712188981732,-0.470381468550153,0.011385118934815475,0.07467939772186763,0.22760291426055448,-0.5724998750895745,-0.1556639929254238,-0.09377773109319082,-0.09309752067990479,-0.17002130483855799
74.62055206298828,1.1912002563476562,-0.19263050132996912,0.08674018915355772,-0.07207378594514954,-0.4979962372176741,-0.2452730972981192,-0.11107682731506308,-0.17447188989158227,-0.22362329967533334,-0.5347529359673683,0.08655296029963576,0.01727275250788576,0.2851788626247531,0.14655163754354278,0.04242469354772298,0.11119845080932864,-0.19250380812069925,-0.25445911020581097,-0.09227754408080469,-0.0491680999241685,-0.018395151686881914,0.058417487882899174,0.08102236718087638,0.18803432579127471,0.013003339579566106,0.0758591887538978,-0.1376268979880101,-0.13425281714552859,-0.10025437706806045,-0.1368676389466494,0.04192296826138846,-0.008064782160089698,-0.05445385406989012,-0.014922870090729264,-0.079677331375278,-0.006961649925565448,-0.12095717616414192,-0.17785974934519191,-0.04604990416652714,-0.08714481111406501,-0.0591329317435911,0.28685251223287606,0.1564370610005043,-0.1455347778326682,-0.0046364982542700375,-0.21936207632453542,0.061580884506076655,-0.08127500124464612,-0.11876298278695376,-0.1240286704518417,0.12563957525354513,0.06726189881329307,0.06142866012522524,-0.1678102934269212,0.1221362484739309,-0.03928398316564699,-0.06575597221693816,0.06517554196682211,-0.08061289933867644,0.10974125444622776,0.4530748201918145,-0.13599665763951607,-0.2476279526303159,0.19276695797557852,-0.3703610650159976,0.1402351808720515,0.7740875566450969,0.19267394110530084,0.3337755016164907,0.4259295025521732,-0.06648221347281608,0.042815253932143846,0.038348846244899364,-0.07468968872656233,0.10444525521151599,0.14933046067078692,-0.3500031498585295,-0.38314769805119137,-0.25185941980895665,0.12474251307920524,0.1801556793220547,-0.08902218571972044,-0.5725644529454142,0.14355612796363054,-0.16617383734577593,-0.07875619981262891,0.06841423467861735,-0.20649953141831218,-0.4842282288064939,-0.38128146635666366,0.005223015100244534,0.07619974598939559,-0.18583351718999783,0.051961037756761363,-0.48281935404179926,0.19136902473138795,-0.11501114773770223,0.28013973156551847,-0.28844547941643783,0.05568079288002845,0.060614912413995144
75.81175231933594,1.331298828125,0.06599716204296034,0.16888500094741957,-0.4145445796948846,0.3108424277304815,-0.10498884227931624,0.045944830744554216,-0.08366920036274507,-0.32208250088919554,-0.10153289374149056,0.05352340640440321,0.0656899885869722,0.06806238859391732,-0.11305651035209553,-0.08893066649594748,-0.05090086275438496,-0.032198676695633824,0.17159450664083128,-0.3472057157578683,0.224519632146239,0.008037211030819131,0.31514655271203296,0.1743639799861964,-0.348268890313041,0.15363309993487428,0.13064004745665586,-0.16915915644680082,-0.011441006035033284,0.076759169656441,0.08830125737324819,0.11441770852510359,-0.19545679936749405,-0.2531336522519045,0.0556633354389094,0.023774483349901166,-0.05882138298763679,-0.13137545703078993,0.11859111313579332,0.3042401870063849,0.17252685906292115,0.23334440107577095,0.27734398517492925,-0.08361886581756339,0.20103734957108224,0.24425360151198022,0.09125930950484244,-0.11283660379398235,0.045412497935380894,0.29196656751726546,0.12235687278732336,-0.06717511319468993,0.03640544877371725,0.15065764307761795,0.3933938033084138,-0.05969688905017553,0.05486933420055652,0.31058943700226915,0.3291481576017083,-0.21606176136772418,-0.246016899010209,0.34527220789397084,0.6481674778113091,-0.6093326155105427,-0.1155336989774798,-0.2336174616130824,-0.47733620725580694,0.03942030500214527,-0.027092299682917122,0.2072447181577894,-0.47948019248581447,-0.1018868276009742,0.04897345219580318,-0.06836775615004191,-0.0009327752663514377,0.12206566390179086,0.25263529162697856,-0.07909875915912412,-0.025701531785667493,0.0860896105652179,-0.24675810978159488,-0.22355520844825721,0.4050041652539656,0.2516448651560585,-0.3832315221265708,-0.7149655982042918,-0.1427793793233108,0.1377629942906948,-0.28786347485726654,-0.16411504899310903,0.19995053189258588,0.0038388501384614424,0.12834239702085895,-0.14703162028894126,-0.1557936990233672,0.03424019027703078,0.1413911697362957,-0.07986276747301116,-0.005442901945363563,0.061563076827508445,0.015891229293152218,-0.006414941620647929
77.14305114746094,1.21099853515625,0.14667369168895772,0.30818580295631054,0.06927528321524483,0.17082079570380337,0.4111168550210706,0.20460431240348836,0.5140107478614175,0.34192468711797463,-0.06892252282361544,-0.24663691643595254,0.016823955927825006,0.07583107062167402,0.08597799224479644,0.034634872751742325,-0.35205889751153513,-0.12312276211244008,-0.04450223194389755,0.02874950947666022,-0.02964671070099016,0.02719149000760151,-0.0744091981593837,-0.386194012315642,-0.718192227953075,-0.07118099327689931,0.041250561965406135,0.30790706280808,-0.20761677423702887,-0.07814632294291426,0.21149933000522164,0.01208685403640446,0.32462261054391844,-0.018719236586928468,-0.1442758487517844,0.043865603613991756,-0.12280631846240886,-0.02859412969838611,-0.29148616107266523,-0.12008511324072976,0.05492337111851168,0.13910634234513183,0.04027496841856553,0.005588517156091552,-0.050357303863411626,-0.1298253299122203,0.04196023966984067,-0.02468653789873687,-0.16455140414926656,0.23463609218244308,-0.05031642456054721,0.07384599289539517,-0.06551506007526771,-0.2494819448251276,-0.11888310520801629,-0.0362401709634875,0.26416629317167084,0.07047031152523416,0.1474032029563632,-0.10124383528376316,-0.1659762251445359,0.21020689987526384,0.0980580407854837,0.07398702670435273,0.09522840996099939,-0.04064980620182723,0.1576687976336168,0.22750860377085927,0.45671952776045466,0.36619155707799406,-0.2015758538052509,-0.17302776764928007,0.27493086589978766,0.006724230936708379,-0.3520506872381056,0.05237536703261195,0.2958439992077702,0.24810301719427247,0.36487582585563083,0.06785835666126726,0.3524958110993445,0.042152603762105195,-0.13029850107470634,-0.1375640911146131,-0.3241000442587992,-0.33988480529217624,0.35133072451207675,0.6230181939534584,0.4113179253312872,0.1231878022923083,0.03344128915635617,-0.039865031531996595,-0.00879339347356728,-0.014203104683903511,-0.2206601923972858,-0.26692075764145895,0.020132851746055898,0.09468360110005859,-0.15509483577402133,-0.01140008146930772,0.13539539383534757,0.5927572458284946
78.35404968261719,1.2014999389648438,0.4942731137639874,0.6879826528572427,-0.12473442496142595,0.013438832739190167,0.12339331008705642,-0.08027596531675293,0.39852631580340386,0.2634996623474393,0.4690152817628409,0.4665358279043441,0.3000321845669913,0.31909666700736267,0.018249733228597367,-0.11024182080434569,-0.038414081776982176,0.15834090792662753,-0.06798727898506095,-0.19629570425510195,-0.01376261143228625,0.17570870134057245,-0.07865407245115122,-0.02969975387630743,-0.09047662895900571,0.007637376710517457,0.17937358607195483,-0.03620974609419886,-0.21163690985070233,0.09029193616435166,0.06845819563281251,-0.16843347931713915,0.032523433334806805,0.010643848347244706,-0.0006489860200415143,-0.06327048073935686,0.13572232529015818,-0.10426143771902706,0.014381032534969904,0.08183474758302212,0.05348065679275044,-0.1503531038100832,-0.24333197605163528,0.1442946198723305,-0.013450818234956743,-0.0228610915250397,0.10518102470670823,0.022330276781606314,0.23704477728519058,0.3661916994587869,-0.007504768273134031,0.16996446949402522,-0.08913621812458167,-0.15520750550579554,0.057252472701365714,0.058988206511455706,-0.003809125274736067,-0.11767561872655294,-0.05193324966413486,0.19645322462358136,0.0017384953335765757,-0.22423026032287666,-0.3267216419984996,0.06071722135521772,0.07110846544922418,-0.4061618745324298,0.23350811359723134,0.07845033016695223,-0.2793530223995243,-0.8611538807332509,-1.2246980845804478,-0.23936803855572297,-0.2042814416195779,-0.08250634035341534,-0.08872134439800242,0.06412140093074521,-0.0078393555719838,-0.08055225676254414,-0.08802411051950915,0.5432727388953487,0.27561134536577236,-0.14409913229478982,-0.19903332601078716,-0.11962667160684316,-0.2412205396356693,0.019428561899888133,0.030515564257669048,0.09870816218943396,0.16017434651570753,-0.05070466434044375,-0.09466827420716097,-0.22570014784005,-0.08151027957225851,0.07338629975428829,0.0019640608103481012,0.37790537121637996,0.32459257877491954,0.07795899436846426,0.17190891657429005,0.4106900376908429,-0.389553667771399,-0.824886131643543
79.55554962158203,1.2415008544921875,-0.807670318600101,-0.3068506789535146,0.015450102997800252,-0.19419116660621927,0.355056952734815,0.3027262192769702,-0.031145941246236514,0.2733285597323286,-0.473740600066912,-0.8755822243866371,-0.2941726359767789,0.4304383046356054,0.5464180959554622,-0.10137158255418843,-0.5388300206925709,-0.03576037481853854,0.5582068922598835,-0.017669227958611037,-0.14199327114720162,0.017832055879414915,0.06499238871267052,-0.0683182838555251,-0.27513510324564955,-0.03510809877511252,0.08763547693347307,0.1279251758531153,-0.0892377956822525,0.001334504155494398,0.00043454392579806984,-0.01720974315010166,-0.006713114223662306,-0.20809732598670613,-0.13718436376199128,0.0014569417268047017,-0.12710768032100137,0.10733329178563164,-0.019805441919168297,-0.21224327741021412,0.037439297404779914,0.178427764520063,0.058191241953218835,-0.24229891683725063,-0.18555417416154435,-0.16295676590449798,-0.03408948897332358,0.039622863075539624,-0.2748716221052422,0.0013126368418288625,0.12550699221630696,0.2358524212482912,0.001657240386325573,-0.02010153229461299,0.04591388022854188,0.18213047718696582,0.1328029689390601,-0.058021840004779036,0.04556910901364182,-0.19206302125584007,-0.12955136943700546,-0.18010382421227947,0.07392727669287322,-0.27297962705398476,-0.3738061497015473,0.10832082467458952,-0.05246774366628108,0.05437858066417367,-0.03888194436636318,0.19953771131028733,-0.13174774782218845,-0.16293077737360823,-0.26732410374993726,-0.2885571913064882,0.18552172951865867,-0.08186764163423066,-0.02353699023148634,-0.5221712981680876,-0.6391024873174505,0.23635364824562624,0.1482062650807976,-0.26981257142508697,-0.223749023814549,0.05045189693297973,-0.09856305012453043,-0.5458964829037287,-0.552470289373329,0.05747137357480704,0.09761683384117813,0.3104862262283952,0.1137846925928277,0.1866212925235639,-0.12718144022536174,0.14990744547095278,0.03047585856037653,-0.0296961310653351,-0.1513294456901146,-0.13654501976655437,-0.07038271140051619,0.35720867387906785,0.4757960067140041,0.4014682495882135
80.79705047607422,1.1809005737304688,0.4208456950502847,0.019938367385547263,-0.08576483141551307,-0.3007312928831333,-0.37464176081318046,-0.035591004997823736,0.017632627624526456,-0.11533573708214809,0.0841940673595088,0.13381765562375356,-0.06659312221449465,-0.022386520699683318,0.04241986446561242,-0.056210363252773184,0.07602582847375151,-0.14399285263310196,0.14764580781386338,-0.18925354180390866,0.24537085182752588,0.05386994283354368,0.16396612878332834,-0.10728274588314404,0.03773786490775759,-0.1004903427427166,0.04888692488784754,0.03329634480119198,0.061632998533763216,0.06455753938795436,0.11647443111186136,0.030748297910498264,-0.24056710069213158,-0.09178298098385762,-0.014838207243296334,-0.053447724247151406,-0.043696185194109984,0.011525742481688632,-0.23156291967156384,0.20994065033404344,0.007885220064379217,0.0859514130920213,-0.06724459361753062,0.03980890366589841,-0.16779053966245017,0.23107006309588668,-0.1276301171490491,-0.1648801198924191,-0.02113973239969746,0.03875405300542518,-0.07111127762666879,-0.09231082281344835,0.026196297942269,0.037439356489869124,-0.03607864207460658,0.08948511470193032,-0.16184826969262708,-0.5294103518716796,0.21893963841541778,0.16299529725182288,-0.20654789834991122,-0.23996981050546334,-0.0540010918849706,0.07711847869570988,0.2616806921293482,0.6035224994099633,0.1928467780358274,0.15716925705407508,-0.21193132644889737,0.040587585329224254,0.2266506459346129,0.11371479499806235,0.10374480061329189,-0.20582793331597615,-0.14981536119249378,0.13457968878456977,-0.2461905156017354,-0.6589579745349269,0.09867822161801318,0.21407076328024902,-0.1537467738178444,-0.22522693970597718,-0.25424689019446495,0.11150857957467444,0.1829967396440151,0.08568836646004772,-0.006088083308048123,-0.23197433104703552,0.13207043553244296,-0.026795390097038047,-0.024563770796140152,-0.44700637275835803,-0.25750430309120614,0.26668004586655886,0.08409493792063909,0.26333790917630284,0.05961826511427802,-0.1327378559429701,0.4041251985994301,0.48238560641326667,0.2687038219276194,-0.006127804655743099
81.97795104980469,1.2615966796875,-0.007740415624024145,0.020174881946752155,-0.01326912302519398,0.08330210437044418,0.09875988963676993,0.2944633896544935,0.0021991129305238,-0.34070968947017,-0.021001524628374166,0.2926367468994747,-0.005170040578647034,0.11447335664867563,0.04728684359922138,0.07894389500044768,0.19728409575589684,-0.17701023516621667,-0.007448673742502641,0.016568763782056996,0.033850256783342345,0.2089176680208934,0.05261848648114389,0.07636160682635103,0.09466625068280554,0.05408417257356437,0.16596393700524714,0.03959436409163543,0.07081812679774513,0.018314301501574093,0.07549976386657792,-0.0028747323369362125,0.0925743315188711,-0.00908554642165206,0.09565719678974041,0.009292982716062062,0.017058952638986574,0.09566705511485497,0.08701246182414736,-0.01878377637437048,-0.0354461707913128,-0.11464826779131142,0.0043634494119171585,-0.07944115171100115,-0.09646776835985518,-0.19792587610889908,-0.13335327413211034,0.050000872303989544,0.237077724194893,-0.3074499527123035,-0.1657192358427087,0.00892267206969785,-0.0273471007678818,0.11951210231917793,-0.16575378377906644,-0.0022984797223572955,0.0856410742234441,0.08815119561073302,0.11234046149857738,-0.29803448513901126,-0.15853081947817876,-0.10963361837564485,0.21476228004959086,0.06541965746536019,0.13842357873874644,0.1594188367572505,0.09747754014119142,-0.08513318542802634,-0.4530129395883884,-0.12045553175138937,0.17517359842631816,-0.18150601547764778,-0.11219722293848525,-0.026034602308738844,0.05055009520289486,0.18585270822212888,-0.5439348208022897,-0.005263461479488946,0.0416169105693964,-0.37838730158127665,-0.05134447704129607,-0.07082369760154678,0.046252072652858967,-0.0032279982795756675,-0.08153696339577451,-0.04630771647051165,0.21824038316104266,0.07176468468604517,-0.33165209641420945,-0.09517026582332075,0.07262615620435181,0.008365772486690386,-0.02188938287404142,0.05482277744030033,-0.018378651528439593,-0.0005331147398471907,0.06014210474032075,0.007975531115727685,0.008877738809882643,-0.31219493286863903,0.22494256025485712,0.32095652657823637
83.23954772949219,1.2813034057617188,0.197571699381544,-0.2534371398605672,-0.1149401138892247,0.4067206777632884,0.06785952860465053,-0.060303334948948746,-0.0273550747750955,-0.27414270963197906,-0.06660681528165058,0.023808354733945346,-0.0934299816247143,-0.17824593458468474,0.1287612773550738,0.3381408589719752,0.14049580729330807,-0.14370486857980905,0.06722530343890565,0.1989716112955397,-0.06872736397255191,0.0940099336636076,0.14045428633233042,-0.07547891900453439,-0.2007953558751207,0.09711297099178771,0.024895089264780235,0.1350926794374499,0.12072266902903317,-0.20099598657519563,0.19981690624632328,-0.03007987893663565,-0.1664450790100708,0.049333841296011746,0.04630796871482211,-0.011238474711920483,-0.04890788816084071,-0.055662404715670806,0.13834417088506884,0.25480678633265424,0.12034281373460633,-0.3068433592854167,-0.2658297801505083,0.023185662918209116,0.08637215461021458,-0.06304585826097847,-0.06481384733056371,0.014471953714264168,-0.03126965747658182,-0.14421845500845312,-0.01023332529869357,0.09316984828623996,-0.27013138923858354,-0.01439483885158506,0.002566145811818788,-0.06817940222835803,-0.376116405977154,0.12918829173809482,0.05389045389873008,-0.06846009481052963,-0.04531231527411607,0.01559416897161212,0.18145169141225057,0.012104653341325156,-0.48728680903698135,0.0037937972814647072,-0.10626928516725487,0.20613475247653168,0.4735610764709872,0.23084170080642097,0.07997724948338583,0.24385451411468592,0.17654927612460677,0.08480721613609797,-0.2835978122796443,0.13824812897752586,0.19513977019876552,-0.026303310904870963,-0.4604603474340316,-0.1754510820377151,0.3157156028276262,0.27116689924693416,0.15414001679274986,0.1278350728260015,-0.045801794431878956,0.017302435921597185,-0.27485413907354145,-0.03789960152939001,0.24057564608249407,0.2864831575917537,-0.053319693286553504,-0.19151728086572634,-0.18620264827391209,-0.11609101167902389,0.17621618799783406,0.0500530519822682,-0.04039087926333508,0.07833226074350914,-0.03988732843275852,-0.27011775736888266,-0.1108203704613139,-0.0007156864477298507
84.5208511352539,1.27130126953125,0.14298123392892365,0.1515346075942543,0.08994159085380285,0.0444766510648603,-0.28949156118415986,-0.27121499836075474,0.08086427393603979,0.005617099109776341,-0.29244830350544854,0.18054777771015446,-0.03805563594032994,-0.2189516872727763,0.0821945583811247,0.0680874117507794,-0.13828492831239786,-0.21805077937063674,0.05187319507285291,0.3113751564011622,0.26742748395440874,0.12163265086881853,-0.1552326586944882,-0.11912912357633183,-0.27722768764398914,0.11891662939997902,-0.16360837484213492,-0.236833707865581,0.07730835541622597,0.005736131038786848,-0.07956199012039446,-0.14740364877700118,-0.17917298772948384,-0.06505864123863218,0.0007272408916768787,0.19374221322792495,-0.10220414128285922,-0.2154149665530175,0.13714095569369245,0.12778149503894015,-0.013074067843068094,-0.10363836008271604,0.06830866171126815,-0.047453669219827105,-0.03652910172061067,-0.1831145548648548,-0.0005757796894458843,-0.07918963355784381,-0.0508094486288775,-0.06745662144410965,0.26726702227578625,-0.03897511439079995,-0.03143239039417295,0.01259971033855653,0.277919510741467,0.09517871798658464,-0.1827390655086912,-0.025850581629118005,-0.1369552141026388,-0.10264450304627575,-0.09520316750499301,-0.09652401000570598,0.14948933686066979,0.11818842428258941,0.3620348360716363,0.1376398155313888,0.39731813615429795,0.4032523922423502,-0.2595552210154472,-0.27060521453325426,-0.050295760852867244,0.3885021890547852,0.0018449353122099565,-0.3621659611928513,-0.07205624339381037,0.32348825266269954,0.3218722364939292,0.34100914227467594,0.0877458281737221,-0.4052736326603054,-0.2462416030330694,0.06396934846460492,-0.12498389021610956,0.09774508780438051,0.22707758200421269,-0.1699102602725739,0.04348593138830256,-0.032937046423185276,-0.1941433824324778,-0.3208230612090021,-0.029525620843702582,0.011421752725161815,0.01659693236525081,-0.09925188682889502,0.08643721105343423,0.11035397727518106,0.08569433133791844,-0.0037413482256867248,0.0011000993194017067,-0.05138828378539878,0.00660962521150402,0.26120141215643045
85.79215240478516,1.2014007568359375,0.2620027399966004,0.08352540678100775,0.0720262071958952,0.3226237935096699,-0.12089699901289509,0.042447017197532216,0.08429119794542128,-0.08974879767675588,-0.2860476595433298,-0.06194652569562811,-0.045928003229671256,-0.03825527505855894,0.38265905667907374,0.33897905028033326,-0.47124442442412606,-0.13813048385885648,0.06303603924191675,-0.056183169545095765,-0.03012967757490641,0.10027550999545055,0.14836059868813714,-0.20421702064803054,-0.28777487099968385,-0.07550914057744926,-0.015689331061191546,-0.09663038622231782,0.0827256250511985,-0.05035170075661544,-0.07095300700452545,0.015098889775112236,-0.18921228600860923,0.030599319826830108,-0.030382933987907455,0.019704939454331986,0.02725906886512608,0.13696748757819213,-0.015896767790323424,0.1703029756001383,0.11269645432784121,-0.044141112716264246,-0.07019434148812573,-0.23002323349756668,-0.08486376361186805,0.0052995556091023945,0.10811398291907463,0.06707128765757853,0.1356864418180525,-0.09340569441618825,0.08411436711266505,-0.13835179883140228,-0.19023448833028775,-0.033313593229999515,-0.12254742874421873,0.06439755125249925,0.1790108109429155,-0.025869417651615573,-0.2575203758232015,-0.01040966951153986,0.13416767906920318,-0.026207499734280486,-0.01928542135322392,0.36578278101717776,0.1604757951659812,0.047656185544974125,-0.11375040137075479,-0.2847770001012157,-0.4543666471751373,-0.059092283398463945,0.6318245130608865,0.10832852012311983,0.0658945981660769,0.27110456258263854,0.31422179182532617,-0.23103360222346703,-0.12152433900528622,0.30374962906411057,0.3002079963987759,0.03963269122067463,0.12771961475066104,0.23158099279599118,0.1694774690612478,0.3278984208530589,0.066261474432252,0.13574694393057876,-0.14524582608415504,-0.13581177787793114,-0.06683077857194177,0.1996645540874935,-0.021486357921767188,0.043726140403661726,-0.10852406696881638,-0.0844286889398348,0.022261936597747695,-0.03846661303206923,-0.22117486995825408,0.23687987501547886,-0.05199313682413613,-0.10669307223304862,0.03589964527897888,0.1264143422731897
86.9935531616211,1.37139892578125,0.11257213502780496,0.25169153546398326,0.020406766078143644,0.36702779289797927,0.4407207428515718,-0.024329991424929562,0.0052408148023751705,-0.4568316903814864,-0.500736377678147,0.12530082592620997,0.009116201586010104,-0.38588750924861254,-0.34780949854935334,0.09961581557566969,0.10081750561040044,0.035067421249616586,-0.05761515785581612,0.013640827288976863,-0.21910628271368462,0.18323808681639922,0.34155491112789355,-0.10468197053281945,0.128683139729831,0.1941749159674323,-0.019882067702961054,0.231374932681913,0.21228454298956734,0.03871305086498933,-0.27727716508123346,-0.02978757438874892,-0.0044881253888358515,0.1563684485697343,-0.09330608962655619,0.10736463424501995,-0.07484268015710016,0.020415802962470895,-0.07552400749416291,0.017902484966119965,0.18811576233943023,-0.12031715589877777,-0.24174373771869145,0.09850728777704629,0.048440281093278054,0.18061375918062175,-0.14580827602983787,-0.058827930417373026,0.21207910199099006,0.5443534431080242,-0.030230705088165416,0.06530453731005567,0.14029425630067732,0.0844140868174939,0.173327863701105,0.14957383484033637,0.298388374969991,0.07672877738609334,-0.2987374806217425,-0.19114247391460384,-0.1297220530553448,-0.04378342740874073,0.07811452798885325,0.2185326530039601,-0.017876574243136767,-0.0959479130186365,0.05643796500725044,0.3076123251287357,-0.10326160421241731,-0.3886045978356521,-0.005339634504092264,-0.34230207025882153,0.05618390436273975,0.06530058233606127,-0.3437790319443256,-0.18050215184590468,0.17465814300359228,-0.04493299177415238,-0.2569391005983293,0.2331259442854668,-0.4121770150996674,-0.5223353040496846,-0.7291683675785628,-0.3971514844278356,0.31631075088442906,-0.10991113177811539,-0.24305033313895072,0.2707433232948487,0.173859512548939,0.10555149481688275,-0.035856344035102024,-0.051232967693584784,-0.2654099502133869,0.3729938961964628,0.12150892516372405,0.051650739678961555,0.061216228945480844,0.03864386367256702,0.008345271763959609,-0.14339060875646048,-0.057368082356746106,-0.2785350860459337
88.36495208740234,1.1913986206054688,-0.2713928658924366,0.05117909861190183,-0.2545500019245396,-0.19751764968840282,-0.12467783356586956,-0.01805635152914437,0.19917667835736713,-0.13347053700729575,0.313789971876324,0.49461452562505753,0.48467957758391306,0.5128972740865707,0.4300252159560623,-0.008294862681085476,0.17298425589462935,-0.014258752672920566,-0.38885726832668344,-0.10181436304718021,-0.009477113772995984,-0.2073154714035907,0.04772781609687929,0.11968955445999718,0.260973004703629,0.008210981745942227,-0.22867080164274306,-0.04723157624457028,0.06663053687054585,-0.04881438093324562,-0.015879043509678906,0.008432896446368535,0.006517705288687017,-0.04694541681885024,-0.10179045416284394,-0.022800843829786064,0.018281346157192034,0.0036698600532637238,-0.03993920587511145,-0.11719041609439831,0.019416984454675577,0.04687312558768571,-0.031449039037306864,0.03935824390612869,-0.13881089795625665,-0.17379177757133418,-0.02704404761376639,-0.018526143183741735,0.003251784053444241,0.10469171344609135,0.16529251997570155,-0.005304563847125615,0.06655038151302206,-0.022563545987797293,-0.08219879052693203,0.042936885411630925,-0.03887765933943354,-0.10859662690469125,-0.08447759951554284,0.13927600397697448,-0.0778958003264637,0.07136568148554334,0.13796360255868625,0.0007911624249441502,-0.17243331536145745,-0.13590222184858794,0.018365472153160534,0.2019811350036447,0.07997593009831444,0.20996696878330381,0.06713615158180186,-0.38607351505675347,-0.2561888878435673,-0.046225685705841804,0.08655913864798279,0.3686901366550325,0.37369042291433074,0.23449039507355238,0.1615762322454604,0.30164431463750613,-0.18336008879319163,-0.3853478982278508,-0.10806217198759585,0.006242530336444592,0.1737197963895513,-0.14406953804795,0.21744827973307074,0.16394307471889644,0.02632443476654594,-0.02709644641506074,-0.22070997579645474,-0.03488432611404632,-0.2953343725051491,-0.12398703830348777,0.09294924023491744,0.08107160633678032,0.008426155011860371,0.045650697935831014,0.13901033683617867,0.09545160677296216,-0.3170604317048905,0.07128794191587765
89.55635070800781,1.2210006713867188,0.04722661342074701,-0.3430159456197622,-0.30376165462817034,0.3037679543918721,-0.042391877564513326,-0.22210572916538793,0.09944673119975275,-0.07009407305490321,0.2057136940939701,0.15893332561695478,0.12205375759149127,-0.02181540858077418,0.15552535134480763,0.28985372345522825,0.02173153710913299,-0.04575535000989177,0.03971920945248698,0.1205361686788126,-0.10624477278451332,-0.19617720511261336,0.032811742817427866,-0.14608908084706557,-0.014642923974788918,0.21345114695835193,-0.04080833673343362,-0.14901059244142792,-0.06766819604002937,0.0770586564711094,0.3086211436847821,0.014116727208156876,-0.009670034671505465,0.02656485137135417,0.002764046157667152,-0.0680514048749973,-0.09813387868304888,-0.0007894175561047052,0.13730416446543572,0.027063267802799402,-0.02504806274081171,0.0014608596651709757,-0.11323922260404368,-0.19058622493330024,0.08069839090538325,0.20624922839592746,0.2786734061266985,0.1999050820409978,0.17638526165942758,0.20753838247098813,-0.0342357425093028,0.2106673369016192,-0.1014692330290482,0.03897692937663834,0.05556822354681714,-0.008071746719482933,0.03610000155609799,-0.01997438020859303,-0.038433793919128725,0.027386080692577367,-0.22470506462311005,-0.4072633682849549,-0.05281610246597848,0.08223974415942725,-0.23814755479922567,-0.1433674939901661,0.7285233142157717,0.547949765092655,0.7195205624166018,0.03288206750333916,-0.546679204474665,-0.2782273819398349,-0.1514387446210815,0.2052166001394374,0.43420989347472183,0.00010150565685064158,-0.06424066217828074,-0.2543427980872202,-0.2001356671454593,-0.03898719709066539,0.308605828026022,0.33330025917492084,-0.14472617768356105,0.5447831545511106,0.7670187690659194,-0.026591634717119506,0.11903204457345945,0.39832031600070605,0.10336318768381593,0.2886298450318095,0.3204240789873335,0.03656118297893354,-0.09576765650737906,-0.35728022097466905,-0.04662240421427527,-0.09409012303602762,-0.04094656594048228,-0.4458696205818611,-0.16604967933971299,-0.05587542697564893,-0.14462575896337476,-0.25523567509689965
90.77735137939453,1.2112960815429688,-0.2722673126320882,-0.14775843214106144,0.08327123235951538,0.31782555806280954,0.43723969112903255,0.03133912446641018,-0.2075401068054999,0.01188486392963365,-0.363396210087708,-0.19638733963611463,-0.7131907816352699,0.29314062757300735,-0.012367455903909096,-0.18004851070854078,0.1377900172237574,0.004302817246063273,0.17658053129102796,0.19142666409365425,-0.2602032252702134,-0.11925436687717632,0.2726650542591363,0.027698793178259837,0.06277308839500381,0.21268125827280487,-0.028135399571989697,0.059552177115398924,-0.04918958873424603,-0.03555604891995988,-0.10655924051362485,-0.006468425365536809,-0.018051057656479234,-0.023918383404114524,-0.11108506089871914,0.12437606723918164,0.03491664509553661,0.16082337880359773,0.0803547321046945,0.09711151585506116,0.022481604013186274,-0.031190158378994436,-0.4345933815139335,-0.04955522810284965,0.21389474790457455,0.15790143610049046,-0.004122554284398399,0.056030909112988705,0.047044118174609906,-0.043341341073438636,0.19793575062204277,-0.2611625576497037,0.0696040737372994,-0.06312382470018307,-0.06417685020332492,-0.2342361594818802,0.09755055191010642,-0.006967603901359934,0.13368811757339105,0.24942619387004472,0.1958075418170257,-0.6509786758656727,-0.30267886532758825,-0.012343876093711747,0.1379774411905759,-0.006148390436944592,-0.42701535065664226,0.3176623193250314,0.4890266185830427,0.433351350727251,0.050602866901632376,-0.1188495680986468,-0.05973924143978131,0.0005670685480275205,0.014358582684916736,-0.09912988778073167,0.19073908560224695,0.36772114581697557,-0.04360535336590642,0.009220903614365755,0.1965039702999365,0.21703887181201964,-0.09526808710106616,-0.04876094800933755,-0.19452250073243196,-0.1919859761831472,0.05707452726837307,0.0067110496227882725,0.09852168968402111,-0.17970275690446214,0.16803786439907853,0.004635570313967569,-0.2131830892248146,0.07002127907938278,0.036991353837955016,-0.1322768555699398,-0.1912358340514409,0.07062240045446921,-0.20801551609941066,-0.7030662313854387,-0.1549291042467994,0.35598785983071324
91.9886474609375,1.15130615234375,0.22342902670683953,0.13901706491316757,0.21672140145544794,-0.13406179348606645,-0.06241498598439879,-0.03724768923609658,0.2514481369879469,0.01543871914325795,0.05059959976562966,-0.09256766974361597,-0.0395745058921008,0.04474073475892147,0.11910698756650173,-0.00596734663131291,-0.1884074778519072,-0.046897202015279055,0.19729006762324564,0.05726560584510131,-0.047603216800826,0.1684717039575373,0.10858002870453576,-0.011284010062033972,0.0011124571255983014,-0.04152757769458905,-0.058923715830712986,0.04363274724229406,-0.13300827391304856,-0.15481827869941492,-0.34832111331658117,-0.13470344953861993,0.12751682826850524,0.3828303697877138,0.06708547820393601,0.10758628811517854,-0.17750959643118147,0.03188591450394368,0.0016086256376957042,-0.0009481445357414561,-0.32978828411675143,0.16440973389909475,-0.15014878479625818,-0.355795610350925,-0.4153400555188589,-0.14842934722929854,-0.007137352042931003,-0.1986912194778317,0.05478250892221252,0.07069305103911844,-0.004170355368432729,0.3914847973578261,-0.10276441636241704,0.114920132035773,0.28408721604826537,-0.15973629332892833,-0.20828656981702054,-0.052143476868757255,0.03443564457948605,0.5296407042753397,0.08117488106298203,-0.679920842641542,0.5475521199003293,0.633883678215001,-0.2304739230268142,-0.24412639459365523,0.0716839721117018,0.16189263064910786,0.02063018491780977,0.14990172303995766,-0.05238596642879523,0.04588578079375946,0.062134785264063686,0.26787335195576634,0.16893558827253907,-0.08022152983269185,-0.2682705548185989,-0.11862430219968388,0.38327281588869294,0.0688781230664434,-0.1452318191813908,-0.3730103222353184,0.14481373602975947,-0.44568623510257477,-0.03135683452579892,-0.030896105615143422,0.23236549169297832,0.013011723108980574,-0.35593979013047744,0.17198565185507592,0.4070178253873588,0.2859097683219914,0.061074355548528844,-0.17238190830567784,0.07841183693848917,-0.0706686117795765,-0.2836058897675234,0.013356006855061026,-0.11761456674345527,-0.2529610879952759,-0.11246663770033641,-0.2693033847031717
93.13995361328125,1.2211990356445312,-0.3713774118189034,0.1338751588481571,0.34278548580981694,-0.23420763056338273,-0.01925626194581248,0.4157722183441218,-0.015077095730259817,-0.1992459555944861,-0.08829865543612789,-0.21377533133544735,-0.03109969964271103,0.007498638669634971,0.06004941215165147,0.06599314334303817,-0.2820787742761176,0.056034639111231466,0.03310291845224959,-0.002396756210067544,-0.06126250332385472,-0.03815734948675819,0.02218586876845048,0.046922772234709365,0.15117278589205846,-0.026285996303156884,-0.18320680726380018,0.1057881800354819,0.04438999022718662,0.09527420881520109,0.08346555365630115,0.12251891734167239,-0.03588537637644742,-0.009295228280881751,0.3538126753544383,0.06963509162314963,-0.13576892326142442,0.38367744618077854,0.24014548275974917,0.0858207353256199,0.0969597832499493,-0.11175252842397702,0.14433951810377907,0.31611923726382085,-0.35118293624360286,-0.31113644080388914,-0.07460083873954612,0.22787857539273368,0.12127345876208649,0.05475618855331731,-0.21976775758460873,-0.2316203374918869,-0.013658378802074137,0.0294029641986763,-0.013102146726686442,-0.2727494758349596,0.28241082711897353,0.12273421072588596,-0.12083653249770664,0.05437496660029466,-0.23491363359512762,0.21504715073022923,0.3862937180337756,-0.12035253117773911,-0.0162799481513983,-0.027060330701737946,-0.29630710459312387,0.2862884185726766,-0.3677230457701519,-0.4598476480544513,0.407595037056728,-0.7928310691578497,-0.34301388851350156,0.1721110788465838,-0.17743457516548622,-0.6822934814788145,-0.06758161043579886,0.041056019343069135,0.3609986880088194,-0.019017515080498634,-0.17085499645142935,-0.3260894459686373,-0.2980482177763463,0.06509510584642424,0.18988469719014162,0.04830371978056741,-0.2440060110544922,0.13561796460674727,0.24466761905623163,-0.14179385999261024,0.024782245498257225,-0.026469095428001327,0.035642900765546506,0.08970240757348255,0.14359198700574619,0.27463863499776586,0.1829559576509474,-0.06856258296438533,-0.10108773334988558,0.17202901970812662,0.2792756119205654,-0.25938733526520635
94.36115264892578,1.2313995361328125,0.02247047313730527,-0.05218925845799767,0.18550308455075515,-0.27097727683349027,-0.12315026904930383,0.046008511944713906,-0.16871999920662467,-0.20062024686991348,-0.05246220990151586,0.2226195377537853,0.07937013926610936,0.12568682616017798,0.13448317532847903,0.11149085821986303,0.10539932906402417,0.15135064798801637,0.22333234748063974,0.00046401961801979406,-0.1937731535908111,-0.22545974165996696,0.0221180796961655,0.10704253049602877,0.02888455766690528,0.005166783403945909,-0.024838528641621456,-0.10074300211056718,0.016578302291963123,0.03368023424520783,0.037161041768558195,-0.01001153385696687,-0.08057902679792252,-0.0193098606479125,0.08555504031945026,-0.06473654831988433,0.03370575308809054,0.046779447721089995,-0.0811910752492309,0.10210852483505337,-0.25940261195368014,-0.1665967178509833,-0.2645575799724452,-0.05757512794259134,-0.01563045595219989,0.10052396200079991,-0.08302517688363632,-0.2427278662018251,0.010145271781741905,-0.10979159342001665,-0.13452340197426188,-0.19490846254239774,0.4408376944023594,0.19450096333447164,0.026080890791337262,-0.11649417546940187,0.12452468977762943,-0.014338928305990407,0.10475057178682518,0.06279139219207862,-0.029920731836211183,0.061305461171463474,-0.14227412726326405,-0.20280325321158812,-0.10463884755984573,0.14757609631666818,0.10523097094117936,0.28265010993995426,-0.25907695950190957,-0.14466316493871414,0.1788787425046264,0.16442747196438803,0.507084455037613,-0.09331237553674958,-0.28978994577196815,-0.22700041114345226,0.18497709865342926,0.2663689038416789,0.031279582348635135,-0.44171709647726465,-0.23430352097082963,-0.017865136786158156,-0.0784115783864118,-0.3095344098949668,-0.1382519824355319,0.236235803483491,-0.018713970558555122,-0.13374390552538304,0.10829761911040131,0.10813191578221565,-0.3075051549292573,-0.46936275122278237,-0.30893189231508067,-0.7203145081123218,-0.20665599827212658,0.2975862910817838,0.12527978246532134,-0.1529905139699793,-0.09599203050347818,-0.3416359154748674,-0.5013234410627984,-0.2803415311923526
