start,duration,0,1,2,3,4,5,6,7,8,9,10,11,12,13,14,15,16,17,18,19,20,21,22,23,24,25,26,27,28,29,30,31,32,33,34,35,36,37,38,39,40,41,42,43,44,45,46,47,48,49,50,51,52,53,54,55,56,57,58,59,60,61,62,63,64,65,66,67,68,69,70,71,72,73,74,75,76,77,78,79,80,81,82,83,84,85,86,87,88,89,90,91,92,93,94,95,96,97,98,99
32.83905029296875,0.8503990173339844,0.05456555349154499,0.014641480804854399,0.02139030153519171,-0.02611706763216907,-0.08556766171885952,0.027027005644332337,-0.07215426496253556,-0.24221993636709585,-0.1564441597291828,0.08477517487392891,0.08786107171345733,0.13565804513876062,-0.03444307674319239,0.04062663358497095,0.04202512944476895,0.04968042946709725,0.2817302488561543,-0.1774985621272299,0.5495967368155645,0.2953344405856304,0.039249479336462244,-0.305153059400663,0.5671647413737542,-0.08711860165928571,0.11560201602543502,0.09709355325944218,-0.32569918942768056,0.11442312908034472,0.21541058969991383,-0.3144768887696814,-0.1345420520597422,-0.11372319373634164,-1.0212358546965938,0.4220944847793131,-0.370827230109275,-0.013477202756085702,-0.6130492961763343,0.12811297542423852,-0.0825704286690496,0.18937371055732533,0.07884927380913506,0.7369932956348437,-0.273851420442904,0.4686174864666221,-0.3811093672793783,0.7550881140918367,-0.17952701304578453,-0.5620717726159868,0.17415920169699303,0.08554151981207435,-0.04734020303335061,-0.571988539415166,0.21511196442980676,-0.23001112280710678,0.018380923036066775,-0.046750339261668106,0.033771172010223456,0.07387751182912194,-0.0006361367825567571,-0.07665606984148446,0.011244870928111966,0.1478598933748457,-0.1017327537723959,0.055193388591502975,-0.05003398306845714,0.10348016706467363,-0.06709528581044652,0.1566271110718466,-0.12468637747311584,0.08261789532112787,0.009889759584676621,-0.06572161840764919,0.04216053048693173,0.1304990875717058,-0.1260213041228576,-0.0334507908948092,-0.015406961415587214,-0.02984054043386101,0.0801057461609466,0.04884003445663831,-0.02211210668099225,0.1002579573337444,-0.06757245526078777,0.04714634714128378,-0.10212080689216452,0.019325126132665637,-0.0001405009422013407,-0.022772002450364554,-0.030969157209459273,-0.009871674299496133,-0.03602257668417087,-0.0764657808547501,0.12193529525932312,-0.07659360039587391,0.31064183901666087,0.178261007126408,0.10870067922300364,-0.05985298423612867,-0.10238109425836467,0.07007653951780451
33.689449310302734,0.8400993347167969,0.00536449003933101,0.15968447240014022,-0.0427734504396903,0.044067483212259596,-0.00517855783443607,0.024265607312980327,-0.008492140889085745,-0.10504756163998351,-0.0156382038527932,-0.04149252477588544,0.3237205034305852,-0.15393753916421343,0.14226659998905208,0.06437950951756606,0.01635846455782952,-0.1947144239779528,0.2035081962020893,-0.4172340875859584,1.0637521931945555,-0.3387671542390357,0.7899708693049753,-0.39885013096898,-0.041740175544856914,-0.2523946849569973,-0.1293598052132091,0.06643797779206623,-0.04641872917670483,-0.2006711739277435,-0.01547042047686542,-0.22141783881286442,0.0856855923228009,-0.5757207746555679,0.1713440843139612,0.024853210358091637,-0.3682349313868113,-0.12161157308084222,0.38271792851629227,0.3209654364544512,-0.20490569919201632,0.13218886453997186,-0.30212489956927924,-0.3498114120382764,-0.173306635265874,1.038388221777691,-0.18634322895187508,0.11757228690046159,0.2552412499088218,-0.6741458401788254,-0.37347190915199063,-0.53681100197128,0.17731259599703816,0.21390388426448984,-0.14176405771953576,-0.06735589976339995,0.17393016041940662,-0.014908517448770524,0.14882612028780776,0.019027974743374355,-0.28681473146988096,0.27157773425744364,0.06506246296401234,0.06345411733833027,0.10934412366449159,0.03508847505401432,-0.10335331210624082,0.12195571283221271,-0.04455642820129823,0.10995270353151174,0.0028155609769929418,-0.01616208360448309,0.06144415477395378,0.02646513709826078,-0.08015484626240456,-0.0764832675374742,0.20522217900385675,-0.033475704124651895,0.04594261363865784,-0.11198782278043543,0.0005403607794381973,0.10328743440070347,-0.06931432050492176,-0.022347560613409995,0.06754996121359416,-0.022175320310570373,0.0024038022467277372,-0.08542896912569856,0.0006898772690625401,-0.1564980577759985,-0.025145191157649082,-0.013352658319897194,0.015043316671588355,-0.08543452119037157,0.1813650838597334,-0.14383018600284406,-0.21798718932408567,-0.1378723210062695,0.06382971803285081,-0.013966056463920892,0.01856666748574272,0.030761975380793498
34.52954864501953,0.8201026916503906,0.007949995638657878,0.04955066392077598,0.0971586273432245,0.020330725394805696,0.1902209617290313,-0.11852907929714737,-0.11791608765441317,0.09412022263291683,-0.1164099927941855,0.0777822787913858,-0.11022789367211672,0.23730785258351716,-0.0795102742554713,0.1478397813212747,0.036320994495922916,0.11389639264741819,-0.11462149795482081,0.9841327279113603,-0.6604015302309905,0.12267115183781754,0.1298311540737476,0.43616287309060825,-0.3328106927190799,0.05823838400754591,0.07615048112503076,-0.005978823352017441,0.027020971264822346,0.2060541898370688,-0.026872594248994387,0.7792091579995793,-0.7896399420890367,0.6911520830663984,-0.008253080404277295,0.011504607451307283,0.28194285500048305,-0.8551299687284918,0.22145159052632668,-0.8122279699289481,-0.23304629646750888,-0.15926076594001004,0.1599311922146814,0.7197691757665177,-0.672642515241855,0.3527269527803545,0.4057378729506929,-0.04978922805617168,0.024660139275717752,0.36691500711649533,0.19613985760026317,0.11051843101995858,0.9696496467244274,-0.31260613055046044,0.08260944396260088,0.5320222512082359,-0.027985755454531164,-0.11821166948375805,0.046865239376553486,0.09609164976354177,-0.10981333552029446,0.018818831805892743,-0.09476344400500034,0.007499146191884749,-0.0699325111658361,0.04802829031716072,-0.09894103152938923,-0.08523857707191675,0.051816501506665585,0.09076400147168455,0.11762583474683423,0.05995914306172968,0.0979551125238077,0.028749920993408992,-0.008589003137558796,0.02379490969910711,0.06903635999290647,0.00599170296583372,0.014067568072496294,-0.030445789901341766,0.01449265859275093,-0.0043440284634270986,0.03855509924590835,0.030844906120362697,-0.04673233242167697,0.10119804127993291,-0.028616382986019755,0.010180913969015564,0.07634158494024193,0.05315227536297168,-0.12853923767727776,-0.038843910109188945,-0.05838224976348627,-0.012883485361012012,0.1338233533201581,-0.05548964817643208,-0.1044629979193206,-0.19586706086496855,0.0002500672856385125,0.04137521496074254,0.19926959980031825,-0.0646911950998254
35.34965133666992,0.8698997497558594,0.07994762548601633,0.09732620511468151,0.017479791748356618,0.09827531845302395,-0.04992259814858714,0.008109983082578012,0.008671730288582879,0.25158246082395663,-0.07481897410234925,0.35863279556049954,-0.29891360330200717,0.030289200678466414,0.025722354723696196,-0.01029365423577172,-0.0021528272451518185,0.008055078389825138,-0.010867849947601548,0.44133149646191416,-0.8158185430083289,0.52051986556042,-0.0991799249238223,-0.296695301661868,0.11779831797625903,-0.43455068787267137,0.3850166162638272,-0.11994212857352297,0.33677069159111966,-0.33734841008230243,0.18189624100613827,0.1443975314707368,-0.011737823111358913,-0.370407874499467,-0.5328938837949627,0.025391514906393856,0.10795336686069364,0.07040880361229286,0.6475484716344234,0.03773983127129085,0.3579312880541441,-0.39343543949860454,0.6019390581601227,-0.032664668160824695,-0.27952722061510676,0.0018635131417105155,-0.2494944322787592,-0.32646164111746123,-0.15870184880969776,0.23501259057376234,-0.5204002807244118,-0.5227992940315324,-0.5913810844500758,-0.26142322717227506,-0.2205590861476255,-0.0534972791226231,-0.2795709539966498,0.09216488378153226,0.004397010907505152,0.06268000569458236,0.1239738517501582,0.0031009874786506295,-0.12141572786633412,-0.037402872450858056,0.02055120662541523,0.13113001687971038,-0.12484236602746598,0.046459331663007135,-0.06008131033324857,0.002580312312388533,-0.04955509451551605,-0.0336019890862191,-0.06378768599048738,-0.052054680326873215,-0.021381560040998553,-0.016202509453759596,-0.03633676233261182,0.005151789515040639,0.027542537173758833,0.07758860398599024,0.03507041778289124,-0.05335832233532657,0.07058103004443267,0.09615506897926676,-0.11220787803909611,0.004158848479524564,0.07077253024766228,0.029473328693309438,-0.032541911541789315,0.007083644068261147,-0.019604584783561804,-0.02320240622092925,0.043243145882917014,0.06606236505046327,0.14616363625062248,-0.010453949727276576,-0.045068757219804065,-0.07445194645355403,-0.17983108662720496,-0.02458316724383392,0.0006968779927837947,0.12943908746666224
36.21955108642578,0.8700981140136719,0.24312360508985165,-0.0157210261228153,-0.008287699380321218,-0.1098445573141501,0.0005692319459121688,0.11621588993003762,-0.03003957089462774,0.033390259012894316,0.18803648868653444,-0.04261187787651893,0.11514195943096356,-0.13346921127427713,0.06906937010643341,-0.035342155451427625,-0.03872078163884894,0.11108419066967266,-0.11139679789523933,-0.06905253961271098,-0.3134799750662129,-0.033600172921057894,-0.0682558745009194,-0.1555078688154036,-0.13994919498845054,0.0963819455738642,-0.004237725104430726,0.01933172496930388,-0.13483142287134536,-0.11299240803380546,0.14779637279277041,0.24921526587019455,0.14742541121629707,-0.12927873456612424,-0.4364284620318075,0.16379209809362816,-0.13899593884328432,-0.4911813177860666,-0.543220703908584,0.31430586479858424,0.038806675372714754,-0.8609465446909091,-0.07420678915557022,0.40608344985568734,0.6645514244471544,-0.05755983606270759,-0.1692821829148967,-0.5868096932002831,-0.5769489067167698,0.9645756791805491,-0.1256756749453398,-0.21744491139810038,-0.012759226190946143,-0.5407581435523187,-0.011458968525682497,-0.06416782348794592,-0.03821560163899648,0.033551187372833274,-0.056946595966441034,0.09538590170721917,0.14646411131381212,-0.039619642684907086,0.10082159236147574,-0.07262301035665153,0.040072548668910093,0.11006414558142412,0.08036692474456218,0.06822640966019287,-0.018929255953025734,-0.05162459934268346,-0.03228396359689378,-0.16848887503519688,-0.022909210794170746,-0.03771789372315089,0.02324807954367409,0.013796935150663476,-0.012288605562720349,-0.1444966510234326,0.02345475444720895,-0.07127107439358664,0.03761334119572625,0.039375345041630296,0.1236289378386091,0.058809500916218685,-0.023183365680462663,0.019374555917933824,0.08223423416718469,0.0472724523683073,0.1148624461856896,-0.022063878399137832,0.004829367180870174,-0.01949812780741221,-0.20057995603707673,-0.005777293034557693,0.06189512338925037,0.0065493199835834435,0.08117484081062416,0.007287046147020805,0.004490201471883634,-0.013280772306802649,0.007343694218151276,0.16674724699981
37.08964920043945,0.8697013854980469,0.04998529409875499,0.016084272117244905,0.04321150385714499,0.1754524237340336,-0.021898474586654372,-0.2617610122699206,-0.11056519051565131,0.12286053745592972,-0.1729878370241612,1.2880085757602124,0.19748081838774242,-0.055119563047716424,0.16428414362932778,0.10357962812823727,-0.105125896936408,0.067186733058188,0.10570717668986424,0.004962133733985574,-0.9718468507661853,0.14082782164680496,-0.24062977931758536,0.014076783044233107,0.5381413650392957,-0.11900961361581236,0.1851457672064818,-0.0905724252826913,0.22998887229810397,-0.12291941419852115,0.14511136927146503,-0.13265219915946222,-0.08584070179349618,0.3472887698256161,-0.037478917610856935,-0.046772030812538196,0.32983798610435683,0.0367543857560349,-0.3226256587581523,-0.6807045429382071,0.21006526667994468,0.7053740636991455,0.1957446866988365,0.08987973405735374,-0.14879242203094065,0.35140051061098865,-0.30719167431800576,-0.17907173965922119,0.46216001493093445,0.10580198440929992,0.8178373523961029,0.6663016622811146,-0.00361830324568016,-0.018555897187858564,0.6425823682785732,0.04249767230866981,-0.0007454712159159216,0.016530810897382647,0.017415990786667064,-0.09040021299360868,0.017799521617857292,0.009952747359611939,0.08406139271623106,0.07868593589955315,0.11217175620488196,0.019419413604863114,-0.12018081805488198,0.0023330187869773644,-0.1012851002491654,0.008267849212609979,-0.07155109756500234,-0.09076249850583709,-0.0798268091544122,0.12203594154005876,0.10077165045997007,-0.19041927403206418,0.03827053733117498,0.058464239230049196,0.03130805296437944,0.03118896583248166,0.0028549419733186745,0.021680001552667853,-0.036004528464019234,0.01974457273371338,-0.010534966360663613,0.020816997645128812,-0.059581422489842654,0.0011617545816246366,0.06959320880442219,-0.01607446398656119,-0.0338284343864306,-0.07122116775896097,-0.08760772896843652,-0.05995423405929454,0.2573267409355859,-0.396828642983959,0.153253137683822,-0.06697799423866199,0.11388462117122708,-0.05834702238695333,0.06609832511390783,-0.0967491148777522
37.9593505859375,0.8801994323730469,-0.10731290499667477,-0.023766193693071105,-0.024085153569080857,-0.005149818896302194,0.03395457888047523,0.05365978884238834,0.07613604896455056,-0.046257696073534735,-0.015377335232256298,-0.16058593819840122,-0.09398258333644077,0.07448184988841494,0.32716566231271854,-0.30736621674022646,-0.43246815095674473,1.2360821300725038,-0.5890327871378488,0.607995220859985,-0.5275339494640615,0.11668925433293123,-0.12570569283662278,0.0010296205462760116,0.08120956513561081,0.05040694941688149,5.889242053137844e-05,0.026455812615568702,0.06597804644016778,-0.09219585479959515,0.14619068297155585,-0.026608515820386584,0.7684903418063129,0.4261438742923289,-0.34898705652739115,0.41628952157711385,0.19412406174945543,0.03657522485769801,-1.3340148864112178,0.24614479220576568,-0.07943652166618763,0.32552581583937723,0.4902050340542655,0.033087703060196094,-0.3792771128680856,0.058131624323473984,-0.0628644235292585,-0.16129051834144398,0.13611469080531424,0.5652528911596183,0.5605436088640062,-0.35202911897182215,-0.1291496365258995,0.4065030319135956,-0.020853483522927152,-0.08404145046553246,-0.04033274070330716,0.016866807031857882,-0.11099953486913129,0.1799384330269324,-0.06996937549300546,-0.16176141040075914,-0.0554661407015782,0.016297247078272455,-0.0075737115180345305,-0.11502860005489841,-0.02843564337539524,-0.021563198114372302,0.02159725558954851,0.02267112283964068,0.02870541059350304,0.07116908172814637,-0.032944923285510214,-0.17864949809973651,-0.038742457219309634,0.08401169740975258,-0.04145262904504982,0.10936781038744493,0.06258013857271036,0.08598299344325257,-0.02095539051295181,0.05161149901279505,0.03360638437194048,0.0748507500371808,-0.050127497657205505,0.07260035785764776,0.09045254160891171,-0.057498114369483586,0.11227888391344996,-0.024218909762644004,0.031925480342338795,0.021958754994299265,-0.04080915474079985,-0.0555143087298114,0.0508914857833342,0.017436868901651296,0.02382943639053464,-0.1295781713259014,-0.13702916488648598,0.05934935972225382,-0.023584568309046837,-0.062037814646436026
38.83955001831055,0.9298019409179688,-0.08005179211791746,-0.05295750072786795,0.0233707311658371,-0.021158353721535055,-0.02900030369233922,0.014119230575354625,-0.022380613616123562,-0.27253889351436034,0.11870918775766716,-0.2625948197213125,3.8762175882328087,-1.0376535676460958,0.17623864469045308,-0.056935489115992326,-0.06356774623199082,-0.08003072675329032,0.04485340042532649,-0.10822375669530782,0.0020650677831706033,0.004083221518014652,-0.23802242559810338,0.15744234544879343,-0.025991514904771418,0.14060393571780183,-0.30426692345047957,-0.024028205612324355,-0.8215261727954837,0.2333967739891519,0.24411191134809773,-0.11252316308693905,-0.03257292278361508,0.03950667824902054,0.09345800622111369,-0.1364159423125701,0.07623695854982329,0.34490019444567316,-0.0024306799844044553,-0.291496711811024,0.26407122462877053,-0.16441561587415446,0.033731215876545845,-0.35235794987998226,-0.048564103077919654,-0.1236029618842307,0.015228537280216246,0.2957029394266279,-0.07001321070969324,0.0310821698638396,-0.14779920538102997,-0.31155769172100267,1.38560675550353,1.6459213815288236,0.44006884828895215,0.03753153356800175,0.05076046473678631,-0.17455888889086477,-0.08917767352450537,0.1720129920270686,-0.06477529046583276,0.11744846670092234,-0.03166405334961443,0.012815824414481869,0.05051473091427133,-0.019135850167518627,-0.050379829928348475,0.015765648541885554,0.06343843760361659,-0.06428833689753242,0.04437085593155591,0.17885479987240965,-0.10739178789896403,0.08713715005840526,0.05624107028166185,-0.013269074924651118,-0.047377077301359205,0.07296508208311406,-0.06714420682470357,-0.008483612307252102,0.018740148430218907,0.1014395866631704,0.01621628456026125,0.05633360199593282,0.1387830987093699,-0.006054527197215822,-0.05784935594522553,-0.019522498927466596,0.012738103710466573,0.0023515418024500413,-0.04946764470852606,0.08603595370935715,-0.021331279409912092,-0.04267056533382636,0.14210429279958928,0.008828978465722656,-0.06962113418862442,-0.10129676802252503,0.14412929296877341,0.030643526825433882,-0.043649929030279415,0.025253855973240424
39.769351959228516,1.0302963256835938,0.022971173115420192,-0.050824590290738283,0.06487531397285207,-0.11963422556222096,0.07365412965472995,-0.024880083389097987,0.07705265867325019,-0.15924517122114887,0.0038262720243904752,0.7586550652835908,0.10374183796553216,0.006947206773914062,0.10496222635820762,0.06601569978366865,-0.050521346688464315,0.22122955935170477,-0.8390620751000835,-2.8042378944785367,0.6435195722882703,0.024625492750490932,-0.04467617997581791,-0.04760084112619052,0.04624154659540357,0.017360409367309024,0.1304971549558361,0.0396712556427599,0.10579162211135108,0.015558862546651404,0.14954989093606552,0.15675596575315515,-0.03143509986400684,0.05143911714860131,0.005318423998600132,0.004523602080614036,0.0008403330886472549,-0.031366048012903686,0.10915717813776295,-0.3018880067489175,0.4209931730266032,-0.337535737435435,0.07308428969390343,-0.27268368252708347,-0.12457500310326297,0.7204205738897548,0.09248476652915605,0.5909010211459429,0.3988986674643348,-0.0907425823572989,0.046106557661086796,-0.5040767826056215,0.46169746358634334,-0.11541689738044694,0.04816421822055686,-0.0961414673658166,-0.0018759522880064106,0.0635736042635376,0.011794817082083419,-0.1868969945626588,-0.038007451268178165,-0.08098414921733117,0.051306032945190136,0.18613892463751036,0.0051997011322752786,-0.08326405241560488,0.12046221588057363,0.13864070412261134,0.013642153416408412,-0.08528268413813302,0.09604338572234507,-0.01579044186762219,0.004960509972087407,-0.031264346818166894,-0.055071150280609216,0.08229142167645721,-0.003580351662128229,-0.03803175364317825,-0.10582334932646804,0.09226333349986027,0.04616973222818396,0.006416199037287304,-0.03417390599444402,-0.06042200267424637,0.058075770147680165,-0.03597620114279368,-0.004870353841369225,0.009580534531171355,-0.016176875382660123,0.06860661374800762,-0.0036783113265996675,0.0142415559471211,-0.07687829811166577,0.08677905241054087,-0.0019811189548916974,0.019764351904256586,-0.045443210446434776,-0.018483972181638064,0.04184654158548532,0.06594102378700785,-0.0357847927518746,0.00735253278728951
40.79964828491211,0.89990234375,0.021050079504639607,0.03559771144496946,-0.011802270429661935,-0.2064156817372471,0.08631843700183849,0.044039819922056855,0.21309655676734174,-0.15651022712935095,0.41675477886070383,-2.3998441292487627,-5.046778476248875,0.8101740586969465,-0.5670564517566997,0.033677253991065276,0.13528823809825058,-0.14005713621779306,-0.3496857926621959,0.3424483521594097,-0.1312363151048077,0.911103017300683,0.3254739043079909,0.1589825788417118,-0.4524348168505048,0.12429139735778086,0.38619355784550147,-0.1922658722432225,0.03135094939688581,0.3020310252811745,0.06835611722478382,0.14880184362975715,-0.1254910191947263,-0.04254707448534713,-0.3169898473686217,-0.08212193819735046,-0.11575074182465675,0.12931195641236234,-0.3321579473587001,-0.14058282539251604,0.31923147529740425,-0.27482793968514785,-0.4269074746392819,0.7076061217847096,0.04680267827538076,0.6717707464022796,-1.387732117147146,0.2889603834445681,-0.3284211500690196,0.08945406202797294,-0.49385476125305966,0.019707151599606565,-0.5027335415561722,0.128614126942995,-0.43013901343294714,0.3945755060637941,0.15968222780545588,-0.2265557399680218,0.24279148984566123,-0.23880950316629299,0.04928598793751498,0.168093901272836,-0.051406411763890505,0.01243302070244065,0.10977190264700393,0.06501513572281152,-0.1487206306657748,0.12026804967703213,0.07326838188769584,0.003763660862308735,-0.005810000095863452,0.0030485754931001393,-0.13089145448474943,0.030196745236023205,0.13889426865098148,0.0040142314134894025,0.031425730217577656,-0.13389702725965466,-0.028611921456987793,-0.080557540737618,-0.03190145205927195,-0.03313299419426576,0.02473140975694642,0.07031917786590018,0.01770797793841447,-0.052563982023831446,0.1348147192712904,-0.03718992449827422,-0.0047426622348264984,-0.030459750786123573,-0.2184289604884845,-0.009911974412472288,0.06645901538391137,0.15431739049386992,-0.03668436736779751,0.08328052262029492,-0.04330509874075747,-0.036905469240390294,0.025313316737294735,0.0695934552587211,0.015956627555885113,0.08337118021087822
41.69955062866211,0.8598976135253906,0.0562827215583557,0.015768696165635268,0.02783610964358657,-0.013448607372999622,-0.08428928233467453,0.16123089352885067,0.05098059129837573,0.0036780958135473273,0.02310773804320775,-0.03701507915691654,0.07962590913826476,0.09440860535013781,0.010316605580823368,0.3334471640168986,-0.08506866276149579,-0.2303719552397012,0.03603973463142807,0.05452186975226465,0.025171735978397405,0.2971838881386823,-0.23665372911729884,0.02581508841871791,-0.24969477096504486,-0.05799994421536853,0.3818695653496123,0.27902184973033817,-0.23070471794396458,-0.7543341965417535,0.3855068322344248,0.435902093368979,-0.1998425053323108,0.17051351865459666,-0.35348883307822987,-0.3236248122182267,0.13124293351333244,-0.03657280663741967,0.35596270801351493,-0.8617531300524832,-0.25159958053272824,-1.3455030247967867,0.2745148046327149,-0.03955681579209798,-0.3561190288908156,0.3407001837333364,-0.02947936231135638,-0.1403647343626429,0.36660860683990826,0.16726510611312384,0.12072740554004457,0.5598854657651319,-0.2751867779995095,-0.6240351902982075,0.05711415150816748,-0.4944430144593952,0.43027807394203793,0.04599334581022835,0.4547701491682929,-0.11713397016306061,0.06731104562848048,-0.024081964980080497,-0.05614055676218996,0.08826338784511935,-0.03614619340376232,-0.10183831831530643,0.2769077431374719,-0.09286689224497281,0.08073146270653271,0.08209472454435637,0.04355557134234336,0.01115315254921602,-0.010377241108808777,-0.041216615342379394,0.057977619621705966,0.033127675050115886,-0.008519821569505086,-0.006835809339492,-0.014054147118978268,-0.012835185077722619,-0.026610904343522236,-0.026989851064827555,0.03876634894101484,0.010584890952044974,0.010946866161408888,-0.0025216016576184207,-0.04344895547356474,0.0038983508841078235,0.10046620626336053,-0.02346766813572889,-0.05022253883267681,-0.14218652955312042,-0.02191043045060587,-0.004951147377953907,-0.2759439549300501,-0.24941004119679633,-0.04833540758634465,0.021947173356354304,-0.024888890370059254,0.05268021041422706,-0.22970317133426268,0.0038692314754254775
42.5594482421875,0.8604011535644531,-0.03476555755766006,-0.008666474439625774,0.01604297201624426,0.13741830837272875,-0.02651075760141116,-0.052885742914832536,0.11359672256315953,0.05657778929940828,0.028685372516058186,-0.19728699034310768,-0.025226511410670595,0.266761741219091,-0.19165317313740185,0.04955617204783096,-0.16448077341049538,-0.11773989385328462,-0.07763482830780803,0.23078353923669867,1.0810675343391634,-0.49777881334097746,-0.31779190949728703,0.14482118928620907,0.10735537031044709,0.17219912789957867,-0.14711191772491009,0.0469097311403546,0.36064142514610625,-0.07293209919578045,-0.048284047418885166,0.004351149505535168,-0.1676713516131132,0.2309808186997551,-0.833608011396386,1.0416376505185188,-0.6473375380083433,0.38742528602385534,1.3749228944578917,-0.011318983632889024,1.0164684648135882,0.29303330138110323,-0.4351849621034962,-0.164482658284999,-0.49822587425496506,-0.4371820651113474,0.3476538767599885,0.03874050424299745,0.2315498950999657,-0.5357852961891074,-0.111705170833663,0.2596830612685953,-0.07883647166577354,-0.024477922044622676,-0.06326271222586864,0.03740278906673157,0.09590109863056274,0.03897522436115344,-0.1695643625972949,0.049675526371608214,0.06685824505415978,-0.03690060170795681,-0.15397566696742293,-0.17477992277552498,0.0035465484501637596,0.062380411241078446,0.02656175268508773,0.014481779268274418,-0.0628659802887803,0.020886208441508458,-0.10249957016395848,-0.06153114736229702,0.12714579068032061,-0.0237654794055771,0.13271587205350222,0.009645006876997179,0.058936175475426615,-0.04077316166514475,-0.044553010976988154,0.13635663666801456,0.046966841158026656,-0.0034312570430057392,-0.02121010077597754,-0.11451920836528774,-0.0704911543928121,-0.01751227571193796,0.0988784599791746,-0.054990191116622136,0.04444573763168337,-0.022974733383299566,0.019826835943878785,-0.11620177506712372,0.02356954742370694,-0.033704036085990166,-0.02930396750328198,0.07271327114578534,-0.07084861785766182,0.15146438883240337,-0.16019871851918552,0.055820506465510095,-0.09497728423132967,0.24008985273944924
43.41984939575195,0.8694000244140625,0.18893662469007877,0.00014029928975524061,0.0658718960970425,-0.08152857671027831,-0.05346283754394578,-0.1778914828995523,-0.0803791933320194,-0.030909359389033043,0.009204803787060569,0.047437070824473515,-0.04552702435726918,0.20539525117479085,-0.016193050545912663,-0.253673818423147,0.0021976127858442385,-0.09894125734841137,-0.18907427238367153,0.6933951285423734,-0.7625712711699735,-0.10633790344368506,0.014895999040101533,0.2670170858448186,-0.06013786713607715,-0.06170798950302772,-0.46123910740414975,0.32612665013077036,-0.3618076488872376,0.29546837470648923,0.13305829918976142,-0.23053321391760753,-0.2410838783497115,-0.18362344442500625,0.12785055017566158,0.1163909438984044,0.16039530049912354,0.32349417905931893,0.10784718366359043,-0.31882289581584267,-0.6905727453763013,-0.30896369763505555,-0.3537157165189458,0.36210829176116,-0.2545187558605434,0.5335461160493202,-0.1671412931739278,0.2256756941350864,0.011109802054105875,-0.47314710709204183,0.4987188036193475,-0.3767338743739821,-0.3371586910190905,-0.2968218586888889,-0.36199600406198196,-0.5132319062989061,0.06181922372884728,-0.1334343050581763,0.017238960977995994,0.026221631989205973,0.13405782933201835,-0.013431063664856996,-0.02579249264501298,-0.0728959282343874,-0.2197602295378258,-0.01156431453068229,-0.03580825546690939,-0.1087627808653398,-0.12648797395901146,0.0619402845064391,-0.12403057540900826,-0.08456319188257619,-0.06543036189015013,-0.06260295191981587,0.01623304709936324,0.05820640104600883,0.010703537252569412,0.11029966168046473,0.00027507130708881444,0.1374353764652827,0.08139213157237564,0.004783567719651466,-0.05366986939104367,-0.04290765588757088,-0.004683979972538433,0.07260622887760035,0.06536293702413083,-0.0006187419259732949,-0.059608025304347105,-0.08580751297954539,0.06324344021211406,-0.07860049715363643,-0.10603520615495145,-0.031003277880403104,0.019964141702425546,-0.01854548833733279,0.1301588187329333,-0.1421084517644936,0.029503860364927643,-0.010445186225659965,-0.00700843177406937,0.07813978408872288
44.289249420166016,0.9006004333496094,0.09911267367555196,-0.016690312053989884,0.02955201628696409,0.034671541787322416,-0.12290253289898037,0.07229490513065306,-0.017102435343480774,0.1262700128238493,-0.09022913574903524,0.028899682944068958,0.13528103408795958,-0.0851362087883662,-0.12084352538485638,-0.002598109694669358,0.4693902421495304,-0.22470354044115387,-0.3743790381226122,0.5512937917434337,-1.1070802036270817,0.31444009735655604,0.03558397298067262,-0.06092567238133499,-0.13448110048318151,0.18536145051501793,-0.07635906840715352,-0.05429809020207165,0.3609935604137259,-0.4684033677630891,-0.14010812305839648,0.14707925247226653,-0.24001224271974905,-0.30679203101484886,-0.11500332852170386,-0.08400005993500029,0.13155471124918705,-0.7653959931592168,-0.34311718073893765,0.37887396461810185,-0.3686708676966698,0.35157293601027195,-0.6002355916202158,0.2675221836367517,-0.04153181804601678,-0.46900079822236357,-0.701148135381748,0.6622156020169585,-0.07191563375211137,-0.3823171550629834,0.223793667911202,0.7794481330207652,0.19296757324688074,-0.0581781864290624,0.04703122292395459,0.018987712823046,0.07724260618462203,-0.02149059111100474,-0.033531748456576346,0.1420432562607255,-0.08259448598310644,-0.01589217252081787,-0.08444839950771717,0.008647216733216724,0.07641207544977287,0.008831852152808423,-0.03221377272952378,0.06272969993141828,-0.06771613470403107,-0.23014928104838478,0.060746197914055285,0.09004678580185076,0.03558224162993082,-0.006309793612728099,0.0016182314765747219,0.0638250334878889,0.05958381617857236,0.08378577399140336,-0.011615215149646693,-0.023416614150118364,0.04182560653129329,-0.06309207750410502,0.01597394236085578,0.08359146458034043,-0.023665709857376344,-0.04918785999653665,-0.003281301754104126,0.006398153033732955,-0.11534057950590366,-0.04499123629031382,0.05407046322639099,0.09626100514150186,-0.06059116637866779,-0.08287779804626948,0.17024671645708442,0.01930069003243353,0.21467546202243923,-0.1274527940731493,0.20991843776246413,0.04275723904093496,0.21971948920695822,-0.09659262752854748
45.189849853515625,0.9001007080078125,-0.14016441835711127,0.02157600656441421,0.20019210830380477,0.007736849511715371,0.028422489476252033,0.028460714141321262,-0.06902260096067697,-0.014473906688169298,0.23716898946189216,0.04411889942909626,0.039208701088022935,0.17730583720254287,0.06162918255133805,-0.03307559231597716,0.09067976776806741,0.01739082790005897,-0.19813257983816346,0.6594121253846921,0.31569976209036676,0.23522321641864025,-0.09244391578063799,-0.07243409736509486,0.4050538899433774,-0.48042302393671654,0.035198850786257535,-0.2975782051703643,0.13650431635754834,0.07388528085081585,0.28828608336953054,-0.04034056931617838,-0.20320787670349383,0.031145612163090346,0.07546314733889117,-0.34221492891238925,-0.05313856501473896,-0.37083491905276605,0.09304594278035971,-0.6986923903042438,-0.5236941343335254,-0.9337832658532025,-0.12760035017965637,-0.14081211350331968,-0.07205979592484367,-0.1936871089921876,0.4041269265915185,-0.07080468700494318,-0.20866864494673648,-0.011279941915686847,-0.2179981106982869,-0.33685716536536875,-0.7806027604674095,-0.19536609095917082,0.07035226436299642,-0.4493049717536574,-0.6643929335083721,0.20846799320861512,-0.04711103840071039,-0.0017470781356239342,0.09914006295734754,0.18582983921036372,-0.0421093430026791,-0.17943415919751998,0.1224890554071252,-0.07666256179942388,0.24208196746528582,-0.041671196320203954,0.1024774345717579,-0.15027494368955105,0.008549039500158267,0.012814574138237382,-0.10610482035242294,-0.020410319978580414,-0.0367115604652613,0.02518460079815582,-0.012760845337655102,-0.1299081192246716,0.005682420432232906,0.12611283472056617,0.010419011302950181,-0.08880665592553584,-0.01564220784266796,-0.10659169891596325,0.014016681649199706,0.04719382444973172,-0.12777726879489906,0.0067853666860403505,-0.11263725437822747,-0.06717648057383198,-0.13998425681449161,0.05444608138316304,-0.01675027554840532,-0.061637820623721196,0.011302137395734083,-0.04026191323237068,-0.019126453359017925,0.04954441142874192,-0.003391070318140739,-0.07554038732135238,0.15954640241357793,0.12156215791972783
46.08995056152344,0.8998985290527344,0.016503470742310455,0.0848999610465174,0.005195450164190894,-0.06240946262666705,0.03753983554528656,0.04571348430393697,0.06519296808293971,-0.019995878919334267,-0.16048077875774241,0.09301201641682923,-0.11161884659065804,0.1921039272543001,-0.05944341261697179,-0.014832120541453152,-0.03610566223080914,-0.11430648516077427,0.054978137373676045,-0.13973388523014557,-0.7723611294493491,0.21139283524662644,-0.11264026424744858,0.19121469976828626,-0.239293809485572,0.13284384142941955,0.36910750608523735,0.542094833313325,0.22902289225573202,-0.07201306753561373,0.09989690988240878,-0.06317828104809575,0.19405047528929117,-0.1535426158407977,-0.09278565822137869,-0.08344808876941118,-0.17586108166073927,0.5978804809482328,0.08662991212520564,0.3135190705314872,-0.5273256034365332,-0.3161294800704676,-0.23643880552002663,-0.42249581044222073,0.2569936500204144,0.022386668150146297,-0.7204893368217833,-0.4043680140676055,0.5703606046451499,0.0013614492638993649,-0.21515068612615212,-0.8623255907283975,0.5402552686870163,0.1500787439603961,-0.6220635645257675,0.1138964370238401,0.007014548886435203,-0.018193741078616488,0.001603591357924334,0.10562379903820304,-0.02133697546749487,-0.119722075838374,-0.05142083696074494,0.06127378144989821,-0.16278626512700628,-0.11584725071814397,-0.175941672392273,-0.0878565988622866,0.011025844776022503,-0.05278681372215538,0.026460585470357588,-0.05066179045342117,0.01201271951428931,0.08788448738599657,-0.06888649441400588,-0.08032974196288953,0.036533951013397355,-0.06208728677661255,0.012564653908359293,-0.08960969451776221,-0.04015095727636045,-0.13223352778278497,-0.045665371538554135,-0.0074297404354406425,-0.04167074902317754,-0.04140595842126868,0.053656428208388764,0.027798732548100412,0.02944218192951998,0.0944966960754482,-0.020337359560016578,-0.0014182976815811442,-0.09991603140134407,0.2532622828583486,-0.12234670351108806,0.05113952946377806,0.009943068766346062,-0.13094946533610125,0.05529132334003148,-0.0564190853808197,0.1079443126294417,-0.10079231355202761
46.98984909057617,0.8899993896484375,-0.0918610044588673,-0.1997459927516367,-0.022153529876130597,0.025087539238933733,-0.09400322279721197,0.09046122863295586,-0.09032419745736354,0.30619961381212796,-0.515790680060275,1.8306275093030646,0.5277829738503,-0.08507189313141728,-0.04328898999526088,-0.03856686068299661,0.07739377755727976,-0.038641733362727866,-0.026564217625911234,-0.1528262373565589,0.3739050596062904,-1.104482665287563,0.6301666506758339,0.743670329217911,-0.5978395708756897,-0.034081446480758615,-0.1476104425311158,-0.14663562436386895,0.3008595693321277,-0.06984469929066732,-0.06038796691707682,-0.11871442077038975,-0.014173935413186421,0.0028438507791138656,0.018340141182495037,0.17686813565073722,-0.14488574095796405,-0.15002763611866654,0.38345793622587776,0.5513051843161095,-0.010412137895593233,-0.0429165197866694,-0.06390456817475727,-0.18166434063336323,0.33054818293485455,0.2272709731160056,-0.4729795095745254,-0.7638497065646764,0.7742383864561515,-0.15835265804221332,-0.36401377604950413,0.23738517853062976,0.749285059169211,-0.4306963591603522,0.37933231816204,-0.3364317155134828,0.339878028455153,-0.07764471652966196,0.09033054042582507,0.07651649145733627,0.01370993736586888,-0.028330113703248005,0.02543656150055596,0.06158293295699169,0.06544379253236421,0.05141440291946325,-0.010013609524843398,-0.014993922835336371,0.006370587580358925,0.10538507366305394,-0.03966498939212465,-0.021670266101554966,-0.05616524944229888,0.021524403759468812,0.07175143981431222,0.010919835818679752,0.013868499681406327,0.07228730062485553,0.035050836763065925,-0.08454813751280475,-0.0015644667534162014,0.004642181779607872,0.059842445109952846,0.027951996741356067,0.07777119135419865,-0.0407406267539584,0.0465194665637528,0.0851624564493372,-0.13217111590127367,0.0523805097556018,0.022643505581985073,0.026062984913782054,-0.17722832818056827,0.02595374532272491,-0.2443122551149881,0.08021738167717513,0.14029382350345576,-0.2953978363783989,-0.03801177442293917,-0.1330962272654086,0.04045928276707198,-0.09453103832805249
47.87984848022461,0.8701019287109375,-0.0757175195895938,0.11787467451670475,-0.1245191659152842,0.03085799097294135,-0.04362237213795278,0.07712157023520233,0.060940177310578256,-0.0027337436021338674,-0.010765720415727736,-0.10449958298127723,0.026509898243564513,0.027233206597832158,-0.13271224544239213,0.05273652152277997,0.012258159149896274,-0.28807999513310245,0.8971852698253201,0.8036789969555289,-0.23484957757176905,0.039759169644191544,-0.1981013987222015,0.15680574140497094,-0.04285639935097693,0.3570162878817114,-0.09292140702881597,-0.0773223398709598,-0.2728933204753093,0.2828193308376946,-0.32017998340243614,0.7192211337534258,0.10702505372983241,0.06956410230314118,-0.3196850742062642,-0.05826030417800235,-0.6579574255180911,-0.4619560726242671,-0.11703669232411593,-0.12537736079225134,-0.07867127217035044,0.6013705661651155,0.06677911401645129,0.2757936352478251,0.32318442794462277,0.11404274651776503,-0.2335260918896611,0.7104856902332132,0.20326933882459364,0.4909873314487221,-0.36958348510631217,-0.4668863765165436,0.3292343273924356,0.34893335445046725,-0.025288116937670246,-0.07156302500833439,-0.03602367022132115,0.023076359084795398,0.08205144681679004,0.08566685090247626,-0.06688685265653657,0.21000114564279834,-0.08716766002049348,0.0909143363255141,0.05503792669970095,-0.27965541253759585,-0.11568015233749906,-0.051672955489381577,0.06704346229651306,-0.03890965292160084,-0.08209988099576133,0.016863430392941095,-0.018890674172518496,0.14384572340256235,0.011113574013911992,0.050623299512645145,-0.016735815569843885,0.051095512322891404,0.009720496727552952,-0.059650556885992655,0.1014465759547233,0.07100903884956405,0.06810341626160292,-0.06174905198413381,-0.13012502206809903,-0.07344580275589584,-0.05206169937435729,-0.039621860133380885,0.0670231101461077,0.07538693208401288,-0.08320602983327213,-0.08699641052695715,-0.11307913460312888,0.03348302428368005,-0.06164190728338802,-0.13467566151419424,0.10284542870496902,0.03730155050126545,0.17723135945488916,-0.18922569643383452,0.08749722150374066,-0.11090333490847581
48.74995040893555,0.9000015258789062,0.03542418110835807,-0.016297725618211033,0.07418010541954409,-0.018394527273808633,0.08820827871802146,0.13964398023071026,0.10842445781051063,0.0683578762218798,-0.015152669654339243,-0.004295893382798718,0.0229859509032739,0.043434524555646475,0.06480319951563698,-0.018063289435358204,0.03799814031325026,-0.09225000708180306,0.7312134200516824,-0.26097056517145395,-0.20822199900844818,-0.08835521227975543,-0.24911064876834046,0.01368077766647173,0.129178958432294,-0.47669836979896285,0.17746701880337787,0.29595708609381377,0.3025965614853494,-0.15776242684202058,-0.25288280196628754,-0.1424992703337215,0.08455156574401759,-0.6224005447669041,0.818681104985516,-0.06432126040483443,0.14881809672023927,0.4814217644724164,-0.5613876536879397,0.3525687492813213,0.13909451663221095,0.6101322092669684,0.06578568563672205,-0.38476154794189055,-0.37002739571145055,-0.19264640934656627,0.31394238602332175,0.22205387254048495,0.5929850380888492,-0.17215363346441842,-0.47395414236511085,0.47799583515461985,-0.11509037788974505,0.1682263599362522,0.01460453384612082,-0.12287767017664718,-0.0023857584169713775,-0.03268710652217667,0.10218058635912651,0.029315560972377478,-0.17332604309567912,-0.02157590472359604,0.1059490097424605,-0.08246069430011109,0.001426364156812068,0.015253583143509029,0.011756837335711291,-0.026521423697505958,-0.024479005910858727,0.07816340660490792,-0.01956829668827254,-0.003039647489220105,0.007299405118611517,0.028474398586195993,-0.016277286300644928,-0.06925545620044937,0.10964554839562189,-0.055101416252687475,0.02078675095250261,0.05086505886687281,-0.012655680597256904,0.03986052479516715,0.041583270861360155,-0.047725012565984146,-0.05463024360042304,-0.03152360318926833,0.0016941351242640984,-0.053052815211324336,0.052149333076685664,0.02282596027404886,0.057342769677283245,0.07328247852791349,-0.08292764120372381,-0.2588941936450712,0.1686536725695115,-0.04953567824606675,0.02387149223072077,-0.00830418417986787,0.19118590194414553,0.1119739808804562,0.08114934028349904,0.025927660333601908
49.64995193481445,1.0294990539550781,0.015313944401568573,-0.00011109690358127727,0.12551491908324347,-0.04914975088486816,0.018127805918911163,0.04694641886129783,-0.003926498028728071,-0.002724940645574986,-0.002199737982655589,0.010680055295585307,-0.003320098937331817,-0.14711928610417588,0.03819236275667916,-0.18366191870096082,0.2890705646047204,-0.09881725743065738,-1.7045233150397474,0.11828328240259689,-0.10989333954996802,0.14181115807844258,0.15791967377697028,-0.15321607478289032,-0.002315617958104318,0.008674617820953315,-0.06143078225249421,0.07290643712098131,-0.22302201546320727,-0.07909176371433543,-0.01756584222378209,0.05662450259880047,0.14163495495379566,-0.31938530697647427,0.5856834217774823,-0.14007758562631323,0.037168070150055,0.18702917114555728,-0.707162116678228,0.9922323155775945,0.015914745491935625,-0.009317329433924128,-0.078009871355262,-0.026401212454347955,0.39350542701972857,-0.11971620063689725,0.09943161397006779,-0.1769630724255009,-0.20613897479167506,0.33107525955729705,-0.2845053853588845,-0.226094767125952,-0.2525600557848913,-0.23315586162077356,0.028275621188954214,0.11604217506188469,0.009580836501835078,-0.03175632368592639,0.10459243659388412,-0.1472308165533072,-0.03643030064903962,0.074666901016361,-0.015636129476970656,0.1822706037960424,-0.002372876466322462,-0.006176246605487615,-0.014253915656617346,0.03310291231254306,-0.0859236894084441,0.06140257467397714,0.03317590082584543,-0.007483009973699439,-0.055443625132922655,-0.014818071691960321,0.08626552193062226,0.03288934884748755,-0.10162242656913717,-0.0367975056015276,0.03555971151860862,0.058296320247489736,0.0798239323869803,-0.0857595078778977,0.011495909426142337,-0.07029716246562043,0.04967895006172016,-0.006007618473472004,0.045483273449277335,0.07628418027740208,0.0009739999191511173,0.012192452854198538,0.011473794112634748,0.13011828543735043,-0.018206251686391332,-0.06773323796609082,-0.011952983327389454,-0.048908284595784064,-0.06269436368243922,0.02253706912877643,0.055871833699359205,-0.03511059132104666,0.06599413693181774,0.027389559295622465
50.67945098876953,0.910400390625,-0.08552957409546633,-0.04894961369269005,-0.009833855014303448,-0.06769587315943736,0.03497788768520838,-0.0069241707602070626,0.0346784576568707,0.27067310490985413,-0.05791873403880236,0.0459411932417409,0.18279654114656824,-0.07843116125506208,0.38890658324993993,-0.9543795892234469,-1.0977773613979964,0.5628066514123272,-0.1307714649238499,-0.16141915117008812,-0.031033751750699626,0.14531000542195674,-0.023525843268393718,-0.0005447743341074861,0.0591019040122895,-0.07780296927707588,0.3319858807285485,0.5057797053415665,-0.2562366748342926,-0.13541434653826467,0.17823677176484748,0.25632264399039983,0.3106561560812464,0.780493192079973,-0.6724340439765213,0.3236373334500876,0.604916233240318,-0.22551936873817882,-0.4598517892905745,0.07930461601832943,-0.44068107566298376,-0.0516260694920129,-0.5914890925633496,-0.0012558892672913657,0.06832864473001722,-0.616792829153925,1.263358840661493,-0.1693258983684703,0.03187501650658486,0.0930963410684399,0.29837587157573386,0.4901087847428608,0.033612850674794935,0.02561163385712813,-0.07242883812199243,-0.42970856866146157,-0.023934954366321936,-0.09440341629135907,0.06597216657275963,-0.13811852805361063,0.10685630430505166,0.011066524728533082,-0.1706398353175809,-0.14134168089564111,-0.061008000205411236,-0.07324309342220914,-0.03804237784649318,-0.032997561940512773,0.05859972552481496,-0.03469597153535759,-0.026601801030690122,-0.03665661330145306,-0.011292980193858826,0.04091413877205548,-0.03014405128164701,-0.06432365884118102,-0.085566642127811,-0.13041867077674513,-0.05681798181787375,0.10146170610609083,0.1300223506185655,0.012913737558294896,0.01699398124848547,0.05938215254800965,-0.016143870376182767,-0.06322188521996226,0.021760997369335046,-0.07133914775713893,0.037866489953784825,-0.0608827402392473,0.0072759649698192295,-0.13808798743102765,-0.12185017780982374,-0.020183702452381356,-0.07483436235415285,-0.060010025237833844,-0.13816811029032955,-0.0675080150187274,0.009267558021409841,0.07231812979618987,-0.059308470293399314,-0.10872604398735364
51.58985137939453,0.87030029296875,-0.24084006234637143,-0.0943500817077538,-0.26992138869846216,0.1587119232551288,-0.09045014654476738,0.05526422838698917,-0.12010762359443508,-0.007726946494767794,0.01591942838191382,-0.052516640722796305,0.028993017462399184,-0.010472699499735987,-0.025303676797335552,0.15648172374519248,-0.07931663423316034,0.1284293859041852,0.5204016774099367,0.004910548128950313,-0.03928828439655312,-0.006359762226218322,-0.09254280213971845,-0.09665727360625859,0.1373765443469754,0.3600050807617734,-0.35264596307995333,-0.3101238389001438,-0.14978550222430123,-0.07952645029919514,-0.32261773084730744,-0.3816673996410783,-0.3823192615195212,-0.6148049351861087,0.6731069789418377,0.13700459376754973,0.21980484350036109,-0.7603191046280899,-0.2841229406649416,0.3196796075732572,-0.3037698519627283,-0.21686862852547914,0.40672234948216274,0.733099438414025,0.6853113387741635,-0.4209164766883283,0.3026787518279184,-0.029021084422678846,0.9171543021300393,0.5597724806350728,0.2843832277944534,0.2701004563368971,-0.18889256641766133,0.20063153746261567,0.07711967257885989,0.054222174521928235,0.02730556718272713,-0.033984543025530826,0.09813628545837151,0.0572772806602969,-0.0993571203498387,0.004316888400851355,-0.024600882800708584,-0.02693507148403352,-0.12367898605504501,0.11745116016375835,-0.08839485121310645,0.13111491577289305,-0.22706265657630004,0.030307242591483825,-0.11235833895097361,0.000794823910919353,-0.04841281919183425,0.07749672829853885,0.018870075784378746,-0.07888558817759006,-0.01878259860435741,0.08006254397886933,-0.07516845582377563,0.0902205255953884,-0.003749917891387941,-0.025863792824422072,0.0946998110022101,0.020526610687872832,0.004742893346071026,0.04325436384390775,-0.044787339340157224,0.08418003847219489,0.003032264051059391,-0.024736069955528114,-0.010555876342304928,0.026372398116265735,0.02202138689692973,-0.10049319984083308,0.03425897548514688,0.009446128488327654,0.04296480844025345,-0.008170982024456042,0.03554375120656093,0.00824563402627216,0.19921440626023118,0.04058658378915239
52.46015167236328,0.8694992065429688,-0.10189537215844514,0.07851970568738384,0.002670009963283443,0.10510282918973389,0.02347852778394777,0.034813178341590756,-0.13190131673404518,0.004592309028329968,-0.09500084729164116,0.03041770057624367,-0.01689861038853306,-0.1020817593080567,-0.2829574442953961,0.3201830634442438,0.27844249465189985,-0.4613049096220314,2.5536661686168327,0.6316806752613623,0.6833094903010809,-0.4844202034713343,-0.5783071049089059,0.20228496624149353,0.1571724625265913,-0.17266995996199036,-0.03994772053808917,0.06369781433369268,-0.0783250729028849,0.3172710206409236,-0.13025265712922146,0.6959554120873886,-0.4737374379299186,0.43125643660406715,-0.07358474616518211,0.17408582583476337,0.47303122952648735,-0.30893656237509826,0.4129613907237368,0.39905096117687733,0.3237493118945032,0.26223852461482594,-0.25305357959088437,0.5366697488641358,-0.43618495345699476,0.23474740192935895,-0.31110805654976137,-0.02236798824166648,0.3490448955567454,-0.28805368808297904,-0.41733713129258876,-0.8227084748535308,0.3026452571525671,0.5209198971114278,-0.5204274419071532,0.029690230641924928,-0.08265723147343813,-0.07861028991431422,-0.06930077767917592,0.04549273115959828,0.08604592266608894,-0.04057563595179854,-0.0205656688118267,0.026299894842223958,0.1454932205037895,0.07129834436774628,-0.1578350414138333,-0.02119184490804593,-0.1549777237714564,0.11596328981741802,-0.08053621372410824,0.03920964417136655,0.028863210047116145,0.12962010713985034,-0.1025018379061911,0.038095027077291156,0.10905289337791184,-0.12127933760449677,-0.03123731339369387,-0.01572453713981123,0.022494249501732594,0.0949959447141777,0.033160364332048824,0.03149475153768398,-0.007436262566803409,0.06375684893419985,0.053007612082073614,-0.0578755983111506,0.00142939733862045,0.05135479086791647,0.061959338180459275,-0.05176592333171434,-0.05652944310507254,0.0986973213640685,-0.19247212066776803,0.198084039048669,-0.11334867000046606,0.27684645119782886,0.06958445303501737,0.06430999168266174,-0.15481806906468687,0.039498785777572466
53.32965087890625,0.900299072265625,0.009592187407862083,-0.045501166160700435,0.04914603627526624,-0.02325672488479739,-0.05838763843436435,0.09507032610765513,-0.07488929257117863,0.09732011745975278,0.013509680394580323,0.12330062005020602,-0.17000271783402884,-0.15318276391493624,0.1222822659768237,0.06333069909968982,-0.05730828511332526,0.8085708901175536,0.24874904590968083,-0.1202328186338166,0.20788847711013222,0.09651583786201376,0.07574884126627186,-0.15764030842696566,0.25368200221342124,0.10563969391369549,0.06304274355281797,0.1364523162983021,0.06755508800554813,0.06260287501589953,-0.17152200740136284,-0.05483310086335552,-0.2145289713319944,-0.7646805600671488,0.04805932212215839,-0.696420348746854,-0.01729837727516669,-0.5954818304961909,0.08566497924420821,-0.191826695723732,0.6315621746237453,-0.429484913457824,-0.09316717540503516,-0.03337665228077841,-0.30965589244766956,-0.11206479717232462,0.5783612153245319,0.36851608619673165,-0.27791416737860314,0.13658702718588026,-0.16691602559142987,-0.13242208097714536,-0.12808206584783577,0.009058184108241864,-0.02627845174446608,-0.22162418984186366,0.027817941420440563,-0.07855509379296646,0.1633365387669314,0.07752499537800078,-0.010612390752117937,-0.05730697562044261,0.0006438672995867148,-0.1305921016902254,-0.026385632998279642,0.08992676693797902,-0.0769250636052667,-0.02560273870355647,-0.18022524131668582,0.013736695759965875,0.0007011257276641619,-0.08662477075941404,0.0031143797986229495,-0.12257953509904278,0.0641809630649555,-0.10843918839849193,0.014204353653919897,-0.11816360244928073,0.05225419360861411,-0.04711199352284382,0.07346857502265888,-0.01482882692742976,-0.016809100905205245,-0.036530825680821125,0.07817012849056465,0.04546459972092989,-0.07646378431863214,0.02638179565689469,0.021835597964472608,-0.06940314358220818,0.09729103577032573,0.06674016180567262,0.004224855590304386,-0.10923394999160511,-0.26576143986921563,0.3078281314668422,-0.13590962149572255,0.006793725539995745,-0.021118556174254288,-0.03045809901295199,0.18943947046689225,-0.15251986899819986
54.229949951171875,0.909698486328125,-0.13332016374414207,0.042239441094753874,0.19083959158195965,-0.0065596855728290715,0.03872151032925393,-0.07755147292142352,-0.09350001040842887,-0.053941659411870325,-0.021814445614454923,0.2418558017262389,-0.0387603860571404,0.08348673600425219,0.04942687595503692,0.040062864461076146,-0.0553708823873999,-0.3794928598926982,0.19125308255749468,-0.3686318024303933,0.5052951325804989,-0.09828900259156408,-0.19191992391627086,0.030518544484257015,-0.15328309244363222,0.29287126422805143,0.22639032189158,-0.2923181833973847,-0.12085283565632914,-0.33909489517478186,-0.08971918194332869,0.448432763208632,0.3947763421007932,0.0695729172090567,-0.1443749613277878,-0.7506729363115593,0.4638179124883453,0.4452035230400807,0.23946227071066725,0.3284475297088653,-0.14242791585783332,-0.46019258653099293,-0.3898072898283679,-0.4791824547858411,0.7766276743850532,-0.2357101539526789,0.05718808645288276,0.15167691821332482,-0.42662339344584144,0.3922991081259091,0.6162677313540574,-0.04472510176946034,0.07304368604373292,0.36085339701987074,0.039381902232814237,0.2359517761635877,-0.3077477850557107,0.296832575124473,0.00139886417887087,0.06815358695488495,0.06265720107125787,-0.03898079432942374,-0.01867507729155989,-0.16864942027072058,-0.07766577645556344,-0.025237843322631,0.06748233542459069,-0.05670588550032962,0.08619380486589132,-0.05317072227569117,-0.13511289113305008,0.022246764348952473,-0.057376195192089134,0.03766677367493752,0.013320143262930385,0.12500129227405568,0.03384630198094026,0.09930526512184955,-0.10280634437178732,0.10612298299093481,-0.03842581338541104,-0.12008880960188387,0.04873556315471523,0.07996925272007026,0.05613073536223119,-0.022995336848972737,-0.09132963022189823,0.09779641179267108,0.020129280720797893,0.051165700349557454,0.09263375135685491,0.014070672177675325,-0.11309380915149186,0.1708869926113666,-0.20014039688013996,-0.004824081121689673,-0.2072099123483567,0.1605516842281741,0.00226165467754455,0.03850846751401024,0.06603446404820743,-0.0011107584739882877
55.1396484375,0.880401611328125,-0.11991517225327775,0.019015427747141808,-0.1421023324009925,0.05367706194186318,0.04216193645412131,-0.01302460932436389,0.06558754791255535,0.05048864837349538,-0.03798163514521108,-0.06487637972130403,-0.02640823715197914,0.06293413753558923,-0.19202598432717585,-0.09529979138250608,0.0843879745674515,-0.12758057867115555,0.7303066371519567,-0.15960539212792754,-0.3685629517562844,0.03958711425151544,-0.34790161456507873,0.032644026695103745,-0.03692882115972602,-0.001571023531934212,0.11563770467907623,-0.18201482199684715,-0.5248340283322792,0.09718843197768827,-0.4563765520891594,0.34278326477441134,0.05651819832359328,-0.20495490860202936,-0.1537678618029309,0.016078206679750663,-0.165198384226611,-0.5407186251744986,-0.01582057013389228,0.16928408650745888,0.346900633360411,-0.045706708921548954,0.07007281822127259,0.11987039306079317,-0.28568685332846583,0.1266020964690402,0.5184172668858882,-0.8583602829204899,0.12671883066491027,-0.6482347137364959,-0.7237350479836189,0.2160007226432017,0.20916540865313382,0.17161154292417222,-0.28999025077312485,0.5410802826768696,-0.2388454769834765,0.03815214428437794,-0.011022828598156578,-0.01269803071957314,-0.00937657729229876,-0.02388969501351576,0.22336439708695824,0.3244903387413859,-0.002841806216867854,-0.03826111879023933,-0.01214672388726655,-0.09488581955625296,0.09791473746042359,0.018118366169309008,-0.011765880133716015,0.08436651079464033,-0.12064778275951739,0.14399779948512145,0.11281366163790724,0.08592961487016701,-0.11496169244220397,-0.04523865381274273,0.015230993638926592,-0.05895525105086065,-9.16011665860611e-05,0.006350099502178607,0.06306216001243276,0.007322886337076076,-0.07841758542741548,0.02932305801905694,-0.018702878227577525,-0.0006050790394625489,-0.03912919018901413,0.021780352266864183,0.01934044105146855,0.0234835603055636,-0.006430629809716421,-0.10790331943855166,-0.025734592695540667,-0.058896084771983936,-0.1350697506768072,0.1200666679951658,-0.016099517854501033,0.13027835294794507,0.040770014357303326,0.14504128274509423
56.020050048828125,0.8501014709472656,0.11329505138708235,-0.0027472706570795258,0.01268343511693833,-0.04227735608326084,0.013502441506767408,-0.09263115039596576,0.06677471753862442,-0.0049690993957326,-0.042793585238350765,0.14526167467849666,-0.0185457371830658,0.1316616249786827,-0.07038667195697194,0.3093251949371705,-0.10519581544651185,-0.0749863504617348,-0.05880037711620152,-0.2115439304400566,-0.21353200859884391,0.1113330864312426,0.06816984272614063,-0.006566255545440214,-0.3188887874158322,-0.007900227135834284,0.03187107517048812,0.0033494218943476775,-0.09391580047492229,-0.1394247560354767,-0.08445142006919262,0.13562112717563127,0.48885471919821843,-0.5065317102693885,0.8393625321485212,-0.09188150601234844,0.3399604348298478,0.32005466553646333,-0.5537766969050947,-0.44334676634978437,0.06242227718917209,-0.25718570732597934,-0.12671770336653682,0.5843294206965672,0.15417922197068712,-0.3306591751729855,0.538172454821549,0.13240104092464064,0.2069560122916216,0.12937608791516403,0.02643467713611835,-0.4417876679259502,1.0671533225928973,0.12543065864353795,-0.2003516788569991,0.0989981175311268,0.25142991226492806,-0.12850739019087415,0.029411738066715484,-0.05787075950754444,0.09642942885798346,0.14628049102594934,0.04114659105978905,0.11577937031320978,0.10251061843666212,0.26315358252407073,0.10175421231715148,0.04013026061859103,-0.05386337923296754,0.08345719152461359,-0.014434856777612514,0.038770167699037204,0.0531146997526171,-0.11292092746516905,-0.014906059398847215,-0.009378110560045373,0.006972109399959023,0.06562576111062685,0.1383493173184475,-0.06207312501895637,0.02367320715386086,0.08139931680969628,-0.006278714834164652,0.07190246750889301,-0.0046347624208515825,0.1461746576632018,-0.1413349415503243,-0.01901089548625142,-0.041489927219891615,-0.000783830510787873,-0.044315832122499565,0.01407850610851866,-0.18681308090040363,-0.09794543384531679,0.07955361822602156,-0.07315799248639493,-0.14247910346219086,0.17967205414383497,-0.19177995491864777,-0.029365788672801055,-0.0015612250062249054,-0.0425055801643702
56.87015151977539,0.8900985717773438,0.03850927639076698,-0.05822144937418198,0.050486021046328856,-0.11706768710878437,-0.02907692791906745,-0.010461345182129489,0.005486973343637777,-0.04658051121822157,0.060366662020870716,-0.22373156334768785,0.25734827369146984,0.010337200359609638,0.016023750903678156,-0.1400560370325484,1.1727918636074612,-0.09231512094187536,-0.01869910777433503,-0.935722146848079,0.8557648371330032,-0.39449872048255735,0.03406037863620495,-0.13639385686578567,-0.053574244310991545,-0.3154072351508376,-0.42297125586216056,0.7066275015361325,0.5781341349923204,-0.4187511409856906,0.10217060499730132,-0.017407647939203998,0.0392815006419906,0.2887948476388642,-0.05945272877556792,0.052490351428708684,0.3683538459155637,-0.1903556090497659,0.29194149259409763,-0.09046757785004556,-0.7703925872847774,-0.03743393772594495,-0.2858078250820653,0.010468887653100063,-0.10227060326231452,0.3845785094607104,-0.9785119753589071,-0.28158712427177335,0.6222881990445669,-0.20837446379953872,-0.9025324676256445,0.1283221440904735,-0.049505757516804645,-0.11218909941442573,0.2158064193456395,-0.017269516404440334,-0.0384117956686322,-0.1470121884604516,0.04352345856106808,0.05957549154947907,-0.07239438487745492,0.11392792110246827,-0.11847156088428197,0.08701546221940021,-0.07229784781160882,0.20553058645257524,-0.2288377067206672,0.04634541761734818,0.08173745250077384,-0.10038609791761352,0.1220780286346799,-0.03598381941176222,0.06096777690261784,-0.02956745359484359,-0.03649039271135258,0.08928139503176735,0.05042089742252119,-0.06994778501839712,-0.014127190735054657,0.04166877117517711,-0.07368651766137721,-0.04948838662762371,-0.034220732480785714,-0.026032351158623523,-0.0462126536675694,-0.1047126193294128,0.016246793761121134,0.049676978026536055,0.10729788570712845,-0.043739018482575935,-0.02891951362194636,0.02893021284719752,-0.022296561270850775,-0.05870455231317217,-0.02204679422991302,0.020311135372199612,-0.25095075425252833,-0.06727874888380123,0.08104642689973633,0.031394742184315386,0.03853123356980506,0.07420569072147973
57.760250091552734,0.8801002502441406,0.02262609562327123,0.05615412548888196,0.014976910560942198,-0.05676263736303558,0.04666204228209038,-0.0741699019181888,0.09751652645164649,-0.08334576339338783,0.005874429271682684,0.23055062428087522,-0.3954486029294507,0.0019712839867006976,0.07531397419854369,-0.12885003554227192,0.04357736634978346,-0.011452408642067407,-0.062135075290228485,1.6238440687161981,0.09786183746695983,-1.1933827843759868,-0.43238955564899406,0.008158526476137781,-0.07509432893899506,0.35118759042518016,-0.3422566990718089,0.31775852405901783,0.20876885222033176,0.06460157998156926,-0.011355408690106945,0.141392275195994,0.007759835878638842,0.24239271939774384,-0.2356828585911453,-0.31445594640808683,0.05808623455246467,-0.06001839608775342,0.0016668876609835653,-0.13863016962373623,0.01749105234004488,0.06745324976197284,-0.29097406712207885,-0.07584662797096971,-0.026831571773853452,0.065468522948586,-0.48080884534793766,-0.428123444222931,-0.7602848667814714,-0.5256960283057637,0.04140745353563066,-0.0926299986723182,0.10142723798587443,-0.4404400987213305,0.6912668150065059,0.0873730134132307,-0.05767206994737601,-0.07218604459060671,-0.0159357782839943,0.21662348762354885,-0.049531096712945304,-0.03823412617894025,-0.00026235741302335636,-0.01812077596396232,-0.03731750262192896,0.04501751734849489,-0.24093384170124263,-0.12318883489733638,0.10152942946870776,-0.017655485275184374,0.0342306142341033,0.031230426185583776,-0.09418501456441672,-0.0003050372862223028,0.004537052108340191,0.008144460134494321,-0.06391879827826537,-0.06304956730120113,-0.03228916517079067,0.0852829282315795,0.028296427430969114,-0.03662953387037307,0.09841952328096727,-0.030161342363811176,0.016537228140071473,0.06709065818066771,-0.042962125182971905,-0.00795708820797797,0.013938430382260333,-0.004455539349745514,-0.021494716884387054,0.11692261424463252,0.04600777633403995,0.1473414263125323,-0.06648795060381946,-0.12602142374298925,-0.012952589258257135,-0.05266608180783862,-0.07367622286861358,0.13438311550230816,0.07387674747302768,-0.01872888421591251
58.640350341796875,0.9000015258789062,0.011627819175383011,0.019329207545980484,0.01987550354614044,-0.07109096702876026,-0.1294579252708053,0.048098217118289266,-0.03438999169768099,0.043662672152885405,-0.13936685953699288,-0.04378351728645888,-0.23195329753766206,0.08042550205302205,0.06930324613695654,-0.023580959891625758,-0.1477377717126232,0.05851608507438545,-0.30216712411570634,-0.15321409208709746,0.050115840102536946,0.0744212629909108,-0.6975349074439754,-0.033598694094047254,0.6605924777858027,-0.2842840518781021,-0.1335826632230049,-0.31796928515680273,0.13655757594242923,-0.32415702586817746,0.1665078025789228,-0.11091700254592751,0.27650883100569074,0.23640989301901627,0.08256375953475306,0.0799106920229955,0.20805393405002545,-0.412651384620378,-0.06115410752710487,-0.17670509059085654,0.5387432834854378,-0.011776951883173969,0.45338895793780165,-0.3724538437135821,-0.22982585448430473,-0.5197513197316314,-0.03725399869738952,0.26039829116769053,-0.04919886507961249,0.05833523351257376,-0.7695615406501537,0.3155556730105117,-0.24071344340097603,-0.2597628128152443,0.07235777095856177,-0.04219600944760958,-0.05143628926152033,-0.10521240128593878,0.03706117866027936,0.09425481199171203,0.17936428686477082,-0.1944232655083485,-0.1808105363137125,-0.03688234676329587,0.026275363989510553,-0.02742016693874095,-0.03507856287220934,0.01632344185145674,-0.0389174287608852,-0.004305183508312145,0.02272035355917693,-0.004562178437072028,0.014755955801853678,-0.11946983764109528,0.08161712651557063,-0.10275900633709709,0.10751917710733891,-0.09460006198221814,-0.04982254721573442,-0.015633420641833845,-0.0011808811803763926,-0.0019896447770110354,0.014966888353364191,0.06772122257648665,-0.05647369998312013,-0.03632571877447279,-0.008091882036489917,0.0211979341371224,-0.06656812015644532,0.03936650310005725,0.014251708327159855,-0.08940651001074061,0.27884094637695256,-0.06453589836980156,-0.0657152305811862,-0.023455828867620064,0.0471580898902364,-0.05853800944428962,0.10964396492489754,-0.04756770825777514,-0.036630717502346685,-0.008516804222437675
59.54035186767578,0.8698997497558594,-0.0020475037060277215,0.02175921918264528,0.08764885896081522,-0.09363606258995877,0.03791478185042764,0.03527160238832333,-0.08808338027309406,0.10229977275544462,-0.10384823398193371,0.35289781512607665,0.2113138403819403,-0.3000827519055497,0.22245926848023248,0.0654945457080903,-0.02052851299970538,0.20439103481093487,-0.5234396809367408,0.31890678854614296,-0.13646225182848368,0.9440470987323696,0.021486628623054504,0.2546475855285902,0.027595020482680165,0.01878185026753848,0.11788172568408503,0.28136567450067246,0.08778510425686943,0.02196400867975605,0.10081120077285156,0.02279640518717875,-0.5675714034251901,-0.09894257430088794,-0.09874328614817088,0.22451908723479075,-0.06133473248605127,0.10366115271206024,0.1229811335025166,0.15928685632427397,0.2545117310994031,0.18205371628106293,0.2823384331422267,-0.38672466199087924,0.34460956699009143,0.03535328369325055,-0.14766604579520518,0.6068924870366775,-0.0741119473780394,0.6730913229999668,0.21306350296708287,-0.6747124893869186,-0.10262774464413614,0.6281104678398324,-0.04581838651607936,0.08173043946339005,0.1370187694491141,0.020781641876527614,-0.09581495127240905,-0.0894776540606533,0.00821675030355767,0.11988738144820069,0.17250296853473812,-0.014799309429163935,0.001866306760308703,0.06591887309843411,-0.015072047019937543,-0.034420745343106754,-0.03286069408850168,-0.09192342986752809,0.036878284678792554,-0.06751691939814913,-0.19589643794039396,-0.016459998887776058,-0.06442008630158828,-0.05240756413266667,0.05962232588996356,0.03655133537518146,-0.061542025675008716,0.006434951771771308,-0.10176611658665649,0.05645312692564186,-0.06562889954495223,-0.027391024274808495,0.007711623396228523,-0.043566402426410814,-0.06882262785759855,0.009623468199694878,-0.03510475565212453,-0.039346019378798495,-0.05897099300436188,0.0393880516641722,0.0055232750014614805,-0.06955659873435167,0.05425428958586788,-0.055051135240490136,-0.08528263776031489,0.10081959279046315,-0.030149570615382273,0.19444377288796078,0.02170491213252266,-0.13447426116773786
60.41025161743164,0.9801979064941406,-0.0191635715778658,0.007895387701597412,-0.10597898440752357,0.10848901945676909,-0.02927299759889285,0.06303474531993175,0.04176401092309043,0.21898662695527835,0.10367210931355794,0.4682681440198811,-0.7335470453913137,0.06735115007566372,-0.10715480683288117,0.12435926516046236,0.10796193791926963,0.11546920199775697,0.049835520466888064,0.9104635626691904,-1.2496075711918186,0.2271379394332827,-0.08320787198405649,0.08104246311381051,0.2319045586330154,0.024415666282061634,-0.014917531189858823,-0.013736388090808481,0.002551536590949758,0.1767923235602061,-0.21017190667221958,-0.041418992752981346,-0.133967127772287,-0.24064375877896255,0.12576795855191816,0.42161229458749405,0.09713997209093864,0.019844631487542168,0.02449750588037527,0.3128196105847207,-0.3031755153523389,0.8825768640594129,0.18860871759495723,0.26619642909880054,-0.7419080339600804,-0.3020500641836246,-0.32862391137375946,0.17271891761286817,-0.11701558627592341,0.17443073940768727,0.00993912412151253,0.04639085050221148,0.1890728640228838,0.0570671877382304,0.011517748104914126,-0.052513078076906854,0.03138973093931989,0.01569624179576666,0.08268097551517395,-0.05867900940728634,-0.08211766820714873,0.10170873091548016,0.03740588909250114,-0.02820242819219885,-0.024413596773629025,-0.004718891150381935,0.04615687260197106,-0.04026112884375754,-0.032768816059647224,0.19898700079173517,0.014727866840133302,0.06616115244935523,-0.061419990602330096,-0.02673639662265065,0.043632109019037524,0.024722296548879242,-0.057486523143295706,-0.020046547844175047,0.017332916918084217,-0.05888987216187859,-0.05754890921564056,-0.1556420424346146,0.1431041185757705,0.01769891217177293,0.05817768939516221,-0.03352854856252592,0.05513054453676672,-0.014706819712063243,-0.02362487382897735,-0.054687872509924254,0.13027643136871592,-0.008848161157465659,0.030581329253730617,0.1059407188570399,-0.1866663910800741,0.030186282959108992,0.10994233690694574,-0.02371402096025276,0.03227724173264551,-0.0433603228213109,-0.09509602487106346,-0.09129834064299955
61.39044952392578,0.9197998046875,0.06610651758219571,-0.017541465207658542,-0.020756013259188813,-0.19594872887300546,0.10356053165643088,-0.03054367957222763,0.2921057725369664,-1.388597259653507,-2.7576414060720023,1.6348252195354718,0.04063300486504894,0.24273250336845964,-0.37336032537084307,0.10069557631119978,-0.1650593088031231,0.06885710240092326,0.11235606342694412,0.11784260381961105,0.029915619064284082,-0.23305111704740647,0.0814900659597192,0.08357861567894566,-0.6136601900679753,-0.399298014372566,-0.340868935805383,0.07953364121529354,-0.040211275692981746,0.3900101242244044,0.5591869666783259,-0.309135034710599,-0.44415850585549976,-0.8542967206762474,0.620628612566486,-0.2610520452902077,-0.33098173523725594,-0.10148818486125848,0.36270614085710495,0.35418567400991846,-0.031750221771858045,-0.30192085648989764,-0.7082756140744648,0.7059670460077238,1.1303567184949777,-0.03482564134925203,-0.7585169878271378,0.5213626383411449,-0.890132733965539,0.025788174094364888,-0.5058434906507783,0.9592616988747384,0.9271970477932867,0.11110388162503601,-0.26391352106040944,0.04599439535763074,-0.05869918075205936,0.06632396382527922,0.019975957741373035,-0.027982815754843477,0.05701354022676938,-0.08628325968322495,0.09149027924018523,0.0035615520483547195,0.024857911300358252,0.05625518276315532,-0.06034590942910451,0.07403421223629608,0.07523733869318171,-0.08679282976532474,0.04021019296083133,0.04930394939477673,-0.02743142162130216,0.026812215997296877,0.00221674330344504,-0.0068451929847906795,0.041001846513987625,-0.048845180522797266,0.04143922880850983,-0.08583420218711527,0.03749070417291918,-0.07171934239081151,0.0562283909877972,-0.0764814130496361,-0.028356817496082726,-0.04752727620708722,0.0593883000952107,-0.019375073096043527,-0.034814245583260885,0.02897785434530708,-0.009620612311884873,-0.08914333584880171,0.07764375898451081,-0.03331464844797507,-0.015229858562036385,-0.028898687273938246,-0.014650921675821982,-0.09569909780443071,0.004904313429080975,0.05576951278636105,0.030874052637004105,0.11108662873115543
62.31024932861328,0.8599014282226562,-0.03319346948285699,-0.09944086393997077,0.03603214063072824,-0.026606818995096468,0.016973692887615174,-0.02581823551813589,-0.056647367877142724,-0.03485217361718099,-0.04718269118840879,-0.1024770819210015,0.056514815113437276,-0.024617494271698,-0.13239941307128622,-0.11329162312450891,-0.021383122939392894,-0.09192892386345355,0.49596357174607564,-0.008983060164854648,0.003982052028878183,0.2743096501850317,0.432815022795486,0.06105436781027477,-0.07760760251848722,0.03676503614050533,0.3767815113019403,-0.2057294822141434,0.37622706891787605,-0.3301606489054496,0.2574943023428596,0.26716161035834163,0.15721459992875575,0.12165803925045277,-0.035060703588902245,0.45054170821337575,-0.5735059578777458,-0.47717453818862793,0.515154191109098,-0.5864202215502982,-0.7771226993812553,-0.8158489541426808,0.17636350846728358,0.3958305975825844,0.19908455229259048,0.6537692920899315,0.20919446135181718,-0.2743808745515442,-0.040556377042232965,0.1423006256351455,-0.20766944888205818,0.6500053670268914,-1.5273819408950577,-1.2183120882923064,-0.14157075848052758,-0.01161981436432602,0.08097718151722438,-0.03436594759339541,-0.0589291961552392,-0.022301975784234936,0.009480513925190129,0.044753414572815294,-0.10432770236331956,0.09857440949559002,0.010617434423633889,-0.07154518197605825,0.19905743425348738,0.10482482661213725,0.037550229495390344,-0.033895600130683635,0.1714463293544595,0.08260542871060698,-0.04910508563868639,-0.0034853744967331957,-0.027599562967511714,0.04728593433330533,-0.09349199341940352,0.001252038988857878,-0.021837083806699922,0.03848225978366564,0.03386249946449423,0.09097676063061888,0.022997626396165094,0.08220063041810231,0.10933666279735595,-0.04821965706896656,-0.1022567686867517,-0.17028724992985528,0.037015204677573514,-0.009016086651733774,-0.04500375513338267,0.02675490885433888,-0.0137268398620559,-0.024992773391300085,0.0679316857612508,-0.24115329615281528,0.11057970872321919,0.1061660856664922,-0.019447602341381435,-0.07381167140181337,-0.03315474749434715,-0.041835214506941346
63.17015075683594,0.889801025390625,-0.03417825423699413,-0.07363839697875177,0.07548738833308881,-0.0180541866576809,0.16962554904539764,-0.041287281120614076,-0.04284410608915724,0.03338616912194296,-0.05785116360187804,0.14824476673016612,-0.33975782118612446,-0.5282860566323159,0.20671593964044288,-0.22069569959217042,0.3745297616313017,-0.5668485826645477,0.21082143768424183,-0.09794352459464606,-0.8119125692191772,-0.15932504914949314,0.2656404428105813,-0.5387266966058908,0.1300756525327364,-0.01643532702894568,-0.3628951069253131,-0.29168057475898035,-0.1883912175059507,0.1756389265046355,0.09656552057621604,0.22156620767657706,0.08040604730166864,0.4877607357615612,0.03728475298209346,0.21879192032964603,0.11056369573454362,-0.18660127250677155,-0.04967690901219653,-0.6172419448770801,-0.12914407734385466,0.17110822411715093,-0.04583232144522113,-0.0716113255439742,-0.17564488361150565,0.48633787568950554,-0.08155877553010293,-0.6202778183501684,0.10955076515563232,0.010542741370491465,0.3031541817591316,-0.2040333322279787,-0.21603240579295382,0.10960221719906105,-0.022604566134327517,0.008831174143857281,-0.1190236316887967,-0.10253094497669595,0.01840148013796358,-0.07409740257595263,-0.017751035886132638,0.009773152319573127,0.11616698658124935,0.00330128419764841,-0.15612912490409708,0.05987444764403484,-0.15863390458329873,0.03493105493205084,-0.15070292890934417,-0.020923329887043367,-0.1341415524204746,-0.1241845626996954,0.11148787902102102,-0.04393758498089089,0.0850040720017875,-0.0007176181641908612,0.10488320208244842,0.07692701780625678,0.008288998126968022,-0.04184468609692388,0.03410877059320349,0.09798357959207388,0.09480390873717398,-0.009703694671792246,-0.007505121740648595,0.04705216961736759,0.05210722840039974,-0.023748664998091286,0.1048264060879462,-0.056616598770121485,-0.0848775984754254,-0.08843960008115184,0.05167105297607935,-0.11280732184962047,-0.03390759870350888,0.09851300655931305,-0.029971237397367213,0.16115368007426706,-0.06590132172655913,-0.07827300396048681,-0.1808434059904238,-0.03775689993701742
64.05995178222656,0.910400390625,-0.1746439982600132,0.15494816440911058,-0.08782367539225779,0.0034807817236903018,0.052142103050189396,-0.05280250873452513,0.019441804672484055,0.04289538805211002,-0.15387512964834626,-0.009236046992115355,0.0010577251963759249,-0.031079048370331708,-0.014042132746393599,0.015037362659698225,0.09640080277277775,-0.39434733064883326,1.9500290502431719,-0.5098950011938181,-0.12065268130417982,-0.7093783161237327,0.4334871420774885,-0.2711544525694191,0.38286987249851134,-0.03529223685002374,-0.25796320158252095,0.5268394610573841,0.38283814327413906,-0.21779519782774134,0.5905830288719855,0.12334405099935827,-0.12297947791055697,0.016102679218761382,-0.32128158117319905,0.3661457112670772,0.05680812666465426,-0.5738919929899685,0.26181382037680023,-0.4181746979895545,0.36910362158554183,0.09308968491139771,-0.03262876138948728,-0.0897912608113284,0.13348813871927917,-0.09529679435790374,-0.06183530693126022,-0.5876370902713073,0.40959663110885125,0.08905846103699647,0.8893496157258376,1.3026289713980947,-0.2953482052562955,0.8936217474683011,-0.31837621930693405,-0.029679557467982898,-0.07220108272463029,0.0883497782880356,-0.030748696820993224,0.1833431777387321,0.08452747839844892,0.16289515762448128,-0.06795768845837886,0.010410073244488227,-0.059285359500757084,0.1523204377387152,-0.14217280835586643,0.08389067773394512,0.13561645488140678,0.020378323429799262,-0.04858256853881348,0.11198377914728094,-0.003482190608044269,0.11357130672591287,-0.10877710733207996,0.048502014644908185,-0.16125664292206487,-0.13890761591341846,0.02905517460167448,0.012258865757893913,0.021903155606058617,0.028410416369432114,0.10309223397493955,0.0024044397339947343,-0.009689295302287862,-0.15113184395152363,0.019233483167437698,-0.005783648035626093,0.009477007686657001,0.0728037622215554,-0.021644228010212943,0.029150662844848768,-0.027869160074841325,-0.022482895442129978,0.019780482782223358,-0.34982880148274076,-0.07086513768423812,-0.06869193062369292,-0.1273061723319818,0.11700001252029604,0.14147936641346703,0.1286158894825699
64.97035217285156,0.9199981689453125,0.1276097784600676,0.19636604140913919,-0.038441019815978944,-0.06195886769103839,0.014764820915644192,-0.03943706529380633,-0.03616474997232776,-0.011030116545126978,-0.10882932319025701,0.16666383715605912,-0.12715198165328268,0.1500454153575899,-0.05793595913625907,0.7082100661854116,0.15653819311736597,-0.6574913820542782,2.4926621665161814,1.6008770162221315,-0.08044778839520984,-0.5852323176650932,-0.29622289941722496,-0.0052376587802216885,0.11521911904931446,-0.2015847276024642,0.05138494829830948,0.13606447919710382,-1.1365137732449737e-05,0.34413040069516465,0.02816397645633102,-0.08162210216530535,-0.5454221071085972,0.17378923170100277,-0.5231826136530563,-0.6730987028083512,0.15709482122415278,-0.16159082134338532,0.3421273707124203,0.14069427591247113,0.21833554384964723,-0.2926608037692057,0.4525551338946685,0.19441496836673972,-0.11175391197793981,-0.6023178607895278,0.041696091703656325,-0.14226159343024225,0.3946796773991486,0.03651677220160551,-0.6369124902034828,0.21448169605038936,0.10382087488606151,0.5963123374501653,-0.02749033688735561,0.005447048561878932,-0.0190224389404825,-0.11897753215222587,-0.03671697401506662,0.1276486407029587,0.13680484155956285,-0.060501724797103966,0.05518317371914493,-0.006879492798441694,-0.036265829551183154,-0.21635741826390353,0.059442670359559684,-0.08037032747910584,-0.054742180427694964,-0.036618536512307114,-0.01220624160845837,-0.03604873971834956,0.01544088682118443,-0.049983279140186625,0.02069735081500003,-0.019145132718914507,0.08469024148511912,-0.007789665454195613,-0.03234034000671583,-0.0051833408058784836,0.002982668546010753,0.08451144805874969,-0.011083038636078613,0.01020027627063097,-0.18906777030706015,0.0331686269428997,0.0008276413623906909,-0.03563554839813756,-0.02582258934475166,-0.045159620939851285,-0.11227834478941745,0.06933147212519224,0.026948021222164484,0.07990092239867642,0.08819109678198984,-0.23597601817008815,0.0021052148331818926,-0.001746676957533823,0.10899361774960924,0.0672289183109784,0.025853878654028578,-0.13212178248356396
65.89035034179688,0.929901123046875,-0.11123839700119084,0.022707673172173905,0.022225296243244954,-0.13642120627153723,0.04351866710275378,-0.0044706575673465615,-0.11564202871016654,0.05970998283502166,-0.15724841857911392,0.01654342383523332,-0.014053187031184172,0.024215436781115842,-0.10734411160789821,-0.07094117244441332,0.02149309929416269,-0.04277567521821628,-0.3617704925598544,0.024794704819596752,-0.6102603732206238,-0.22150221829320244,0.4010557945161515,0.21862789008147188,0.14416853309097963,0.12470711196973479,-0.23571858104725046,-0.05514771351056927,0.09497336290061367,0.0508299488960163,-0.16177168103378164,-0.16925178624562384,-0.09925443953446984,0.2503004132779468,-0.08594595505791176,0.644934513779875,0.2297065642082682,-0.5802785630773988,-0.0022382061133305875,-0.2902536811020918,-0.3073469702335204,-0.30922924461934137,-0.2999631728154958,0.3806014396990291,0.4289524972259928,0.09567003067978003,-0.6115575785086709,-0.46373405111138644,0.1832800089020996,0.25380768474930204,0.24853840324129553,-0.16255270476984096,-0.44108264081663207,-0.5502041228496173,0.17936847730326827,0.010924922956723357,0.04988269176077846,0.07480867386480995,0.055821959567268147,0.01926999319830247,-0.016409519831054067,-0.08828917500492812,-0.10161770373490468,0.03565610987619605,0.13435923382368373,-0.06156485505716938,0.03600107760795546,-0.00580701433113945,-0.0046741168350978276,-0.03500783122606997,-0.08889243481960588,0.036873558704902214,0.09789924544635464,0.0448695945849898,0.022141563831216494,0.019391302603580546,0.10467768492639036,0.06954271383229935,0.09121713892955985,0.016527546932622417,-0.11419576794288125,0.05874516101553031,-0.03867276206300929,0.02721858394418273,-0.02013170006747316,0.007137407132660097,0.006896571257213374,0.05586805924914261,-0.05265016035888151,0.0001273424192905306,-0.012817529315270453,-0.10335076575528147,0.05721903812647796,-0.08430009937624572,0.19278595522388525,-0.04681787943523229,0.2845078378742734,0.08818555561159802,-0.08307430749102704,0.005912135708032094,-0.2326353252243727,-0.003631186298631378
66.82025146484375,0.85009765625,0.013560608677736917,-0.02218149511614615,-0.03327533590633727,-0.018200059528030804,0.17767610780348606,0.0057754613620278564,0.0024543015810388237,-0.0649292744491487,-0.020602629820936386,-0.002608181506390833,0.1825234049628562,-0.0722334951103587,-0.047241178313701275,-0.20015835796115083,-0.2992896751404946,-0.05957366825839143,-0.8680734960724112,0.6390698201836331,-0.3873587036566596,0.9791948388744929,-0.053140018536591116,-0.18285227414202207,-0.46972867355948433,0.2518502433610071,0.07254465695240021,-0.05604820990018253,0.07734277576598397,0.031372525250538394,-0.06108327839949898,0.4187395699052694,-0.22569022053215085,-0.027000459625562287,-0.18345398824178,0.2147639494157116,0.09569056384082417,-0.3971790713988131,-0.14227460981809817,0.375275302436606,0.12201279530331166,0.19357460292485953,0.16435343136526917,-0.05155882392657485,0.5825976802617627,-0.04359461938451906,-0.314329251007552,-0.46518800326614795,-0.587970842324187,0.6711023525729931,0.9493573516492457,0.12950434675862993,0.13482914357642511,0.827718771726993,-0.4072243825010434,-0.273940774009786,0.12378383078176759,0.19208500074434087,0.02865729670415934,-0.030712608837169735,0.21484996673716023,0.06846882151641207,-0.009009094801078754,-0.13343390301618477,-0.034128602405897865,0.10556449370180022,-0.1684855811137803,-0.023023360236381032,-0.09570216972779433,0.01050365050971988,-0.1743357834104391,0.11757907163677209,-0.12347013482470674,-0.044275322118966655,-0.040673433236246295,0.06899396989585314,-0.08082781144470821,0.04450073163742575,0.0671050463543674,-0.037931997480240634,0.02144271716759183,0.0882011115932784,0.018565103592904003,-0.07539591899895597,-0.014317023471410145,-0.07311888775130707,0.028326773857973025,0.09872066760395078,-0.15268555159187303,-0.014203854438175723,-0.06271037312804821,-0.045171377758048074,0.08271393760021362,0.09305933880120276,0.03613799979477306,-0.06419687130342061,0.23064854005093097,-0.06951471901909743,0.04955017293008421,-0.1393058865959783,-0.03745058859241462,-0.15103595906084516
67.67034912109375,0.8003005981445312,-0.01687375016486492,-0.0588404685551367,-0.06286192552680342,0.01226861441467722,0.10385649813597127,0.06534393677963483,0.05144937512871736,0.0678151541857707,-0.2913325934368448,0.14575447232604088,0.10541089363312003,-0.06885208975803214,-0.023695399684711863,0.2748166908506997,-0.2696788423803802,-0.14415734711626663,-0.3546996214930867,0.6656262561711936,0.24346415337245264,0.0012275435334263961,0.030561370663238916,0.37431908635859795,-0.15535754444328842,0.19376833315954492,-0.16537413046991345,-0.36919705115755613,-0.17190843532103828,0.23350866610761928,0.24819872937120793,0.45294313910868406,-0.4772718437072978,-0.6393221321078896,-0.04706806724873949,0.09672451807990008,-0.20048438660573498,0.01941930135754093,-0.3131664911026313,-0.10919999881222137,0.8615921436112722,0.10844216983600596,0.4015267326923358,0.07328472047897575,0.34684567615483425,-0.0036974571494730324,-0.4045329407575387,0.12503975802640155,-0.4413264984372779,0.4222026694088473,0.043262511644191634,0.41599297070912167,-0.1226387057985396,-0.5496473073166559,0.47944848061003786,-0.12279777792405984,-0.06980320850664909,0.07050010615194349,0.00737832260312844,0.06878075326820336,0.03661821945951685,0.21557740175092058,-0.08970431096557734,0.09088192439046656,0.028794530330485693,-0.00523243009683726,0.03181862416592923,0.021173040957512063,0.08570807674880165,0.007889403118824962,0.2217534473542996,-0.04253130740145598,0.0420839902592744,-0.15233172575752707,-0.05234958387312856,0.17845650881003636,-0.023380250174183458,0.0510030289619921,-0.03304435921935181,0.15094516560360516,0.03205822751466463,0.04126382709043815,0.030172554097172437,0.016445629034016758,-0.10551439886099633,0.013910534355001855,-0.037785832222433494,0.013063655525015289,0.060339560544918534,0.014793146595539392,-0.007352456818717719,-0.0005713276398585834,0.05372300145575548,0.02746756827470319,0.13563251588605282,-0.2153097627181269,-0.03601094899795582,-0.22014310549861954,0.009406754750845597,0.12254865012941031,-0.06879530468502072,0.0558897279393476
68.47064971923828,0.7995986938476562,0.18368922291740464,-0.12925987916361836,-0.03250482823190704,-0.025760422936552865,-0.09367265018536908,-0.0065359885382411664,0.07494217654634051,-0.13254999287470953,0.08527011459285735,-0.10333540584520368,0.04363789260721287,0.1521183051082401,-0.37912944682762784,0.7012917763820121,0.16485112920597345,-0.12970320636308638,-0.7280224706544045,-0.5281043063014813,0.6123146891298163,-0.4701586732922588,0.12110194664367843,-0.38793358441606995,0.22261002158907056,-0.009045048036349217,-0.08201956238558585,-0.14587121272885872,0.18030658903017163,-0.01061200169218738,-0.011390746468052437,-0.14833649896315673,0.3267435416493401,-0.0674650880024063,0.4228573948037408,-0.5511773040434969,0.44479777643939067,-0.2805238874271891,-0.43354635069277336,-0.08506647741918322,-0.5049167671485676,1.141375963814513,-0.22340246244409623,0.5363720133579439,0.08742206026904914,0.26915672850981776,0.31697163919417193,0.4066072751938604,-0.506273417957867,0.12347987051824229,-0.28252490915168016,-0.16130687459746468,0.05236430931631571,0.06555911623773691,-0.027583962700673238,0.07959916985161813,0.0351565176885663,-0.03629852040380216,-0.003099924588184682,-0.0731011798907645,0.09378450573125213,-0.07485049177480743,0.11601390601196515,-0.03102008241319304,-0.010267040543357026,0.006552996496314701,-0.044073826708908435,0.033786547693146506,0.08268782065563209,0.04540374997601221,-0.05165091652149272,-0.00902969926283816,-0.2175364863708794,-0.06830313963583527,-0.019146689554278413,0.0492567559015535,0.02522200429157996,0.010603203257239582,-0.008870757355948083,-0.028609858734629297,-0.05027138198805357,-0.0709270514514237,-0.03220182986504586,0.06760420481133053,-0.07563035362559943,-0.015960346624406718,-0.016576004944048824,0.068935721405388,0.04590885744686417,0.01271868365975171,-0.006955741879865113,0.08620465858546329,-0.10075066653926226,-0.019726825184085552,0.23701858003368179,-0.13519547313987346,0.027010019768843402,0.08777828829348908,-0.08429683031112464,-0.14714765036015875,0.18862762562035293,0.11131840110918317
69.27024841308594,0.8102035522460938,0.09067661094320338,0.08208924685804769,-0.18580664125037724,0.11136464601765587,-0.018748325634278275,0.07518396997325238,-0.10683395292433055,0.11795336647973123,-0.05607441727469651,0.05078261676635572,-0.025517259790724625,0.001462075686401422,0.07408390890658877,-0.12188699294998284,-0.15556162441606025,-0.2870428178163484,0.6744070042017111,-1.246348856355822,-0.41911291178943405,0.3229188501165526,-0.2301246965608812,-0.2566478489094242,0.36351364819414184,-0.17146610258887784,-0.1697664807782866,0.09788277008016101,0.10980871074126891,0.27579103856532017,-0.02261167553787492,-0.28870262347706044,0.3140189414297925,-0.12333553140514468,0.39653051631040853,0.04397698820188834,0.22654826009761492,0.6195930458239942,-0.1855029024008903,0.27764571137883726,-0.24426984248380434,-0.43741495933275126,0.0793991393672383,-0.2644973135215946,-0.3516993035528525,-0.24865630070719577,-0.11066846528460955,-0.24058114654839946,-0.2716097250843941,-0.24306953565872783,0.17658187367953718,0.012655027333822191,-0.003996896723001849,-0.08998481227861517,0.008193696509019383,-0.013357517979234776,0.10077421240241832,-0.022018593740225814,0.017687437819820143,-0.09121989240123354,-0.0478290216439776,-0.06215836213644286,0.033547660336052526,0.07984778564957824,-0.04670904605261836,0.048319848181016985,-0.23032632196224256,-0.11209970039439722,0.04836436250788505,-0.09977880858892382,-0.01113849590198597,-0.03343189428558818,0.006426950499922689,0.032961126500917835,-0.0723909213786483,0.06569315013888574,0.10066954643982688,-0.13300243365883993,0.018709089204849386,-0.07977026447649677,0.014709087977323412,0.08404630967175125,0.00912812396101001,-0.07348471093618149,0.009705860099205838,0.05374935600172702,0.14284388443321033,0.04122537018971094,-0.035301060425940084,-0.06819909737913882,-0.08713473889522108,-0.01445265162418145,0.13910649867183342,-0.2825398601020042,0.22598916232839072,0.036880279308935164,-0.00014159513872667034,0.1432508762212523,-0.03771213695164989,0.09313426088777461,0.025106447061120647,0.06602998539046545
70.08045196533203,0.8194961547851562,0.00418069946802313,0.03099920167532906,0.01674989333997101,0.07802464868734324,0.057134323766730846,0.03481079455132052,0.07242738085655671,-0.1162565878550606,0.14771861097635644,-0.010185769378887106,-0.0065633264425621896,0.03346575883950763,-0.1632763902376567,-0.0236724566663021,-0.39716141289216633,0.23725190942338512,-0.278325182207609,0.759640636212148,1.2040747605009234,-0.19146894960391542,-0.6772143470948693,-0.037527838412224776,-0.2598579195762867,-0.14439502842336885,0.08449339456924691,0.08005522734434822,-0.08118938379728342,-0.2239848094361605,0.09317369235988848,-0.48326171150986186,-0.08570275972591665,0.15881531103315533,0.22017172679356165,0.1139282346400773,-0.19297256895385273,-0.15212828345553195,-0.28785451811560936,-0.6871354520368114,0.5380654896150554,0.07372927515620308,-0.6516143833918354,0.7613251458571114,-0.017106101129613888,0.08608699212019714,-0.1386910920276807,0.48852283142591235,-0.14116162665863766,0.12271046738394661,0.1547541582715532,-0.11039836095158109,0.08753795408844499,-0.041920057420069955,-0.0385373275146443,-0.05763404352631706,-0.08607016320402493,0.013596250762112504,0.16622038985643595,-0.019443311709995942,0.09524491077242572,-0.14199044780247488,-0.046989541642739344,-0.03790386773464871,0.012931769988318936,-0.0570312855072086,0.027306097437448114,0.09686868451102273,0.09523523131531715,0.023587965864071393,0.014650081924529556,-0.01968204235637451,-0.025454319412808745,-0.030778833246322482,0.12890531982816156,-0.05167248746230736,-0.020136564164033775,0.03906059773041132,-0.04074405721369504,0.05987052042249347,-0.05174860603349575,0.017338107855322783,-0.06127940169787506,-0.028614158907843364,0.013785053685011645,-0.0012335251920003593,0.039666441445944736,-0.07507014084847846,-0.03406315250288914,-0.04637018544529294,0.05259076215069362,-0.012962400451797529,0.045800245843651714,0.0685912844131227,-0.1576115472783801,0.020270788680414882,-0.02723000045726152,-0.19451574852950046,0.11366090650167235,0.04490776866456113,-0.06250730692568303,0.09138476637343095
70.89994812011719,0.93060302734375,0.11866862395543237,-0.04653726040227045,-0.024607681683818095,0.00941767645287765,-0.034588016508991945,0.06336812429378527,-0.03531419475768606,0.17059877091527065,-0.17213879350014785,0.13316439046658496,0.19906831318238508,0.2104315506096035,-0.004909410578556518,-0.06902182178554234,-0.1637280233052534,0.37359301609019546,-0.4322376176384413,1.024506876386038,0.7955304035079845,0.16962669047263937,-0.14466581552386848,0.10893413798023203,-0.7195796810154181,0.2804981202778575,-0.24320607631059457,0.4548245501014859,-0.06015662863219321,0.7267470422620927,-0.06407587810653398,0.19087543855154415,0.18219121948689518,0.39374327413414556,0.11898983804736617,0.41123433340770554,-0.2068795774320651,0.08218372084434117,-0.00919075616592041,-0.44111242232786996,-0.46720960208135465,-0.5346574216726687,0.7086422319778192,0.1628501623314943,-0.3842162327380856,0.2946523871582874,0.32162449447883895,0.40790390104749624,-0.6344248598056792,-0.09500874419855501,0.029049194163162213,-0.35378593683467824,0.19899801141916457,-0.03629785982564435,-0.009727507255237307,0.003751281200401694,-0.06861713386072932,-0.02979920050445052,0.06200061502657289,-0.09372289048531836,0.06349048671145704,0.03684732461996176,0.029683818938641134,0.055428795119536974,0.01993898357942738,-0.104667523281776,-0.029796769455511955,0.12896003387126176,-0.009839914914377202,-0.03175444588171304,0.014908845752564676,-0.05214342293533128,0.015475833512477749,-0.04435265707689583,0.017570564526770215,-0.04263366738712138,0.12964954963135072,-0.0962462794172665,0.0666415210621352,-0.019553402551557762,-0.08164669656853037,0.005049822914144986,0.08052409254560607,-0.11010503208494962,-0.009020783654259184,0.038518320150696936,0.010319914258468288,0.03410395228051474,-0.058005219523247255,0.059445062678830866,-0.0015489418856283656,-0.020148782714513983,0.09135868509839531,0.10736020400822059,-0.009153079557445688,-0.04989068251113822,-0.037550656598944,-0.009365969254451222,0.09795572237574071,0.07828868477761138,0.00671856702863835,-0.06601947297648694
71.83055114746094,0.8600997924804688,-0.06459629187159122,0.05300517892477742,0.004297874012334167,-0.012100390740807442,0.07461517277519607,0.12693717358821863,-0.09917011075406004,0.014015780552879756,0.2546739005338454,-0.36776670111434856,-1.2989830661818327,0.2959475150016909,0.13876978885971109,-0.002615224682508438,0.06391270823274249,0.09177416511912466,-0.20641634702826805,-0.6875343136019796,-0.1050111302015465,0.49034179015890156,-0.3437095728391411,0.34236342653665014,-0.590087597359134,-0.016904474525379173,-0.009712556354976504,0.20447233828552241,0.242369242703359,-0.6633687425204536,-0.5719222259720613,1.3223453239160818,0.34135975951549863,-0.08016297173798156,-0.016698380025185637,-0.6557179858945815,0.3617635468081188,-1.0486302750011176,0.7457559293492066,0.15398329270315256,-0.07402331084129406,-0.3102295897589993,-0.0843825184815558,0.07280475971025584,-0.03919820736701477,-0.07416135466711611,-0.054188238698694706,0.0037412257958638444,-0.25892158500292334,0.22646402165070895,-0.29540278910409934,-0.08787108210436095,0.039264130331736175,0.07650272664237796,0.025231481180345808,0.0882200024627498,0.11393716628450576,-0.07664431837978772,-0.004777190936243594,-0.020181237331222256,-0.21020043053659,0.027874561095986815,0.027538274111759135,0.014944355370994623,0.015001220083358871,0.11711324054718114,-0.05130949218350194,-0.03887515739790495,0.08650463775339072,-0.07695247489364038,-0.054834676949851856,0.15963028518381825,-0.03429447635763991,0.017269466409530407,-0.037512603858094906,0.11333164479485475,-0.07969187832506115,-0.007830079075616274,-0.034736927320890065,0.0863169127686405,-0.02974739797530974,0.08862948556099684,-0.05178955165549429,0.05800349323834714,-0.0004097407742133692,-0.07961421086403209,-0.0562727525964233,0.09080165567913762,0.070608967891972,0.06842201037233141,-0.06358740965389907,-0.07182959990950301,-0.017090111955447695,0.017613342662993043,0.10146411424705691,0.03494131530747506,-0.007390602769232315,-0.09218846835401961,-0.03635030033832912,-0.1100306775906711,0.0010039698926964588,0.05772310230116902
72.6906509399414,0.8498001098632812,0.04395389409767861,-0.05491647337759302,0.010294608401328578,-0.01372975330882656,0.0018692623402612116,-0.022407375344080282,0.002430869389680762,-0.03423272981369124,0.01889857868562757,-0.054775470849618535,0.010404225646644416,0.2062115710458103,-0.09090582071281689,-0.018087590940340043,-0.10967780532238935,0.11141367630610208,-0.5678719157453007,0.47054567785518137,0.4280165237834081,-1.421747831352483,-0.07081442761084492,-0.232661328978962,-0.07271784363703039,0.5938442247445618,-0.35999994725471074,0.15797686591140592,0.14631040072967297,-0.5912863439120986,0.33127093487033993,-0.2131955387769494,0.055486814283563016,-0.016726259248758563,-0.0781520575392829,0.22427354884946127,0.7756832048650224,-0.35415626355438584,-0.03624938633078888,-0.061840316846951945,0.5729732269794442,0.28441634181661346,-0.48760805268236135,-0.1066444079882881,-0.3460404343374617,-0.054049948129940614,-0.12258672915421244,-0.48856729688618056,0.8128990539497254,-0.2479336279249017,0.2876064137430353,0.08203819346306437,0.21900909700977136,-0.18129724023270605,-0.015322484733889682,0.0412369435629628,-0.0022809139790381516,-0.01607696087535151,0.0044273085525605195,-0.1480928222462526,-0.08125437665999867,0.023196941309696226,-0.13480209142659363,-0.028515829898035694,-0.1123529504268175,-0.07002485569741337,0.03614013473477776,-0.00801195533474812,-0.156284307215048,-0.004620082881769368,0.14670702461232643,0.01653886843153645,0.1123355281383436,-0.004563230094875886,0.08135212427251344,-0.07042864534070817,0.0038658243169295437,-0.045885345458681684,0.06512872065697986,0.038119946059513944,-0.010247907315193268,-0.016720862094430054,0.05920527118837684,-0.10044367845103629,-0.022033877925420674,-0.027465730738423122,-0.035260362280637454,0.01028510863072253,-0.05728977370584353,-0.06367238560905564,-0.029992896952276197,0.04602009956036085,0.0343942224654144,0.2067952524117923,-0.02087870702340741,0.10933100363628277,-0.4543586743882796,0.05407149492491403,0.17174663848747937,0.05117467420337751,0.05678201162022685,0.028269953716966292
73.54045104980469,0.85009765625,-0.01606767631407302,0.04356730152048547,-0.04757790457794098,0.10807668981360573,-0.1262957099054164,0.08078027875865378,-0.01988290688844288,-0.080437805204538,-0.02660634554459879,-0.14171572112203873,-0.1317649062393738,-0.008828446106226604,0.0073123265357318765,0.29036257069816185,-1.3640245259751005,-0.21154530145543207,-0.7177945384306974,-0.4133863025531695,0.8042247498777985,0.2900406112826478,-0.04749905504201921,0.2994539244935437,-0.35247217049791907,0.2473665189266549,-0.007491131527667311,-0.03863952779261183,0.30237162015784247,0.12603531506062018,-0.23028318014648202,-0.1264379564292262,-0.04194870188577958,0.26589635544554713,-0.21216836621010288,0.1951572807621232,-0.24294577217919205,0.582589620784292,-0.3705498512797064,0.5655087391424448,0.2741998084213267,-0.7506675588320438,-0.302946027424994,-0.2469411834519031,-0.06585679911835894,0.2989989639447439,-0.38438200590674326,-0.7823318217398441,0.1642857136564996,-0.23722231148236056,-0.15678769813455984,-0.29966472467226274,0.18280000920786316,0.12529566732528766,0.09356690983573035,0.033062707460269375,0.0791145190183481,0.0021057716884885953,0.09891750528013073,-0.0767597402630496,0.13766838718615956,-0.0008061432245124456,-0.033573584719723326,-0.035983356346131,-0.03766174067146039,0.05802280009654709,-0.0829805087087477,0.16405274233209224,0.02686227636188127,0.023381553872772853,0.049460612314320945,0.10028958860012768,0.048233852726499465,-0.06218094190436356,0.006308431633143315,0.02968382088593333,-0.11062752350026404,-0.010164729864791403,0.10398788572536698,0.07848637429851507,0.0765510444427817,0.07985948768564835,0.09392641416379788,-0.0878782961290292,0.0009945248570397205,-0.14160251668383333,-0.04248258468779135,-0.07764805251425388,0.08994797896145293,-0.02931997586985611,-0.028299635695840847,0.001513606234938526,0.056556059245639625,-0.0771140444976648,0.07449486499604477,-0.14274258445817473,-0.09453619628828604,-0.01757117156040367,0.1445320305578557,0.08955665476157126,-0.1279112002373445,-0.1883546401821686
74.39054870605469,0.8600006103515625,-0.035285558451036286,0.04198179281836735,0.012068502289789576,0.05878529430604826,-0.06535733586708152,0.06721250311200472,-0.028903675663781304,0.019003748052616787,-0.06797020654187964,0.11230801469142976,0.24103135354255006,-0.39190939113574114,0.8687951986286423,-0.23964357208325016,-0.50955768840441,0.17891533253070613,-0.28359312327034114,0.4991596355619379,-0.23951620620929337,0.7278418430499756,-0.14194426750330646,0.2451221918947824,0.05498694207421238,0.16426480672034102,-0.4614974380458905,0.1321230023390127,-0.00561554451370818,0.46897180700674823,0.04182656190719771,0.4046924549181323,0.11634888351688326,0.6477511813589417,0.519721511120121,-0.002290021393206703,-0.20207923535152256,0.01673819113472748,-0.4326618526312644,0.2028517206415377,0.2054154279831279,0.19016916349326374,-0.1912982462930583,0.7952697334964086,-0.5755987370554215,0.10058463196971427,-0.40174028994332056,-0.14983317435873167,0.537060487045335,0.26541562821965203,-0.010608137584447834,0.002306050503192443,-0.07904163884672018,-0.01981434250927843,-0.06128454601534571,-0.07388833591556347,-0.12430638673656408,-0.07388094799536049,0.11639025859010071,-0.14136943252038525,0.10938907624082997,0.0052882810127018705,0.10645758692084023,0.01706877978080857,0.08953646418218339,0.15686547087939035,-0.033414249631940736,0.15623826872463584,-0.11959208852758707,0.010762626794247776,0.007573595256141239,0.031760228033003185,-0.005013569781787089,-0.02790004270458193,0.0764951711663375,-0.0419908259488391,-0.040709819295571104,-0.0507509785756637,-0.0767142199574133,0.05343415800990861,0.018524846362078906,-0.049844343522632645,0.09410888630710826,-0.14333039305747858,-0.06420437074079541,-0.04890026514748032,-0.09889781275210048,0.030591761821980985,0.0043268455139676264,-0.011408933893479852,-0.023735482653496377,0.18163438246033176,-0.04731784929482448,0.056158982673874785,-0.11149136943569156,-0.18055708798165335,-0.0016415947003676694,0.11783603457501515,-0.03958250246536313,-0.08735999107768663,0.021321724128231908,0.0823112930666218
75.25054931640625,0.8401031494140625,-0.03516421887436855,-0.10124471860361701,0.07688505611146229,-0.07985473744134088,0.12520144726351043,-0.03176638587701307,-0.01670906708662249,-0.09867482942039368,-0.0001953447855919388,0.10707286592339497,0.09041927447212045,-0.08374596022482297,0.08179297490975636,0.10298859354300935,-0.04654420854636796,-0.09735257180702618,0.8529201106000043,0.2906042279707741,-0.87912161581886,-0.11209573450334767,0.1368793381774466,-0.10484590032801445,0.22970909282842417,0.10658909301993727,-0.13987803809043314,0.581246480807792,-0.2273218792236238,-0.18209209729274828,-0.35991304894302123,-0.44561144192541235,-0.060336400998526836,0.4181744377450247,0.04570446951758153,0.6607083240922258,0.2577038095007257,0.7362193680823849,-0.8474176320555136,-0.5376649404170007,0.016055447504206274,-0.6374075381831869,-0.011908299971036533,-0.14428432130890148,-0.25004849787081496,0.028417339888256926,0.24669832608848782,0.6618888400883165,-0.22771586856848772,-0.0631213646706891,0.43248818428569347,0.003635877140177074,-0.25336195956368196,-0.08234446241289373,0.10510923095871333,-0.24086833115629597,0.06841013387143421,0.026467128906344308,-0.09179021590776151,-0.03736116462222065,0.03383682147832236,0.0895926391852939,-0.1538301291545191,0.1020172746878301,0.08972571305199965,-0.04087005387205336,-0.09912589174543346,0.13021697494831386,0.004752421729445796,-0.04853548746555193,0.0657466582128316,0.10412649209945705,0.05360384113326708,-0.01846864250566787,0.013568438067696784,0.12695391916960175,-0.12981910554345363,0.04838537201609637,0.01019055164946696,-0.05295605727241384,-0.01931706086267764,-0.12706283457911974,0.06428083207034722,0.020401768306677934,0.07375487872023333,-0.04294593313233067,0.029307971894259224,0.02396569111431454,0.020203052715976583,-0.03127755713625338,0.07501646852157526,-0.02199719330819417,0.013574471600686758,0.06497643192962606,-0.16828667644271494,-0.2522355011006481,0.24422915551898922,0.06542953783458147,-0.07576526837353564,-0.12752815216886126,-0.17941211085551934,-0.0012471804820766777
76.09065246582031,0.85009765625,0.004991395724407561,-0.17242359377120942,0.06375602163160489,0.0751249495040365,0.13184620374317832,0.02803364136307524,-0.10746542040047483,0.10588162798160575,0.024090154081277602,0.29338405866337014,-0.18928210798491454,-0.031265096863340634,0.017012272506577494,-0.051510859932372706,-0.24621736695276383,0.0027320315600336993,-0.2961104848118364,-1.1008453737132369,-0.39559849918986767,-0.4130333566347081,0.32098150243550755,-0.36498005730724065,-0.06672193940672404,-0.22165879063928393,0.4135957365062499,0.17356367546721405,-0.1240618730167489,0.023310386131881813,0.24053451297842918,-0.46655385258845417,-0.4190728246718399,0.07297742672182954,-0.3715961837831565,0.31388148780725983,0.10183668203018953,-1.289826482746653,0.5274520100921514,0.14164551727776437,-0.2714571806368366,-0.35051066535996594,-0.7410201007094492,-0.24938057482047182,0.42649711920308386,-0.019846558786629612,0.3938953158242441,-0.51809682502155,-0.18537717802282805,-0.5957105917071116,0.1486699827029907,-0.20352237047846503,0.023456608791982143,0.14730292881329993,0.10867056699587586,-0.07066704571180057,0.04072835518573871,0.07773062275741555,-0.10401761794398041,-0.04492186595882493,0.09953342657155248,0.0012120754650930127,0.04315686470678534,0.10013871278885904,-0.10359495587210857,0.03554320143982073,0.09602466817730361,-0.10775261221179656,0.0933735348068227,-0.009970561957853678,-0.04472696346112327,0.07810033030237794,0.07434126461762144,0.06688658774287934,0.04686245483893653,0.006597655146968329,-0.008902559383329456,0.013174104393057207,0.02494335275059171,0.05740294291710193,0.07516972577585482,0.026053927847328594,0.04860294522922556,0.07427001125056852,0.0013718398659241051,2.4877901595745516e-05,-0.026548343329185792,0.015510396643328268,-0.0264207657394143,-0.06853936208109884,0.049623555287069375,0.016893786717068426,-0.02366978308897296,0.1308170173214113,-0.04827928012367811,-0.06831739419257446,0.060834906831300835,0.09896364657652953,-0.09609424176396873,-0.14307599660534265,-0.0666649271862594,0.009539721312114835
76.94075012207031,0.8296966552734375,0.11765347798385356,-0.007463813530308376,-0.026318409603529463,0.09335187448535182,-0.146256920612052,0.11163202849819394,-0.001672359717794225,-0.006655106849458994,0.02285073415908563,0.11287886715642428,0.19586614235962493,-0.04579988749260439,-0.17461457934501967,0.2313926618690815,-0.05652844932578223,0.048438628600606416,-0.435258737248416,-0.5446930714092206,0.5381648286000708,-0.1071859232565984,0.864508456730431,-0.5628131331920053,0.45141460017613827,0.28169690767647315,-0.08397460969478458,0.20526085459207327,0.1289493284524073,-0.06509487367175892,-0.3028154650975799,-0.3277261556000125,-0.22414282477161887,0.37733234544846794,0.05142489045694969,0.1333507928131663,0.0019645672537300443,0.027748053066855682,0.7868214304913929,-0.031417631111203236,-0.023014096689277105,-0.46967561031250404,-0.35179765785364586,0.18740945557027824,0.2677502351247548,-0.10833155671289711,0.46756119767597265,-0.1360222705439731,0.3761399451139241,-0.20988997238016643,-0.06427224936489351,-0.17471996475100554,-0.07143514427686931,-0.8137027033679017,0.9540992919694424,-0.15506252693211656,0.07906211798497699,-0.0681216515489804,0.10127237891885495,-0.0486377407669978,-0.05639476219501433,0.0025746598814460012,0.1780459809848883,0.004672633224274039,-0.11544348077810422,0.013653144606321806,-0.18425955392999185,0.059229791545880345,0.06078728735215182,-0.07045975808078424,-0.08648837025125426,0.0023235215384094076,-0.0024438838453752546,0.05438979775633021,0.08487596151390706,0.10931054637553383,-0.058484058297123144,-0.0011065845063801538,0.13190275570818044,0.030287002757729782,0.11638348794106358,0.10770011162465733,0.14888847166981709,0.01479690801961044,-0.03033189280453539,0.03970529992524745,0.03862279142451706,0.07154409504282164,-0.020828970736655555,-0.05755751097592974,0.021374630766505264,-0.029080417485738166,0.007198863247339274,0.016712334286547323,-0.008929386382641985,0.14405081361355163,0.16130327158092148,-0.10877490093893133,-0.44412796867250126,0.1491099901064338,-0.11885568786408499,0.16608978169054361
77.77044677734375,0.8100051879882812,0.12168263760795309,0.0001227126509524279,0.08878367327656,-0.21538386364700357,0.03824130431798951,0.05673573044974262,-0.1479232995423255,0.24209938519524615,-0.04651493780899986,0.26612014199440365,0.06403389843679018,0.1373266076154976,0.034370300469012294,0.2799960708985815,-0.39608216873309016,0.8201937579767568,-0.22343756605284507,-0.16134161771706007,0.09355925792068777,0.4501327023850757,-0.349061871780187,0.3211653349630984,0.0523461441244194,0.036480581045501045,0.03377207711636439,0.18103377855796882,0.46102595381627715,0.24444383968477917,0.17027442911888085,-0.11074665751964903,0.1259444731857309,-0.14317944023606613,0.1631131448555242,-0.1360776229476876,0.17585563216194502,0.005885570722704743,0.20481732937486516,0.3872045619415281,0.3186979176219863,-0.4472120542274144,0.050889505119382124,0.06232679860077414,0.29998062786836377,-0.031340793008192605,-0.3263600212934358,0.5583693371378133,0.5340428040151683,1.012495011322477,-0.45421747438892507,0.7912732845498398,0.05195321424668982,-0.15905417736336508,-0.022278873384708325,0.07040407370075566,0.024064070883277257,0.059636921561010976,-0.0003542506579979742,0.040075876377355546,-0.23963564870242757,0.030592889924887193,-0.2510831027400276,0.09662788576890552,-0.11885256655379983,0.0956557909818207,-0.031265120110350327,-0.008037872568919427,-0.0342402710880331,0.058796328599247105,0.02013461981200628,0.008650864486279872,-0.03605013051368229,0.01013824074592337,0.09050525414067873,0.06833368188599341,-0.04335400313279588,-0.0248290445016451,-0.015390593061539245,-0.012940563152708903,0.05983070018853185,-0.03885604735567535,0.034401453923169345,-0.0343330737649214,0.017500748072444054,0.04359216755164727,-0.02380785550214286,-0.059376156647000564,-0.006649442227235007,0.05934637928404212,-0.05408964353051189,-0.02517008608386706,0.04378340837061397,-0.10016033417735276,-0.06148910327300522,-0.04149145237889659,0.09497897752434424,0.1254467146936666,0.09713066204697174,0.03989830984603321,0.06510259713306901,-0.043871754021205404
78.58045196533203,0.8401947021484375,0.0832977020408477,-0.07078877567154297,0.07621934933897553,-0.14350294884343548,0.022876460616389496,-0.04301121269190176,0.03976082700137911,0.10678484227779025,-0.07490744176652998,0.07839662437128245,0.004489270254649711,0.27151402640227784,-0.04480874479197572,-0.15468619105254428,0.01144874626444116,0.18933477594402076,-0.9471262064895942,0.9574896932371191,-0.2169211795628332,-0.6661567868110204,0.2794303468423547,0.11858288033165064,-0.2716892417871495,0.04142362598434162,0.440136111955026,0.04748422651575067,0.20349834759515906,0.2550877325997509,0.06266016528449013,0.27331771799749577,-0.018770050392724058,-0.6130907317350899,0.09338427370134114,0.26367376890369754,0.2711980441898507,0.4654589996318631,-0.6137332994416785,-0.0888450562598222,-0.17058559845401136,0.2367678536618847,-0.022472728376852026,0.29197647468649257,-0.19756892685194283,0.6214240717981914,-0.4988312253763748,0.22248339140003365,-0.040382363829539046,-0.5897817256202795,-0.299613984462184,-0.13952940074623071,-0.1675035097275307,-0.34319294245676535,-0.17667901193355043,0.14716059909317364,-0.16786142293600487,0.09491502817832946,0.0014879128999951835,0.059083264001152054,-0.04723107477626788,0.011125467946120833,-0.06424609657457692,-0.04167038673403994,-0.039639951386325395,0.08697931268661332,-0.05112989513574467,-0.07162945716084611,0.038811120623134965,-0.17210216933729033,0.11679779575479601,-0.10330733699427558,0.06205826292520789,0.03573470599691161,-0.03155175717602007,-0.04040885005518478,0.09366628083799886,-0.053919893880716566,0.08819042091405953,-0.08959822527356859,-0.11073400110378924,-0.04778923630769899,-0.0293181282805165,-0.03114728047131332,-0.03722367753954251,-0.0360667276990722,0.126788289513154,-0.008186788916145327,0.004749762321242253,0.09415559671185118,0.044722878902219085,0.030053100137105666,0.0814466600146492,0.12314729227957763,-0.13546574745819495,0.3327699278646215,-0.0325442166234693,0.19413877496699505,-0.1842148849621551,0.017633757206022928,0.013857686720892243,0.07913497441840239
79.42064666748047,0.8301010131835938,0.02251546771325731,-0.011977523727168655,-0.006934697316816431,0.08387683450209932,-0.06683875851895299,-0.04335179105249806,0.02290348132360766,0.0001383734148015653,-0.033482028751517165,0.025693747299690317,0.050119432541643257,0.026268995553236796,0.3428281560410364,-0.08342390595515303,-0.1679058819881982,-0.25106571846212083,-0.2942155078548306,-1.3434752123138247,1.3706581887818519,0.35324168790986205,0.0379930859776883,0.2418774306164528,0.19257405516721135,-0.14433332877414162,-0.08735753886843176,-0.2434567803751113,0.050225382878148525,-0.21005678861987592,0.4190809268757353,0.008520393870783408,0.34297779904197506,0.23779601891187827,-0.8235036913070467,-0.23228979621279802,0.47449301760518336,0.462469988125247,0.2055076048369729,0.2634970992989466,0.5025292641743624,0.06923805700364714,-0.27237528662336097,0.11459154791905343,0.20389637277610578,-0.07808060171528532,0.22908507896270489,0.22194036531695077,-0.0179844715190707,0.15785868047893276,-0.364364222944897,0.19926344603175097,-0.09842037739752851,-0.043027067342106456,0.019797795789535493,0.09689629043099045,-0.12446030164281076,0.1400500177358118,-0.23600821743549333,0.0028196958593848303,-0.002940647807283949,0.027515638208913496,-0.033425572777229046,0.04537532065997336,-0.06935048404988381,0.04602055029838811,-0.0073470436465491035,-0.012182447074143385,-0.06628695720586661,0.04626757499215445,-0.04814889848142196,0.05418026904823154,-0.06634830647785923,0.014382111278738138,-0.12392056486389588,0.025238400199377797,0.056530270122739514,-0.037567245027808664,-0.08399507978200596,-0.005092287055534807,0.007231511794246103,0.10359389676401624,-0.02541311794893425,-0.08826156818997459,-0.00643693636394619,0.09156908816335928,-0.11189032394807429,0.018248663721154808,-0.009735247568290618,0.032474562241901775,-0.026974913873993575,0.009232477409023332,-0.2627066655653716,0.044688612182706026,-0.18384135324755546,-0.09688486360451695,0.0035025531752646277,0.1279099249174268,-0.06039946888950593,0.025055058187652912,-0.010780067862937025,-0.027853971047874806
80.25074768066406,0.8101043701171875,0.07066197858464074,-0.158247891205121,-0.05512755010343061,-0.03271314552546466,-0.12177449401887386,0.07131944815736843,0.08140448113968432,0.054258292796155363,-0.01603969053546507,0.009029859928778668,-0.08538672278365884,0.015269347774882164,-0.12253419983982389,0.3255799098270412,0.34464503388419304,-0.3975349970002002,1.2667071825773644,-0.18940374736428378,-0.5399589237034117,0.3194833560935969,-0.010195041583207345,-0.37567386209352593,0.4516627862973586,0.11646695439452534,0.28859826886620893,-0.18405382848057977,-0.024492106178048204,-0.038529822805409474,0.013833750176052706,-0.10379577756713032,-0.1381951393379199,0.1497360408186689,0.08292324661904718,-0.1746946954866625,0.4087449809364279,-0.0471197824771237,-0.0121584964936335,-0.2881044451263807,0.48322425384734047,-0.07327486612105655,0.05279517229647834,0.4864813053377696,0.16520517560571307,-0.039669875379644975,-0.47428158556952976,0.3036206478166703,0.39341099198499185,-0.00464633142626604,0.1221825928153972,0.08372571287639816,0.08619019237651007,0.049711767594345986,0.03980569001496272,0.025321811043171664,0.12485175807183155,-0.04020867920020355,-0.0663760167970002,-0.017452033287153806,-0.013200985473186384,-0.0214964729375529,0.043609432713973516,-0.07168910195731153,0.11294249939890257,0.01034857459702953,-0.16122648937929365,-0.04066294018218328,-0.13712683742730442,0.0019679608764986995,-0.0670077907843563,-0.058643133375610494,0.02152887381194099,-0.06616433283510245,-0.06450832672646228,-0.045575890541855305,0.07500291326654232,-0.04190632966580215,0.06201429372224932,-0.014005346838417483,0.022334935627942656,-0.035462040944255285,-0.06811489377443733,-0.013798509186438046,0.025633290139518296,-0.03953293019599603,-0.049631198235872115,-0.02868817821027532,0.05190806047194324,-0.010422790674037237,0.051222370864144516,0.0074143402522517665,-0.010924177654279854,0.062350525953946,-0.011702110660933768,0.030249238441141586,0.10742028961891725,0.10261962845717362,-0.05779227079663378,0.03542124020508575,0.030771786249145207,0.029346939269449528
81.06085205078125,0.989898681640625,0.014512910501489153,0.04313486947322497,0.018806107309708674,-0.007875103874043398,0.058534508129094796,-0.09488738249309858,0.06986142554538542,-0.005386386003644685,-0.10051748683571857,-0.24269749158290208,-0.14556806651544293,0.0036516902956957864,-0.023426384875842397,0.06367526550519592,-0.14353336709016146,0.2623650849013796,-0.19344017017731202,-2.367682583922265,0.3652470533471072,0.2752917289988789,0.46316754342648775,-0.4138898161361611,0.18465580541060675,-0.19118518227141093,0.09014626618043434,0.06873574887947756,-0.19301867121288835,-0.1422027783552882,-0.05414795394408988,-0.32571559357127433,0.1611528820319247,-0.024537537018721634,0.5415775905234211,-0.4693395024896324,0.10098974074873095,0.11725961439538081,-0.13486467922949086,0.15056939506805186,0.33416122097545,0.04008989053004289,-0.05706803746317349,0.21989867233850846,-0.05193763321842104,0.07348943072069283,0.18683416856315832,0.1318261650564408,-0.4617439560676662,0.33550314552858623,0.10491777085629238,0.01972281141656988,0.028541885251234203,0.05869774209801342,-0.03264033179444377,0.026863008380467696,0.0015606515671992712,-0.09084076226983617,0.055614332866288266,-0.02221184493067445,-0.018639229580543513,-0.06303825897149856,0.07745314945132219,0.09431703259549334,0.014732207219511644,0.001609902870364971,0.05282939462734682,-0.13103236056941714,0.07482312627364661,-0.05103255738901346,-0.09917923926663555,0.027548667942245048,-0.08958255004354945,0.004063453771598139,-0.012676101584606685,-0.01041237112390509,-0.004493471315261274,-0.04867569645987737,0.01790241307337288,0.007546272636111767,-0.07018703650908814,0.026349788988012754,-0.01323438587046459,0.177151793272164,-0.05474039587486472,-0.1955746553288163,0.0891622942412745,0.050149917628729335,0.008219069156575227,0.09011506916047285,0.03464440925801075,0.06713468360436287,0.040315574821118236,0.03822847847496901,0.02452165787684909,0.03597684920239953,0.06624856883610555,-0.07703145010985887,0.1922738279705768,0.03614832511139935,-0.00043143364551244054,0.016469873248117172
82.05075073242188,0.87969970703125,-0.012236207328866346,-0.0028981428476456406,-0.010058250973015312,0.05715198188823167,0.06180363037347099,0.06341010244698075,0.09368425479829905,-0.44407860746882794,-0.4827951956109132,0.03867848302187013,-0.31161642654697236,-0.3423005865339222,0.0579622938088831,-0.15660578952196821,0.08501650214967471,-0.030695269476311876,0.11941574685418306,-0.16964500599383564,0.10421305749830248,-0.1021733784135017,0.01773553504793885,0.13316287170514024,-0.34094028897311407,0.17197905436589572,0.8031154722427034,0.7613428041685499,-0.9406007107293743,-0.505886451759719,0.06610235947531676,-0.12263171888724501,-0.056495958301772946,-0.15092267552015748,0.41755831819819,0.38433189009049246,0.2013788411587889,0.30551806121192865,0.8588762868170757,-0.3289449591312231,0.44995294084447796,-0.329681443798037,-0.5863448232057125,-0.26111231308254557,0.044975554180549424,0.049619661317720526,0.4585307856203381,-0.7118077731901287,-0.44546026481523143,0.3532938026095173,0.2356954978786335,-0.45348885904389813,0.14971383507844438,0.03655805924394546,0.01707145445944365,-0.08964160676903848,0.06659949138989278,-0.12219087791657736,-0.09534550634259144,0.10384446941605888,0.0335573658385596,0.026403524041667376,0.05610577312287615,-0.0635457656203899,-0.1167901994648115,-9.202508393219147e-05,-0.041205756413150586,-0.011770261554617084,-0.0331564174564963,-0.12880248276815312,0.032954906987328066,0.021720966876158154,0.027634377881197394,-0.029431644489456833,0.012838103157660291,-0.035734105783165146,0.08229606741551887,0.01609465747112166,0.03190004839103389,0.11981937516688453,0.08255157272819087,-0.04359957050592146,0.031431273524050674,-0.051111966018767156,-0.04162651885989321,-0.03686208250713121,-0.021313607286464486,-0.06865055726891538,-0.013814470611418939,-0.028880575457660998,-0.030788750876426962,-0.07379381659841233,-0.08926486283043958,-0.02178849516578029,-0.1820153148994337,-0.033044463767705465,-0.038244280996711184,0.0038488710699351963,-0.13398013771075673,0.02756003076693701,-0.04780260661227314,0.05580415453256672
