start,duration,0,1,2,3,4,5,6,7,8,9,10,11,12,13,14,15,16,17,18,19,20,21,22,23,24,25,26,27,28,29,30,31,32,33,34,35,36,37,38,39,40,41,42,43,44,45,46,47,48,49,50,51,52,53,54,55,56,57,58,59,60,61,62,63,64,65,66,67,68,69,70,71,72,73,74,75,76,77,78,79,80,81,82,83,84,85,86,87,88,89,90,91,92,93,94,95,96,97,98,99
206.5281524658203,0.8623046875,65.29738458610578,57.64956353595518,-4.563692024070905,14.793138599856396,58.364440201931515,-70.59927439181955,-49.54810848960918,-53.005353767509085,-57.00683170894145,-98.225446909364,-31.8381137961931,1.1623348517537622,-12.718960376333019,-66.54174175585757,9.026842078783412,-7.554991732703678,4.337150450938344,-57.65646743346204,23.82736954768727,17.799140436564066,62.19266682163919,96.78937059895587,23.589257477333454,-50.0681541013599,32.704155531510175,16.00487238050269,-102.81101427577448,-52.01210200582442,-57.59778296443002,-38.558963781922664,12.185470385156664,-88.70534438950071,72.88655203080332,-10.270033419926929,166.64631288679837,222.4111359424861,45.617721967039486,11.287308072158137,41.5053500480922,-9.714826958026777,-103.61883550287145,14.341480215957226,-32.25994212888627,7.584159703936002,74.27766164406589,100.16766675075735,-64.62157905052116,-83.07806485307496,-8.229612572192199,-26.25402930299832,30.356416708055498,45.32485880998301,-36.309510268983715,11.492341468642358,48.15791579217066,-34.583457171289695,52.01575185794483,-6.788490373414914,-9.75511128343755,-42.20071956063674,-19.440998905532254,-24.068566883810945,-12.151377932520404,-27.679889007668894,10.656288139548774,1.046505652764587,10.56077323554274,34.706341178852966,-5.703936438106666,-9.215648418014577,39.563051951614504,25.1078584069767,29.221936498907233,-15.438640872680377,-14.162615940487102,-5.790153320010662,1.481661316762338,-17.170065230950833,23.605975590248686,16.039741513340648,4.625750018654642,15.410197316946228,29.450568261875617,2.5204320942694487,11.21225509592815,6.716068287180186,93.8650658442345,82.72837395785383,28.4468181308713,32.36929897319239,24.78372973477327,-20.944056822458336,-50.39740870462245,-31.593570377422527,-27.00408166132718,-77.29047700225989,-23.70888672614184,29.685293636994345,-29.544861491934185,32.34912980931959
207.3904571533203,1.3029937744140625,-21.176026939690622,8.057812026747321,-10.624706799987404,-22.64481021826804,7.017952828487989,26.40349417921436,24.561071298415342,17.30051116954344,-43.305007471646896,15.165139742095697,2.7930848296207644,5.678387800928306,4.945641688369481,-45.05410269102354,13.666609706717864,-18.64386214779907,3.6038206437955367,-1.9140628204365626,72.8784971486107,-11.203511255639654,5.973064848148121,-9.863199013146605,-11.60603345696799,15.316638748897299,57.036946261938496,-36.81411430521532,-3.186831886772392,56.09869016643651,53.19763136859972,-41.27592492532787,39.24408863242762,-15.28136523508812,68.88772474416287,-29.44362714014666,-52.24444245090564,11.71585017023703,-30.143224109194172,-12.06019386250891,61.81540520163001,-17.35542435454129,10.765459200742077,-6.986385234414559,37.13024586798578,-14.601185819716445,-90.03174307033467,23.741479631693316,-36.01770006193295,22.19522995685052,-40.675964980166896,4.429819251224407,48.598306439520655,-6.75875299054195,33.37615211539999,-28.70866981592902,54.761230839669075,-86.55547949876015,17.513164721963925,29.333151440774785,30.04797646712854,-11.573043193287745,-20.8217519860591,3.5881366578892226,41.15118356504855,18.270632721701737,-28.03183991893386,70.90787950736032,-16.86445370492474,57.14089181053171,-11.386018963472662,-14.418895718206858,-14.28453729183239,13.93200218090914,-63.88214877236896,4.5584211761397455,-66.87468555445804,43.97784403502899,111.72390065572341,36.83755525636825,-8.721724057175429,94.44701513954298,18.027195339415393,-63.103619610657574,29.91370690435575,34.75102799089318,-47.60253101641079,26.312370776807345,0.6998858156017604,-29.996825739829436,-7.225904499628994,13.425241650149008,55.232737975117594,6.833368690930207,65.99188513229186,-5.802273988610132,49.589600964849964,48.010173009454086,-69.17016811505864,-68.50836301374869,-20.782796594438878,-19.55827067923252
208.69345092773438,0.8321990966796875,53.640122760110806,24.790503575471792,-13.840546227954482,60.48447703655194,36.61051412811322,56.12721515372263,13.701957649439706,22.607816963883618,6.42230639751619,2.9035116294849814,71.84661513011406,-56.17530724656447,29.911927938945443,-2.2989460617147373,-36.24970929844432,-75.7246681938412,-15.663502801992742,-11.48373052846199,-67.81154162206359,-50.30185230901246,-5.5930312681051255,30.729247058562972,10.0978796064526,64.35605165108186,2.897211180690837,122.25256272081037,11.158237938923527,-109.61202133366845,5.5471654429702895,159.72284984375986,-86.36375780317357,-8.039804470002224,95.0260187518124,85.80189918162392,-29.61534091698104,-40.88622137861411,65.02529853123508,57.61035238553549,73.45790994962114,26.565796030202875,-41.86225222038814,-8.03134416070349,-48.153294737553296,-48.378946521833,-38.783453011072595,-65.91185744577496,8.330518591502312,131.02977966033419,26.738483286467023,107.39067364551445,59.106186739946615,-41.007580327826396,-45.335191551692475,-7.532703396351531,8.670184647656031,-11.741431990746825,102.72442622078788,23.882684678356668,-21.054030977413316,40.26136371263813,32.424218300690036,-73.69264741152874,-22.308978685738303,38.74538346522281,-8.063510802293665,5.916996265116971,-42.912107822140115,-16.386953050968927,-11.083396265876559,-2.134545075297674,20.214922248979867,-28.053246884804253,-28.14583599463984,-8.917395251606745,-18.156979093868834,-22.017394943822772,-18.985552953480777,1.3133061959393881,-25.111420279604772,13.842466500712405,28.13862031679624,-3.121792847778547,-49.00268977082928,-37.91346404778581,-20.25465399239048,-39.44254595520361,23.461102612668384,-35.07967370323162,7.8906860515816,-13.49566354375822,19.20851305979403,51.222474701260246,-38.66072327038504,7.737522316456806,17.558509423564757,10.908180540451855,-13.781078651264108,8.629239929269215,8.547819220139328,49.19557882194141
209.52565002441406,1.6840057373046875,-14.592345133071916,-3.84756266220797,-36.18078014633649,-26.00413683702798,-13.707189156479014,19.103031487017006,8.981945335805346,9.49665132526148,-24.891484370326975,44.986385595936405,32.7435446814268,11.312299437698954,-12.905674347128883,33.43675735770985,10.879692161360659,6.260226683679999,5.873860994542092,5.7327179594638835,-24.862887854379927,15.740893772166721,-6.936009025465566,-2.988345162619794,-25.051201793061185,-3.7803167580643855,-33.29046550381797,-26.95517267705085,1.886644530356385,-10.310115057947943,-35.747062608002345,-12.379513955537668,-18.544549962170706,23.60460606433724,-1.5927579587200622,-2.280531284507301,-12.688047586278596,-0.9526654696601113,25.72323743313303,64.150837813398,-4.46087592319477,3.228463317177173,-11.953998068170478,18.37867422248107,17.711076093689396,-24.21181043221106,25.04750856729291,-5.969680716807325,1.5920297340936602,-17.494284311793873,39.95605022691425,0.7139098604904035,-3.5536518152326337,15.537221251583704,-34.58428374437754,-23.774490345944074,-2.2289526135282305,31.17726147120134,69.62052223736725,15.645431601021514,-33.775522601919704,-3.5861694710638297,17.060661908859192,-16.892453720140505,-15.227306110001493,35.8319279346353,-105.07014638498107,-17.737976531073947,1.0858261191446488,55.359084140727724,30.954210726751864,7.71567286052667,-32.94995689448314,-12.050903499025415,28.50627061858357,-21.302056813263956,-99.72310221689679,80.07790790902106,13.352881542826738,9.382141684600665,68.49059304799651,-3.179194222368583,-0.651125725446918,65.0283483532931,-16.02600062740457,-18.237709304167772,-56.84826719803944,-11.79002867713081,-26.51835910583355,1.7955868151900063,48.60617249258901,-32.628585450354265,-48.7688610155337,6.743222411965549,-27.43330945198044,21.771416677558264,-13.586674979975484,63.0808940577208,3.440073661084064,-17.95099296412726,-66.93227376825413,60.5781596390763
211.20965576171875,0.6917877197265625,21.22808280781764,13.935938070995457,48.227149881730284,9.743674927624927,24.443154519221853,-22.089458770978794,7.471895320955973,45.06708827579705,-71.734500520372,-39.53148781037827,-32.7470191085127,43.77133706898603,13.183947466009975,21.577860731464895,-2.683234763832207,-55.513766087617,-37.52785783222532,-25.309195122179112,-8.006205991372289,24.702272003622213,-66.71237450430829,-63.78040960036606,-1.3833702107658983,-30.270585687916856,46.35290172756699,42.68667255712201,-97.3470038659992,-0.20871801827191305,77.36580301270537,14.139852637058727,-39.31998362046512,18.25074079028868,2.96894062255224,-14.367198413223484,44.26223217564076,-36.45857559151718,-42.910949475802305,3.7525137655643164,0.6410878975185206,-53.03524450945385,-57.78618477476999,-17.210978686211394,33.888126372972614,-133.23715095726888,-60.792493193846006,-56.643124308294446,98.77194065840122,15.096614071953976,78.53794729867201,54.152044566211,20.231275984432262,10.557576170559445,37.657152936669185,16.31399784482523,50.870437808712516,15.583622040908558,-5.9981108754906245,-48.16740608179476,-26.735357472561653,-3.476808853473422,-37.421475812349414,25.354481389145633,-28.959931138548768,16.23110581501213,-2.2324380450839674,-8.556506470713504,-165.63316961692985,-69.55624717275039,-31.12098215512176,-5.8913233121236175,-50.32094190805638,9.035471412630633,-64.02380987459279,-73.93875566847038,16.55982970210512,-0.2113665630647945,9.956723680340001,-19.464292311354008,-48.596851447168454,25.86334294966982,-9.008722931688677,-16.73360281835944,-0.9011067227512999,-12.241613890527605,16.4585869646684,-8.586164980470251,-4.3540451996522975,22.622513950148303,24.893926708545123,18.34168700213935,30.95832366370688,15.553047207821159,-23.449778776704317,-7.84413013209125,38.33202300392248,-51.76546583650655,73.25007022500333,-14.142559762697566,46.2861428754872,29.291877250545003
217.66575622558594,1.0024871826171875,-46.21791106670268,18.23354691772012,19.13941368444796,-5.761600909845498,-6.790814526204023,46.22637994268144,37.12959227571907,11.850787538030914,-0.49240745049162626,16.342942706425593,11.622162125364772,-28.776788412929996,3.6229104193392883,28.062379654406406,-19.95036447637213,25.67060652563982,-30.819262780792847,4.879552229757859,-31.77866769135114,5.739534485947589,38.793460219067335,47.0918807676396,-13.598206370293529,-28.6897796862457,33.74647721513723,-58.527091358920536,49.83357978426642,42.954120268763816,21.73665719760066,19.984230109243164,26.494185046848372,-8.993361179568831,24.789220264435656,50.10534639479987,22.760094466211125,67.21150553557409,7.439271970764729,-7.425589467563777,-31.10599462422473,4.3214277541384805,23.16983439656581,-25.532915157486595,7.822689026691933,-54.05156426902742,11.341085828880235,-29.39822476674844,-53.34542406226923,-20.989808995260056,-44.51531538286069,-17.494793640336546,0.3386311278297782,2.9706425239761067,-20.428976853569694,-22.343215479812287,-0.24089284905296182,-30.480721176012356,-37.14979004247364,-11.46467171495167,-63.26640059204399,-12.023001160831056,2.273856801909808,0.18539609889009867,40.227007001010264,-7.310228402245073,-8.596707332682684,-31.49042336101325,105.3484566305947,55.55975165550817,34.8363529538336,36.07740551288476,3.0767336802322056,4.315135422263815,-72.35634412569567,58.465150680093615,19.185364220836977,38.710099118684276,85.08673910822111,-99.0354114499321,-74.58492233974228,-20.670525402322937,-15.20309838364567,-1.4695342743245234,-6.777307265524184,23.7389035524452,72.80575083837407,-42.23191194575394,-78.24459669406882,9.533912805158508,20.99046886249094,6.6970362692499394,-24.525044705580925,28.182330405991152,-19.202101213543255,-21.27480990721429,-62.50623445415398,47.345527652697164,57.60594362341982,-5.795902236293071,-25.025627618081117,1.7900836651287477
218.66824340820312,0.8319091796875,-2.7181440300384665,-24.195095847375192,-45.91896128238587,12.6777655698482,3.3533322629806435,63.936469011569,-29.256611804442816,16.396298823010966,-14.881257743736668,-83.48041376212096,52.69432052769346,-94.34016633494949,-35.729736507537595,-24.459138480953126,51.19443519742228,34.39903074345748,70.15237810729421,-39.927197294920944,-46.10690657589227,-22.47404623972772,2.4746465753443996,-21.552618999023885,28.706059503547106,75.46023898611165,-66.56479580221492,-48.618415214860136,116.41758433472216,-97.63896106778516,-24.183414925590057,110.56453194676476,14.378088265833497,-169.17743996522802,-9.92217028768255,-118.70271185460396,29.601222678974413,6.028438781830689,-11.03592663297556,38.20466468137692,102.19706346772236,-11.253366207219894,17.478324961959448,-113.05348271718908,144.66123993402266,125.07247049711279,6.31295088608918,62.57911563546725,72.18186594212825,139.5627786399992,31.18802641572967,33.33526882729217,20.33544981958395,127.00709893503485,58.364977158660324,-11.399224896963148,-7.627357088863711,-30.80362632322381,19.76303345258301,60.102683706997226,-6.460689204150903,3.409135957495895,-30.813896509245016,4.493102910955007,35.09651250850597,12.762435354556029,-38.57174654886712,-20.9589960120298,-1.7205531098666729,4.391223619215964,-53.49865538266922,25.0085836691941,35.20947685923508,17.6849781614669,-13.380604786730636,-8.233641082989067,41.73708012221202,-22.13875923386313,-19.30604615010447,-51.491810359526035,16.062948069653004,-23.218067531115988,-36.23243065126301,-8.074094214596077,-23.92242453238643,-1.3043670354540935,-23.173938926991937,10.441472531058452,81.55463931294273,-12.015362748750476,-6.1038363387509555,-16.603174187814425,-28.6322102627406,-85.73200911405914,-14.465721913533056,15.082469207095595,21.64984673362393,8.088546282843723,5.0327199526542366,-30.13780999169462,-23.43965358929633,-16.217161931692825
219.50015258789062,1.213104248046875,36.640237551386,23.084074653650845,3.7287370055845273,-22.55972857387558,-0.4689006335739614,27.624291925687203,14.239368713835635,13.214144183442492,-35.829285152273144,-21.162592717738672,6.048586707445992,7.4167650252758435,-54.18920137363309,-22.771114179475802,18.54831605000789,-25.127876758053382,-27.735118048477844,19.738003086568792,59.8872820346633,52.655658596294124,26.357380557819504,-12.49138624670114,-27.783982546793474,20.70532128420079,-71.52017619787999,9.120721659752817,29.174663620745093,13.06018398306396,-34.887235484225144,20.92166128587858,-9.789990531124477,18.294136209994665,6.312569856725792,-37.62023285453256,10.48848301101398,19.137686413309957,-10.587677519213184,-32.76386934092904,-61.99961719045244,-19.235623559960732,-5.373617995476645,-74.66366545853181,-36.683467459415255,-13.340030943701258,60.6159290804508,-9.896615551412763,-39.57067840710796,77.3073882067566,25.555502038902734,51.53133904967035,-31.38249160864551,-3.5110260485569222,47.41242601153606,-3.870936744502621,-41.06638213150145,-43.50126694901705,17.744216695048898,53.401422971017716,59.12634581215649,-61.399929640515296,65.1456292608355,-10.080168678856072,18.354797507812286,14.970972774864984,-59.77716626111209,-84.33607111770533,42.5490426362583,-25.127064769153534,7.284769735002534,-72.42928821086056,-19.383313476395898,37.607330721629715,-16.14041883739401,23.826423291042232,33.68173018186191,28.34993788270619,23.32448586724501,52.363793262122115,29.63470868437346,-14.434910511630557,2.3233412832970384,19.5109471796802,41.87242959257922,-100.19385013888619,143.3897557387622,-39.332210733918664,-110.44921968881079,72.97009498717532,-58.61329177054825,-23.268239306542164,17.64453007098071,61.824522378405874,-37.9896338553669,57.782834613471934,5.313887933062641,69.86875633113834,76.00981524925712,88.46741064800707,-17.906128526020094,-39.959990196529425
220.7132568359375,0.811798095703125,17.325109105020537,-105.89674422870087,4.538984212056905,16.215561447084845,-84.69880188033285,3.1652613834595815,23.508975147062124,-6.773231499952896,-16.862375425269,14.071004332020484,-46.65116270251305,25.647616232676892,16.31691681769412,73.6403574509836,42.16366252282884,-11.21551056745515,41.73588285962708,-6.019590370560692,-45.424734786643754,27.99275976472299,-22.484832030258772,61.954695942026156,-96.30752273559403,6.3139887127837655,-35.91213084611114,-22.509276475468408,-97.48707826418354,-51.5814473212588,56.36243352296753,-33.08120334551272,-155.88137910969354,163.61388549858574,32.13366819343632,-93.77760705688321,-155.06677720339619,-187.63939402346526,36.37197263041051,6.981298120610744,4.0031826290085935,-43.91171092975703,53.72714513710214,32.78876736491419,-0.5499290092565833,-55.17520078864799,52.42789269212338,6.554027825256547,29.98192943981206,51.518518836155245,22.069620574825443,-59.86371010500766,-0.16548496538535673,-19.835658930625655,-18.388265641293703,118.52471674447477,-55.7489859352684,-29.33076775335134,23.653687919995036,47.44587922151828,-22.508950005388222,-23.93771128237399,7.536279592635112,10.93938792074597,30.340647890960156,36.00722516436542,19.92036316055342,-15.398263243060894,-20.879547925485497,6.198279273479174,-9.314053207065836,0.3247709862506767,71.64148875041079,5.360768582353604,15.393746368974476,-1.6990403985105464,-40.07207300076163,7.255550855104268,16.759176538852074,23.908336925836817,15.662783418601423,16.809665772875398,16.575194458988626,-0.16329442306885156,-40.36179680475665,-11.765489751421097,-2.3187356316556604,-6.157836481266057,-26.580418518488354,-55.089054983763475,-47.31863067045827,-28.673071330980274,26.54296282288166,-25.04837060304013,-28.061633311928613,-43.782446894997626,-18.309305575361478,-6.984645002233245,-7.723259823984922,-28.542135134830314,-27.01100473753585,-30.547099374715437
221.52505493164062,1.3134002685546875,50.65568680993477,22.400339565575567,-11.606718709805136,-26.423659325729403,-14.629132163297509,9.857371300795878,12.867853979492626,37.05840228973907,8.392267255882576,-18.120579288494426,2.504467897298413,-2.0283049944129568,3.6099767132220464,18.9523865254524,-1.2431409538721212,20.416563265047863,6.970360101216092,20.086112447510313,37.77754528897472,-8.854078614483733,71.45358956757529,-3.333349539080022,-1.1893463659391301,-35.99295172160403,-2.6584671890895972,2.0945287203376868,48.24621281327029,7.658998423860862,3.471013063526886,39.65877845066349,30.053495113460922,16.820504526787765,-28.08512323031217,-20.652356714884554,94.69553320994073,-19.20233920636767,60.293711340233116,-1.2536999697595466,-5.112851701109555,63.66527807143028,1.2343242178847644,26.620122455307115,29.531553239515233,22.434034641330012,-54.67488276470061,-3.08701326910478,6.83179796227428,4.23049137975614,-44.25925207957257,-52.07581661371221,7.956831212438898,-5.300870758599169,17.30770983416324,41.38670830708929,-27.900571363459413,-37.05501533369936,-5.5492870343079055,-15.94894984761412,-64.49856135351494,21.38343142370246,-18.44836049433117,36.593890747729226,-91.88488326007355,-93.59200459346737,84.00593516584735,10.413209688257837,-20.55145617302457,-51.80184190994771,-32.269206405924756,-30.904311313627357,3.6780753187424793,23.05839920895014,-80.25925971459077,-74.27375825388062,2.564105118079098,-11.775825158329933,-55.26284580786132,50.58678444023831,8.293867251226928,-47.36500207612235,80.75767498618663,-75.23968394047458,34.99642951553166,-36.94262544620735,-28.809073206575206,3.6121945492922833,35.18750049452578,-63.8534473555583,-54.37211418625687,-104.00045778351422,116.4170303236538,15.202154826354906,11.999958410592367,93.12138434661671,9.484325763597221,80.2686304318739,29.19239999957759,33.38119475738213,62.29041431151934,-27.312178739970545
222.8384552001953,1.1927947998046875,-39.449219089393765,-17.918541022966792,-15.636361123582741,-4.974056377775689,104.58001466802023,-15.531311027057427,-61.671228799809995,-31.176208786019643,24.02780460196744,18.383350985594266,50.67895721267356,10.917523210683136,87.5754115675754,-18.874253204104868,36.024924804724016,73.86918070384336,-55.05229494474447,-46.40480719508798,36.75424401701685,-40.20718998290149,-161.62571028982924,-59.47719388254168,50.882696131598166,101.59499099512716,63.58271212416176,-92.06538603099338,194.4030760646808,-63.84498651347003,53.23470857678241,19.480838849436125,23.219979556108537,-114.18500942721762,31.900038395898605,-30.450678668276275,132.26387146653335,5.2761826085730865,81.53541356514745,107.52097638157025,28.91919280922889,-89.42578488510367,43.53739336984815,37.27172547935006,-18.07143600306877,7.8108507530832405,-89.6416657631259,-35.57606799601133,-7.99864564190635,-31.744527807159052,-21.57140088702448,25.44061606542487,-34.090472400428,-65.31693568527847,41.63206196965383,41.69873057520066,-9.436425354338972,-104.47284686905797,-75.34404440346688,-2.043420847090074,-57.352622252968146,90.03481397638325,7.628421205403967,-17.12074331440755,31.146039394523775,34.09176907876257,-16.981243984660495,-8.062940885963467,-3.5669851381446906,7.87758881106533,0.33748261682893665,-3.6443032796634647,-26.3235046189215,24.89095271857792,-15.802914077549268,-8.468619437002566,-23.151179008947103,-13.662404700914312,-5.202593208686829,32.48199558919,5.680842050411216,-11.883834839563118,-32.19299708860606,-23.45036490165913,-10.676664364588667,37.047225879987266,-37.36029988386373,-14.923219545259226,-43.57937333611666,-17.8666757293337,21.756757348181473,-26.552494280302966,-16.11838016923199,-47.1317894046319,-8.239508190377315,-17.89536206193282,5.803622742290681,32.166049331309516,-11.42618562633205,19.338563990452613,-22.734748920255523,-13.898076778454001
224.03125,1.4033050537109375,-20.31368254013921,-17.034301660097665,21.42603451352341,4.622923983587373,-2.2103255314125603,-6.763173112293472,5.7735739702461295,0.027865705488604675,-44.74575206372641,-5.698671135889929,-24.81142089416116,-4.570616559230971,-15.18435101915945,-14.70150162947924,21.401836975779457,-12.67076768162023,-26.91505175421506,3.3898842059499845,-34.17462691150619,-7.291335600982803,-12.836678094885135,0.49898122322218796,-49.01283828411792,7.407584654015565,-19.15627880912945,-14.019514399365127,-13.907912198124533,0.8759031616411193,19.32237051653547,12.521829854412271,10.910848945277937,22.914840695700953,3.629387857553672,9.162725527691983,-9.823209093084067,-4.461434355625894,7.492361254191504,-22.272570607078425,12.398854129257636,-38.54934720700591,-32.43125891639944,30.346108119207564,11.271243980556681,3.9369643698013093,-39.258473610392315,-19.310077252397164,17.906249871045897,0.04546807891644988,9.437963049038668,8.10055287429796,31.48457505426119,7.965895253171367,8.191900006720642,18.571682060060603,15.046003256668119,-33.00965078969412,4.283754407678597,-19.265833726724438,-13.566423627604287,-1.2335710153401642,62.55021840663109,62.13503533934589,27.790953703253834,1.865513447620708,-23.108046527389384,-80.4346023696883,-49.51876401855063,23.95281659188441,-19.986636241514397,-93.02177602752548,-10.833081590439633,39.23532368380735,-14.631434158122033,-45.024884770044046,-15.560226614038793,-12.827252604401412,-59.21232210273824,70.58161299863445,-3.769551651409376,20.039855600257503,24.33996283516504,-13.179176562882045,-56.672352617392164,4.965438198374166,-9.381856206282425,43.5588008280848,-66.9219097532443,-17.956700235766917,-8.122274793900736,-11.367969473749994,73.13355679136248,-52.98709098445163,-43.03105165040714,-57.18961120889464,50.28110584722224,-17.412034234241155,26.40454855443511,-3.8520010647975695,48.432701995166425,-65.08401503329543
239.94044494628906,1.06280517578125,-2.9436484907004017,-18.785913079145402,-17.46250068577142,-11.613788539254326,-16.431318244589747,37.2178105245501,-27.362089068780058,-40.313520514591225,-21.560968840727202,45.02512949007264,-38.13798387524809,13.07603750604417,4.90025870890665,-27.96224240353815,-17.132238428161358,-40.513652672373226,24.644112636562774,-1.845247880655199,-9.926920898125042,-20.528407130237568,30.258073839487395,20.932577565904122,-16.61631175363165,-22.93839311698423,-18.608713426921764,19.422113660085024,-19.988204375481896,35.107210241043155,-27.33953531077416,30.7119535571291,16.48798275301737,-10.726727996055384,-20.62898669023713,34.86726293266631,-16.17971722365247,7.076287946097416,-28.487231179226818,4.362255368369264,38.60174261211642,-8.69201944480746,-41.36520025848439,-27.1655847051752,51.96951974994519,15.122436571165183,7.3051735699830385,-43.09106179863727,36.38222472427928,34.75035719661397,-42.452375007507385,10.504153180118363,11.996210268434403,-12.302947252885819,31.986431560568025,-65.14573450110424,-9.745766752332989,41.79854754978362,31.753516289555154,33.604293436865014,-130.45311376501834,52.28414470485704,28.50645027071306,-54.35342352810493,-58.05915345819674,52.08985516101122,-13.161000590638338,53.92860740318007,-5.014733918354107,14.544562315568236,-46.80273841472177,-35.45338034956706,47.10806134992325,90.04637752254243,38.10630566499849,-44.136828563249445,-4.624064652305668,-61.80858626588619,-0.8414725605046796,36.783935840853616,-49.661699692730096,38.62478400367026,-39.693108508467716,14.934131332315713,-6.103999106604696,-30.032856903553707,49.02444476422438,-14.15808181504827,-10.931201973662434,-65.04831042659741,-39.55589570441586,26.07055427573864,-5.905598233688968,15.402123027040131,1.5500303911487272,30.133884736617865,-82.48118387740926,-108.50973921192389,-38.41701245454517,-4.591783066404172,-57.209650767207165,-8.41145724358163
241.0032501220703,1.9947967529296875,-33.14037176343174,17.86816964132501,7.579081812706292,-22.503691569663445,-16.06243311106718,-0.5502864703603159,-20.934171845414227,-30.947527905203895,42.161457172102594,63.95843761696639,-6.6787546720376625,-55.99996005296293,14.153833843136077,0.34357063727894044,14.045241022830435,57.684266026611795,31.106286124630568,-61.643468294682364,-63.14913471596265,1.754106231177511,-60.72075080381701,-4.683476151984458,115.85266359326322,42.934307528327444,-3.5342607393119465,20.328894092070676,-49.68569591271887,85.0398078671239,-1.382056778337109,14.966580142515634,81.27406853572683,92.03025115242585,-29.93576283680194,-24.9336826740826,-53.857693815136756,7.85707828667811,13.776313864367633,-106.06372249491174,134.83121676679497,0.7333592611709259,-69.50421245254894,-12.121319326421201,43.293902660090914,-5.25948339125036,110.4692458480321,-24.86157876163731,-9.675997738750667,54.60909118591331,-15.218703412206391,-56.93173894339715,43.84203133597807,30.82834493434366,-46.638896454686886,-45.9924613945609,19.32438001826465,54.076676310009105,-45.302462748127425,11.554884084204527,-8.356347705937063,-6.3149431061571875,-5.41953253142173,26.450186714464945,-15.031333136857803,-6.065416029437188,36.45839801726879,-39.874543012275595,13.420981211758814,-31.110955511899206,-15.29962245498591,-22.657614886800108,-16.987967723806694,15.80169991483821,6.321218383921561,32.69847865788129,13.939257206434554,-15.158570574473513,0.8856643994239732,9.744596777806937,0.7577043219835318,-31.175915445393684,-13.718408074716876,-1.967590794722689,23.037201063471755,-20.259119041053772,22.856952719547543,-18.482157781812138,-20.397221710970413,-56.935767464272296,-132.28212090659227,-55.44248727012783,10.250935314312756,-5.710327457372472,-64.98723905496544,55.48460596646896,-8.054690445420148,15.053135285432596,-12.1073960724184,-22.239837879577028,28.717105910717503,-8.160691886041556
242.998046875,0.761810302734375,31.091457431972103,-14.531811854692576,-23.357953984160353,-4.29693783131545,-12.87012112729833,-72.47960237839996,-16.86006018324422,-30.406206565242478,-32.19372675309605,16.948526692986455,11.803989803505637,-56.39214499873456,-22.63852048586931,4.5143914552899265,7.126582636292021,24.257979714384593,-17.031209018609268,21.807452451037086,52.31321877808118,28.829099317699637,14.08397203803242,-15.700273085118672,34.92345371935313,71.26373233760215,8.593299609183642,53.976108641406974,-5.542658940629593,-79.87726301745352,-107.56902595434467,6.894644965751198,36.82544559519347,-28.926893170482952,6.06337106364575,-27.909824056355202,-16.59402050716352,93.62714023655556,-9.246200284542383,-10.158310210288494,-24.14691553987397,-121.3156691148919,119.6503670634863,94.17764099550062,-20.36147987960312,-26.58929884422296,84.27594050195458,60.64916721286365,44.987310651880776,33.574542157894214,76.79177807559542,-0.39468628429360564,47.24587151404058,153.63844103769225,-51.975042580615366,-51.30920458212721,20.73736271617112,-17.004218556927114,129.51590111381054,-97.27364479029636,-81.08842182968064,9.795277985958302,-17.641822424149453,-73.93663608127346,-98.19970834636368,-46.0151649918117,-42.327196003998665,-90.01364528587001,-76.31158483777294,-7.419124084422828,63.108255431920696,-80.84054947161826,48.10846435724702,-41.418197845617584,-57.689644449849844,-62.62113859225582,14.242640184403594,-9.06919796006971,-20.004581859293836,30.337728307830204,18.468923096917674,-32.554011234428984,18.91324924830026,2.970194318893261,-8.838498041131755,-9.533782683217623,-55.7770143712693,44.842574311262,10.422071284121646,7.428953063683007,1.0311923765438045,-6.036370342035977,22.874574943094768,-44.834704372458745,-54.829767332550176,-27.713799060315917,-2.49585186723138,-39.42192437795489,-53.66999507181356,-28.83506464222133,-3.216970045982187,-18.495691050612937
243.75985717773438,1.2628936767578125,-5.582280265113629,-11.83176642715426,-3.274881103981196,29.459998586736532,-21.781902334561693,-18.335928743426397,3.4277895242559984,2.9310506059307553,-7.387551235277499,-34.10346554121008,-37.31519095545193,-14.466738755045103,30.896079921990577,-1.8858737904777527,-33.04754663462454,43.076137870233644,22.973708123483416,31.993347663031138,-38.93434218358539,-21.515430404846718,-2.5559795870265845,16.109543975669332,29.82024338294226,4.9094935183295405,22.11414078218021,12.56595266963558,0.7426079831242589,40.27957971338053,2.174726173456783,27.830659127952465,-25.840462912837527,4.2360043988786416,-57.44216840319436,6.828836571860907,-52.94988507990749,-33.28987040847718,-55.601672867271986,22.300665844109158,4.892338272442352,24.29879306468765,-38.09989330465699,-44.56447281642328,-27.166102936378472,22.785256405838187,-29.43303153029778,8.675802270555184,-34.50334685086996,26.478760171386476,1.2679471408416987,-33.22815860111819,-41.8346603661965,65.93205474816044,-14.444997542568641,-61.739256595444424,86.58431550544265,-21.875063124612616,-48.9972404713332,90.33888438644564,-55.18209627690251,-112.0908640567851,-50.581536738808204,-8.379236323247987,-15.841112724471923,35.67395011633102,44.95547472740934,-38.7664327064335,46.979515835162694,-96.98652321444912,42.03062247434271,212.8311376673923,-11.887819747601277,85.05685232842204,-99.88009200896664,-14.428993719974228,28.319094160678958,8.194105902231895,-12.398533368944149,-5.31495653375082,60.82899896599952,25.165720965490454,-43.18771454929903,21.64933330349015,-34.146502653368636,-45.155550670651294,-10.058348897502709,-77.4983998139804,-56.63626981175513,-19.581380417987045,-15.398684131818925,9.318912978889617,-66.44556989195097,-36.77614993202977,37.02585975636441,-50.90843828496066,-19.49424090137059,-32.34720336531013,36.31966416381061,-18.928072841325317,67.19073085019264,2.4147591558834236
245.0227508544922,1.7946014404296875,25.511353607004686,-0.3149470949526787,-46.27618625395119,-45.26545145027704,28.713401198342485,-10.005113641791365,29.698041133446438,12.99279491441826,9.006932319188133,32.70536026977714,-16.996264077888032,11.181307906529554,-49.868292891158234,-37.27244543444504,-18.881645573928594,-20.976467335727936,-30.737010704561303,6.738665170425643,-64.76392829432737,77.02100594512834,23.592159386490028,-37.107892768778704,16.905982896239788,35.67519127091899,4.88772258832379,50.229595896017855,51.88134039325955,-5.077887744569228,35.633853449362675,8.031639326757393,-34.7066836497728,-19.51896898943527,120.87059278583291,45.39903216902367,-56.80205729660577,33.90517468508102,101.05302759270967,-64.55310443338578,42.64884769857792,62.88380008109174,43.16403397045154,-50.470611305178274,-15.034442351052725,-47.65820976353344,24.449181987444586,13.613430103502543,19.243068019222033,-41.19684696405352,-91.59161337830528,-44.32591178698643,-9.286316406192999,-60.8082826404071,-45.90428091154489,-51.13800138882992,3.5122849987371083,-9.562066105952834,-74.65763944512815,-92.99556255921082,-22.61498615308537,35.294822597062684,-37.98185223526186,-85.7944638381255,-16.643308299092695,-45.741588285964454,53.10519427284241,-17.034408770265514,53.54441499212584,2.345289702011466,-25.03120613177144,-25.61635279257018,1.1762190113466637,-32.88115214398408,9.5774338825984,-4.2416614195312565,13.777493354994121,3.1475015475743415,-33.66750592860172,3.58857664621028,13.744109179286095,19.88606625463633,-12.148029204182581,-19.196015963872423,-7.199939950548842,17.302336859426106,-3.2814598132927246,13.616060937054996,-1.3355094460209713,7.368932305307579,-37.24954255288827,-35.00695657910358,29.496274135516977,-46.03294320760433,-18.63111272880753,-45.956669564943496,-5.612508334462873,-34.08673074952327,-18.213814727258704,-46.486283573775054,-3.1673038724420515,-30.557066413918236
246.81735229492188,0.7516937255859375,-53.45211783594705,15.840885843511701,43.489731423441924,5.156010481645797,-3.8092282233827106,12.602716981118558,-23.527787662982487,-11.587964500970447,12.946536373557086,-35.0680310391706,1.19966586822383,-32.03388732156132,44.290340579044226,11.996934919720626,85.77983382944194,40.623723795018684,-18.594598410362266,-32.20012745424465,5.6471947396248305,-35.51898136012584,19.108347945353643,36.51463073278557,48.40076417412539,74.42728767891293,28.409579640379683,45.28648342964405,62.514417522563384,-2.537980841311599,91.2758232436115,-84.76876385433627,16.22972250466638,24.200852104236585,-151.46550839437143,-19.63853565911235,-41.51911003759219,-75.75664952809991,-69.5336197071127,-0.01983787131836401,-59.04836810826583,5.917288018056391,-8.78644796190732,45.13747826442552,-25.656829665738186,-159.03007153353158,-37.02297322799682,-3.031861838366849,70.05014587585636,41.13648305785629,79.12356086162204,-55.06237582969841,3.9924126454631335,92.40122667839393,-51.90882699085782,2.0501400544190265,121.81541954564072,-11.537055133489357,-69.65711083405807,139.9727113688248,15.091797648392745,47.21339942958443,-76.3930417888426,-6.884483580251294,62.185889560153136,128.29374596905825,32.93195957512009,37.6474411603755,39.387574571167356,-9.682479149978171,74.26164169434065,-68.63299953118542,-21.97376406108124,17.870566849416647,-34.7563606356084,13.358269535784984,37.96535473752698,25.662278901537718,-43.52941134151739,-13.477884188232402,-20.23977908886347,26.395620764173337,-16.431958620784407,13.976055360753898,-0.6743965414640285,2.2384270636299877,-30.789350257024946,-45.32382084709276,-5.891411093279416,16.558282935198243,0.7319140287109527,-17.951089287039693,-25.774436375925838,16.14596873830153,16.544843632501568,-45.10848558069853,10.952606159254373,26.192214445899143,26.9895648200623,-46.35995865499025,-8.78032345277116,-44.38985022079372
247.5690460205078,1.2635040283203125,2.2429157194136664,48.04506108139179,-8.143917575179909,17.584059783461157,31.14595985171327,-16.387793609621273,-20.716108068602303,5.265196667697991,-20.10010162977151,20.726687118526087,-14.345994861906028,18.51862289055954,-11.45957896027918,-29.113196613221007,-28.22541876655899,17.63746710098471,-3.9166695888623977,-12.979571633272265,-6.731107962741097,18.805895337676393,-3.83710722758871,-52.1368904665327,24.540714190566668,4.724493903802205,-27.34530595710287,-23.12048011473393,-24.926008270260283,-67.91450108284869,44.6539868083476,-21.702639573193252,5.1094020814201615,23.249385299008324,-1.7748253573903217,-11.89844879936157,-37.0085799059313,32.19663439648516,33.46260136101111,46.158221521739975,2.4014772231624093,-4.084845557255436,17.53797738786441,-1.0105815433322216,12.593172576468163,7.196318151069146,-19.935152359483588,-28.094198396673978,-12.462680502120982,34.58110888492137,-12.404113692202529,-10.762944944025024,-39.77508131876198,58.29854120362079,-33.21814014260526,-53.23477470196539,1.6536345069089755,38.512368247458696,-8.217716363601708,6.138057650741143,-109.26509712629134,-26.11339063857293,126.05186038361249,58.49926405156461,-55.546270896591665,-3.0613887411415526,90.17359228515161,-17.98156528664531,30.198427375763547,-27.400314213017698,-11.911583855146038,-60.21004028986233,61.21722115401678,-100.55754921493926,-45.31199703446785,-12.536715513653057,15.643017632376974,80.32424006540012,17.81445930651176,-16.877404580001574,-22.639724051086255,-6.204455478177019,-35.5067778652073,-6.193002599967961,48.19836522332892,-9.632342306720854,-51.73711648802118,75.05397982781832,-43.90857079784151,26.291385483463284,-44.85517229057664,-38.56415565886539,16.66585635374437,-26.355946963966808,84.90781810555816,28.84203446281572,-85.53251452098272,-18.942023686343443,34.929118337186125,95.13646198859769,-5.062104682832818,38.83333399909417
248.83255004882812,2.0449981689453125,35.296212905924676,10.669468428873365,23.76337181158486,-73.61895701541688,-73.12703989628103,25.6476518360774,33.991837303798384,-47.68176407163374,0.22828392577964207,-66.29935585630581,-41.72044034503449,-83.81226234983436,-59.70414220540152,-13.164023880139531,35.37485851821346,-73.58593909076446,24.354445584415064,-15.776688825112256,-61.744261624165176,23.96462836677459,59.513600739065495,45.40273057913918,108.2525113805531,-56.31703242299512,14.898137861055256,-119.12385781980349,-8.071739656483446,41.59059065980807,138.80185191855952,-134.8949866713029,71.99064020306986,95.16010416228487,36.91286350505654,104.012495034756,6.177413201156843,73.82166469795295,14.657417728525633,32.114289815902566,118.79557258733462,-42.273793578292754,-33.47520589942007,-32.728024079093245,16.137296337264004,5.437280996513209,27.60400364586536,74.57107604319164,33.3504103830584,-89.82871814559397,89.31972176686645,-88.10454345401827,-92.01658325306808,80.50466888257603,7.865146251913799,0.47370254719011484,-56.34035340783773,65.87015635156675,16.30845125213834,-23.743260637205886,70.10063527720342,36.381256253715506,-7.52091171707408,10.094661298016035,2.1679827148638395,-19.913382998942023,-1.232255452105294,17.904209814203494,19.931551349735297,36.301748075780935,12.745659490367142,24.1475812756848,10.76115383825572,-8.71451453186218,19.866795871863328,-9.9652434799724,6.114047680439766,-12.781129663732159,-28.422623801664294,-24.386307639593436,41.43698615820015,9.53674112910822,6.360463885089192,-16.109820812711455,-42.56346575077389,-4.8758287076471944,-0.2431767115247334,-67.60339053420898,0.9511191712068534,-30.13424533170058,16.87972654715358,-31.746594436395597,-8.3094410641833,14.737251850837712,55.43203284589043,-1.2235009320117953,9.364509356648036,7.7757529116226465,-4.471891722740711,18.667277169821734,-16.059139207454773,25.33945244426025
250.87754821777344,1.8444976806640625,-27.607094739031144,-14.197096077701156,0.5961447999135867,-11.605674781681174,19.374898276274482,-23.378918332321938,-15.703807927245224,-2.0507179383859064,5.015920224220055,-5.566801724818873,-9.730474978624947,19.631871822420834,-10.232661544264651,-47.88040369081672,-23.858884867022784,12.937338384267768,16.65079080734145,0.05820638355828578,29.44771625465448,37.81712825182264,-38.12790304263391,54.529961005621466,-59.869014573105645,-21.49238913892144,-16.222352382295398,13.613421960428935,83.25500586438969,3.0041506428156453,-28.000752755129795,42.19110621928571,10.762650874151657,99.99048692982774,81.57882973083709,54.56429784992136,89.95248244381628,-111.99270425616703,-83.40980477016755,-8.604529320395045,-0.4797510759056438,-141.58150206336293,3.610223559608567,5.605952728409368,-115.3745461667007,-37.59907707915115,-1.3628629460743014,-14.31896898301381,20.723818959438095,-26.891430977131385,-24.411800607967468,-17.018192621879365,29.275371624582448,34.20345473697368,3.856215267812164,-41.2442447866206,44.42700822667621,14.174210753129517,50.044963734581906,9.31018370726234,55.34734944505776,-18.35637884628133,-15.247754076121936,54.71917748153824,23.617990934955134,7.3718143680342045,-51.1943107176562,146.37385718186576,19.810322042803314,31.814598151802052,-2.3733256318894504,2.309045863269846,68.90951249489677,-50.70264223835148,-134.89272508056777,141.86804366724996,-83.71176635164024,72.45378126786672,79.45993799090107,6.166776628704348,-3.473912448029644,25.380953553077532,-24.918052877654432,25.760761725829667,37.27141215596837,14.542974359576146,26.63550777203061,-22.257098090296026,12.651644194143625,-27.211836201287237,9.622586002508761,-51.63504657693164,1.3130119809444256,37.679920200089256,72.17081550034837,93.1323082413067,2.628284716216461,-3.272776599275236,67.04223530570947,7.994790801990881,-15.994270449980945,-2.875887642854188
252.7220458984375,3.55859375,25.531846856422582,10.415504378772052,64.98831390761393,18.158573448902505,20.635377141176622,-67.06317880911915,-10.866577618708039,-25.466040687511747,35.64260327776271,3.6744712241821462,-9.885510229640094,52.9583014537053,13.021793686598102,13.326462943850215,-3.7161514079974793,-94.8189958649593,0.4663039112116678,-9.045736961200276,-30.391686708131182,-64.5659823616508,43.00876893768442,-25.584899329692135,-27.7317359164609,-32.348345911402475,-14.220508549050642,47.44871694641694,18.355785482073152,-55.246713727673146,72.17641923764023,39.38815698090507,38.17642380134884,-102.86354901663134,117.46250787404685,4.051563054220717,-9.065808412840994,67.91828432661084,51.16849264763791,-44.11053139804338,38.75470584204995,67.37865244456434,-3.7888272414187885,7.866510924007834,-57.55978159036696,-26.44655094589036,-25.590247311003843,39.66420894032295,120.24871890845753,57.169341900878536,22.924371733745694,-22.231999269012164,28.596720430766645,-25.71343487460946,-44.57468646094582,-0.9811755605412538,3.8359891658042375,-21.08788122381128,52.12546224201431,110.44411024870551,13.842476079366463,-69.09395853094013,60.12393524791432,67.1219083522981,39.67002516021745,12.386353570560232,41.05755649742058,-66.89875395452654,-19.52312481549219,-14.208237073576743,16.40851320086921,29.951067384741737,5.9670439081462305,-17.0307910441929,-32.89972171454655,-45.4385738977718,3.3278944810076942,-34.965302940826305,15.680994559379194,38.43350787423709,10.66296527042114,29.143952170556485,13.967876000043038,-41.37939841587953,-9.80646714915095,9.506971998134148,-6.262096802903233,3.3000214530899097,-18.47224511723091,23.90091261494608,-16.00805743202558,-21.275266231380773,-7.501446467994185,-43.54667362265712,-6.798349565006222,13.262702114884714,29.23862580141218,-6.50625191111115,3.662617879823708,3.640043226316262,-23.6029914840141,-15.592367298879871
