start,duration,0,1,2,3,4,5,6,7,8,9,10,11,12,13,14,15,16,17,18,19,20,21,22,23,24,25,26,27,28,29,30,31,32,33,34,35,36,37,38,39,40,41,42,43,44,45,46,47,48,49,50,51,52,53,54,55,56,57,58,59,60,61,62,63,64,65,66,67,68,69,70,71,72,73,74,75,76,77,78,79,80,81,82,83,84,85,86,87,88,89,90,91,92,93,94,95,96,97,98,99
49.71575164794922,1.2831001281738281,0.24748694585790273,0.11698140782040271,0.23414927912156655,-0.18286069133908742,0.2454276569911985,-0.16864108306986414,-0.19069113580360442,-0.2821541104716469,-0.026311654588795915,-0.12062840603298616,0.06986730279430911,-0.046840650102080744,0.1644901569674512,0.05413297254878514,-0.08631884283215667,-0.1374863312924212,-0.585425858137504,0.2784886004446246,0.08007765246828173,-0.17723249356705545,0.10032763472942498,0.43803878241928573,0.19449899469124804,-1.0006144999819018,0.61180309498608,0.03517478330117217,-0.0651171654774666,-0.2002419147661264,0.03414031084343593,0.4173948887154033,0.618550946899192,0.07329120683902988,-0.3397936413913504,-0.0689592886281131,0.5208531068415616,0.38536493954313383,-0.0920140351810301,0.7025571623838547,-0.8943065067794856,0.12780494300124998,-0.9616619842494454,1.352368310242429,0.2833162470538131,0.018767861175021692,1.2582516238573074,0.7946929775491192,-0.4296871118380192,1.9737831648504292,0.18209366345324485,-0.6703017198681632,-0.05704136665796897,0.3969429860180321,-0.37090649687585975,0.23484710975554607,-0.6108314458017855,-0.022318798082328895,0.11657700739153405,-0.0453925536922504,-0.7008583031974116,-0.06798028805320538,0.07403964788439678,0.0866097065471036,0.027519786339780986,0.027040820060859026,-0.10262938340102438,-0.03206465903031307,-0.0013848657527731883,0.19200844356244823,0.029321760080684697,-0.034341215217774675,0.01176963064401986,0.14464035248107585,0.06842596207245433,-0.019914782578657583,0.844580839029378,1.247024899227254,0.35022780900940587,0.11868528250655765,0.0685108940136243,0.03915089213566959,-0.030810763634058453,-0.014196051740970031,0.0821233206823167,-0.015400407293155297,0.03107569246903345,-0.03570302243593566,-0.009108743876316567,-0.04501658001652875,-0.16136536231855242,-0.025397289473675137,-0.03180964825297293,0.04801103920305029,-0.03729197477043317,0.07339063150874595,-0.12533050648066324,0.03284330719653791,-0.02504727622531163,-0.016092963462993222,0.02473715780649411,0.0921568537948865
50.99885177612305,1.2327995300292969,0.0949829710070065,0.1274277183301372,0.1332609072071061,-0.04823423713251578,-0.0832786521309657,-0.11306968576179069,0.21356540702032675,0.12691256965637712,-0.23904607210444373,0.06718733846614083,0.2173025728079163,0.044990415525178004,0.03280956251952598,0.024037475421303068,-0.1006894539351011,0.12929377177447332,0.09688299500291539,-0.0960952962221645,0.1298995899066276,-0.04022763159225266,-0.21483244038598437,-0.01644477280216382,0.09464896587470203,-0.07893533704554553,0.1347255846496314,0.05892620763387992,0.0036006904421084017,-0.010133072273945373,0.05043020597505574,-0.11804703301485882,0.26796278812095986,-0.10465692502612313,-1.1081979833438595,0.29020485155620224,0.19190472648582252,0.010784941874576515,-0.00866789927928057,0.2328527179030877,1.510370888782189,-0.6197202384556255,0.7410522800607862,-0.2950831915882888,0.14973415443993324,0.025426974165383254,-0.22645093717510834,-0.3874503460602278,0.41812883079253804,0.2015159795590292,-0.10519310028334769,-0.09358584373685067,0.21215370037378206,0.402777133716197,-0.04491231351028639,-0.2499136887882128,-0.06771139794081343,-0.005166854916699305,0.05836007223999557,0.019717063453579944,-0.0017057671944293263,0.10428957250017987,0.04027782947821334,-0.0970279108061697,0.06280602806966172,-0.025746081404135188,0.03386192437296072,-0.050809229491299346,0.0169675267211211,-0.07154902421387366,-0.010751949711501736,-0.04971538487963327,0.08545265188823403,-0.005112733415507387,-0.1704704535331704,0.02561925235941656,0.3443467851038992,-0.373595099893408,0.025068846550285375,0.11302145668812955,0.04183561428835955,-0.08037281259851675,-0.056640561734359884,-0.06590255997059123,-0.05840365076950101,0.02893528322152896,0.07299695923296347,0.08583349912759126,0.014286428301545584,-0.09160438399110786,-0.07606518176008856,0.2564008232152111,-0.1528808770093686,0.18877451601223755,0.416896910621924,0.11729262120811064,0.022591690493323338,0.03703503517464271,-0.07259357963279625,0.012027878101183498,-0.09815126737694554,-0.07958457421982584
52.231651306152344,1.27239990234375,-0.07042104675794529,0.09122206587670945,-0.04641577664742585,-0.1333829483296788,-0.15402979813972895,0.12216268638545827,-0.022424316164338987,0.22208194346616586,-0.08344066378673134,-0.23849859396804568,0.07917544420706334,0.04756999906816332,0.22888998863148885,-0.024410067053203085,-0.08197126203461855,-0.04731199563318113,0.10780467715015672,0.14420755987129114,0.08771198818499151,0.17452915127527527,-0.3146460165205273,0.20168149775992664,0.041902741885853925,0.11226085774438332,-0.3126193081099833,-0.16925524488071816,0.10197993182305384,0.06164739151619741,-0.07333121946133132,1.0577087755510861,0.09556841190548479,-0.6498381489628124,0.6640600095535604,-0.16945848949237283,-0.8581025337870265,0.4380476412211594,0.6406026252551764,-0.5506389397132849,0.5512780383884132,0.2843328681848476,0.20396197659496315,0.2085866817080373,-0.38756640196786335,-0.8344639406749469,-0.20105436779361532,0.3472352423097724,0.5824838217409848,-0.10258919895993673,-0.7149380265510767,0.08595623262138362,0.20923292121307738,-0.07055610939048626,-0.08167111008131406,0.09640462463124463,-0.05597485164571925,-0.009193623950344787,0.0658240226711189,0.00035391595014800845,0.04281564865518727,0.017500299130775786,0.04370406548897761,0.0897310066669661,0.061702709870774516,-0.12216498914177253,-0.03218122903359023,-0.1462974287630195,-0.08567129345397372,-0.03842778601460622,-0.12660091371821008,-0.021282579605769937,0.052957006637970434,-0.09971972018947278,-0.04375134760333452,-0.06739894814156451,0.03323150609729314,0.10769111363726057,0.09160659520056905,-0.026775320800337944,-0.10597877916377064,-0.07679871190663214,-0.0384732898184501,-0.02897208655117,0.07957414778859191,-0.07204303867470091,-0.04389142091250857,0.0013010574850558596,-0.07587883287642147,-0.20855214616591658,0.08992066145543126,-0.008793837450862391,0.0837160253467241,0.09126675515268791,0.08366385103432664,-0.038495037773704145,-0.13548559351916578,0.0951332345200437,-0.029440300073829397,0.020757272933953155,-0.0790936794767477,0.054596711956103584
53.504051208496094,1.2029991149902344,-0.09037843499485929,0.20267333892242134,-0.296240620920812,-0.25996702923407355,-0.08982787948282155,-0.3653793162733234,-0.03271993645327333,-0.07894547483688204,0.1283158990563622,0.055717830909334784,0.08624527267899201,0.03721635605893403,0.019035031908213526,0.030836252824991917,-0.047753225409991884,0.06570948441472976,0.05148640256485972,-0.0769476705003009,-0.0069796411379895625,-0.016029225577981518,-0.6555185210916159,0.5544927491130753,0.2585077890247003,0.1272496532840776,0.2362042770080206,-0.005073738176457237,-0.31838566169907834,0.08895052581892911,-0.07382137735229262,-0.1990697851717221,-0.08612340995418172,0.5227339788850393,0.5218366866252261,-0.04478143692173994,0.4512971369145884,-0.49575816661185834,-0.021040189941999146,-0.04935453476966151,-0.006040306483929725,-0.6518386108465896,-0.03570741829076585,0.6070110540190092,1.1490065841519508,-0.319619753886787,0.2849436098695217,-0.13214108617850226,0.46697215870100706,0.5613228042351006,-0.06047297427983771,-0.14341452930836945,-0.3491993316946767,0.3013142035275831,-0.07000911559300858,-0.03516892069535629,0.013192835453145773,-0.010444051211793232,-0.04887932081989551,-0.06354742631740617,0.09068104517188132,0.031711998870269854,0.057855512797171646,0.004452948464118091,-0.11986944246334354,0.05304310623848353,-0.022363383227394174,0.007030296919751804,0.09187935277935501,0.05736794472071093,-0.1104330360334587,0.049216409229478404,-0.02323669200363835,-0.0927843127054789,-0.06533730519620931,-0.07353557554361709,0.1239046611101932,0.4535918249573673,0.02327512588522237,-0.1714052122108258,0.040764896895374395,-0.008109960715733933,0.11141679979816121,0.0011032857415331013,0.0732305279243551,0.08902127026890816,0.00857118301436163,-0.015672967906347545,-0.044476010677845436,0.11283549086253146,-0.12592672767346721,-0.2454379247611856,0.09565555053896249,0.4069942126504409,0.17052851040196373,0.01532640378347207,-0.08265543080291576,-0.03987613954485179,-0.09269727198801395,0.037367863714235866,-0.07287897715472585,-0.04856743840008476
54.70705032348633,1.2932014465332031,-0.052895287146283956,0.3270705904283269,0.16865735107384003,-0.34242188930989587,-0.6967800112609903,0.4523676786194897,-0.7227328276770937,0.4719028044061322,-0.08558711932071576,0.09129626141056837,0.00820752593704413,-0.12065259941204842,-0.1307676497058681,-0.01637346953918048,-0.05861062725739521,0.07896138758900095,0.1874986671435951,-0.009832982353072346,-0.14773358187180657,-0.5941773934674354,-0.13212693635460498,-0.23229900704702383,0.16266485113524964,0.23016655624259225,0.1382873833301456,-0.0022423040262211785,-0.13533674668003132,-0.34367641995130793,0.3968463175164859,-0.1300722221606648,0.8576063771662835,0.8444642897627208,-0.5475873330691617,-0.37367089060630354,-0.1331723735592037,-0.5385271916491102,-0.43143341029654325,-0.5406705901441248,-0.2109532230241427,0.6680320355432581,0.07937047612751749,-0.23446420519796343,-0.0580356154929093,0.10459509354309478,-0.4074040772767372,-0.16658295630671952,-0.2649217067487975,-0.72827995740073,-0.43134906594471745,-0.1349056437727305,0.015945731745881254,0.20552344546103468,0.05683776572513528,-0.07481810028377332,0.08425320994266144,-0.06601703899825535,0.06740675360632468,0.007598912788749268,-0.040727689524087625,-0.04280226168299771,-0.07318673743917775,0.026969263506332483,0.05622300441620508,-0.037921840579149976,0.06575175942225606,-0.16363629802199955,0.20626045657907716,0.0011889888238821719,-0.03305606608302799,0.027348029201248795,-0.031184155381314582,0.059967575968827194,-0.04831086586113284,-0.14942481175648695,-1.151127954966577,-0.08494354044008348,0.13728031793344553,0.05512748724933716,0.09558117261217054,-0.012429934377250401,0.044443240215454594,-0.0039700299823455035,0.020026296369168202,0.04965401312636922,0.006185311377681234,-0.05675081300174098,-0.050385971094134514,0.021496469539742713,-0.02590374983804497,0.16806565962895048,0.4272895044837382,0.231476363044306,0.09004989465018735,0.09328719486622589,0.03463153730920203,-0.05729569922108743,0.0033453354197891727,0.03352956620999622,0.16852409406285307,-0.030272712931269076
56.00025177001953,1.3024978637695312,-0.026210287770301786,0.11497013470521979,-0.06451290261461512,-0.18927991075012454,-0.5545799357922339,-0.07429070790131691,0.12850134014108955,-0.5144109008838383,-0.002000432195055968,-0.048020609888349344,0.021925631663747475,0.06049665193019708,0.07025043393346128,-0.12913747935482575,-0.13179630347821275,0.006714659539032135,0.14800418391477754,0.16915262987173324,-0.07814920569737625,0.27570887531402766,-0.09342365443198286,0.7118681599462738,-0.09592452028253796,-0.027480002992933933,0.047718196933861604,-0.27677443872063157,-0.22235731198187636,0.054736010803950796,0.24706408145212838,0.1633838217678416,-0.5397482380901653,-0.31501813353398694,-0.22782675311850084,0.04273629693063752,0.09933696595980165,0.24880038967738233,-0.4818564278069347,-0.27313100032268406,-0.052322863067083086,-1.3624418653028467,-0.26143247067931724,0.1741265653961046,-1.1045139851011658,0.05645750377177493,1.36095019388008,0.6793525093552129,0.18192575611214543,-0.10480922699496811,0.2697640295407669,-0.17057012673404603,-0.5278915802732634,0.5860813295812131,0.15646345722533675,0.06696580459264034,0.4243605910060624,0.14317527502582728,-0.027865972639445194,-0.11143905115901429,-0.017784902583372533,-0.07022944535066225,0.07195421288879145,0.03800913653761309,-0.062404660999425626,0.12674499106265155,0.08825426293916,-0.145709696630842,-0.041722857203036236,-0.014071488532845261,-0.0929294799826777,0.015934616741297553,-0.018873914270779737,-0.03926804979265939,0.06314952711226592,0.029302701927080402,-0.25999895402550816,-0.634396035967803,0.08055231437232381,0.04807391956246343,0.016922932241003334,0.026411421850345188,0.10719786037196137,-0.026630548122282063,-0.032637954611212314,0.1042611298096642,0.11138148862739455,0.02597748459782166,0.02158524542047359,-0.010978446725635863,-0.033741988326001206,0.23976369476254158,0.5742771743737528,0.05731601165980846,0.2708751229604932,0.012201487947560916,0.017896579471199776,-0.002710496745847008,-0.0042316632502259425,0.03402245139802153,0.09012073126893545,0.033635640337026415
57.30274963378906,1.292999267578125,-0.10484629992169327,0.03208156769649705,-0.18753668454309252,0.1066780293565559,0.09082707545660601,0.050285230179397594,0.17176268240767734,0.13705099781789742,-0.00982008799572297,-0.08196468038516917,0.04076255715831989,-0.16480903277505016,0.09318334001613206,0.05411526173983969,-0.010610708213193223,-0.09526433460028243,-0.016133765854757315,-0.17281052816185344,0.11220057395126547,-0.29773903537115964,0.23242900225066493,0.7874741467842138,0.16019885830546726,-0.27808681958596493,-0.07926721910200912,0.00796020290589141,-0.12230599759603296,-0.049676956006975775,-0.07794682774915221,0.5214589205555267,0.11005928156630657,-0.40411118977494853,0.22776757179158857,-0.13545701812073577,-0.12090307291030619,0.26730269586268146,-0.12827276290418266,0.11620859941513292,-1.4777940858050898,0.3654625856729301,0.96600442462406,-0.8131574713920475,-0.8478271811393404,-0.4685827171337912,0.15535148734091808,-0.23840214577737368,0.9450542787531605,0.3469486249739998,0.1487045758490615,-0.0855053287328534,-0.1605234373003468,-0.03074976436467651,0.008388666008867809,-0.0116925906725406,0.03451065933928012,-0.03586110068638139,0.007543508027476997,0.006329993491504116,-0.005341571634930015,-0.03824665184195273,-0.021052770981172295,0.021640133259551712,0.013105831631856052,-0.0514695519615469,-0.23925606670682625,0.01343159687158926,0.09754986108583316,0.022932861898094296,0.02804205716431589,0.021434602526012397,0.015136321927734321,-0.050415960848914865,0.01520231553188714,-0.030241336565691748,-0.017226496683528006,0.12527447687211019,0.199015582097886,-0.02479003763728881,0.01776742448365753,0.02113534678592663,0.08282707545216741,0.008800755234349084,0.01875647942716166,-0.16307220240780795,0.035874329850302485,-0.08840091315329682,0.004376142209158641,0.01876001648706429,-0.11073358825702638,0.14365635956562248,0.07924678676256423,0.23640633445220688,0.09536182789424774,0.024951452474225595,0.21057577538716826,0.12438801268929392,0.21391540517428506,0.008175379865567878,-0.05087620415920699,0.011926513176279713
58.59574890136719,1.2331008911132812,0.15585756746319257,-0.10459555887419184,-0.0950984043032185,-0.15565137870094797,0.07874981994035246,0.10755346854471998,-0.04156866573809906,-0.25043244105424933,0.6990253727064276,0.13691384143628132,-0.006172696395618918,0.028891568725322683,-0.030625614489082652,0.0028770392643971097,0.17043747081816407,0.42338111330646966,0.08182280269959391,-0.01577913093136379,0.07661238244683831,0.028476635239069455,-0.14249772880575926,-0.35045789977926967,-0.2297189314451397,-0.22091852665213185,-0.4184063405077266,0.3969845410195274,-0.0818153198258456,0.17176666948112643,0.22530960474250009,-0.08374301124028673,-0.39175315222745827,-0.023480733588483085,-0.2454748169202804,0.1392579479565494,0.3806759737512264,0.6704369492695064,0.3087748808726467,0.2749211099910176,-0.21358123348975677,-0.3101817169278029,-1.1571625784686,0.10384697815954147,-0.613505411619166,-0.6417409011577063,-0.5845527548606664,0.9900736612707608,-0.02158017235920562,0.17901397191534163,-1.4234202592689176,0.07086297843768014,-0.04454078481839419,0.4064761624466325,0.08680862363553712,0.25997723961463615,0.18403323124648963,-0.001165034494619327,0.014195424716619859,0.07260801857412288,0.006900454564816803,0.02309917446155282,0.01930509360213681,0.1165850773062492,-0.03651994251084481,0.08861680219177819,-0.040389481513077544,-0.0891700292439653,-0.013731666371692194,0.19170471961129545,0.04563729835305999,0.13441802520891072,0.11147001063936818,-0.031445649301836756,-0.044236296615345,-0.14197722650241404,0.2971041922961419,-1.5754267351321067,-0.8776069369229896,-0.10399496380825982,0.05708427797041297,-0.14507380132748376,-0.016202001957683884,-0.013250198965528221,0.08279804965776941,0.08601362253909293,-0.059282069811980725,-0.0348112172245306,0.13023214904284636,0.2589724800769232,0.15689662796599463,-0.11720482020365156,-0.6168627187784352,-0.02256154799688147,0.07235457949756056,-0.03780065457955066,0.12077611770656274,-0.1049894769688125,0.1416912482314651,0.06078784965761576,-0.031043276422601802,0.03601798502971153
59.82884979248047,1.3526992797851562,0.04327001038203317,0.0009085402967581487,0.2563936815724808,-0.006135809986354837,-0.11200616106201489,-0.23126295535410238,0.5421829812011352,-0.19122971242302358,0.00756310984699371,-0.2422948316685386,0.2007245397833795,0.2286938673425662,0.4997654813304615,0.06303613404392615,-0.09890118445519422,-0.04373999271998452,0.10531660164393367,-0.010838858188562714,-0.03356774201291087,-0.07765895847724541,-0.16863977940648528,0.39418376261554183,-0.32618781232593,0.13669201674611114,0.24911283082765767,-0.44365189449998343,0.04062877178883384,-0.44580660695199187,-0.02735987316526718,-0.696194820582849,0.3221596559238905,0.6398147226155532,-0.2711572614165704,-0.5780495629560617,0.2385069735507342,0.23887335670203957,-0.5301133453115825,-0.2709301741925306,-0.1953269034235104,0.14609536145518043,0.9406103316455586,-0.0358294225514885,-0.36055820770510577,-1.1428311957286155,-1.2538344455509605,0.6527432122849051,0.3605725147719471,-0.8669295897209739,0.49476044951689374,-0.3859109614553083,-0.09304721919186404,-0.04300118663221217,0.1492145708187475,-0.12745386615890977,-0.041167323644160835,-0.17093523500826588,0.026770360160220167,0.010399253568432926,-0.1174528732625308,0.054348535111972164,0.12185429177492563,0.12520306055640684,0.03782904584707758,-0.10105186417849735,0.006216518983085104,0.1194481040590975,-0.033915783942178944,0.02817047862052306,0.0020105115058323955,0.0030210832995629503,-0.015462939490810913,0.0002734204737135093,0.02060259607283013,0.10520977990953298,0.5179448535819838,-0.756404285634863,0.0932259722924619,-0.22481235851072393,0.045370587675128804,0.027732719993104123,-0.04544883348306463,0.006142755155387109,0.06319350943466781,0.07353828446840265,-0.11246531553792619,-0.07046145298402383,-0.02773335787862085,0.06309019365756835,0.03125878416679348,0.10870292035574076,0.1888668843391219,0.0331325213230452,-0.18867261713408662,-0.30984634610729983,-0.0389689736092912,0.09889069785740054,-0.03009125165564113,0.028327035015629692,-0.019180076488288417,0.06840941165300748
61.181549072265625,1.3834991455078125,0.07679071721279812,-0.020174288579120077,0.05065058339750961,0.1043892330494643,-0.02516175058408404,-0.06213624570608251,0.02100904028975431,0.16097771057400742,-0.03990550981061984,0.10595078957574157,0.0030736410745248327,0.046526609423777336,0.007113503395235873,-0.19003518739283273,0.04621510206521119,0.050989080786772896,-0.0034738199000997703,0.0217224806564894,0.08307245905576752,2.8166901274991312e-05,-0.008126061595054822,-0.05407046982620099,-0.3076085318294534,-0.2538287949824574,0.16555258916825075,0.1412321878294045,0.17986541814269552,0.3238467009909811,-0.25226329902857375,0.3337879078063821,0.006621511750013284,0.3273709902987975,0.4073114325949882,-0.1710848101758434,0.3716979006938785,-0.2942082033104835,0.3245884699269723,0.45913376645698195,-0.17197912092116588,0.16060541536001866,0.7568499836915669,-0.0439025437162819,1.2390513616566903,-0.9893890896500261,-0.21121659286668754,-0.41017577455308996,0.11189479242458819,-0.734256452861437,-0.03409078230659729,0.18873303043910541,0.33690571370094236,0.4710935203387039,0.4086275874463307,-0.016750863507820457,0.15891603304888846,0.09911403541831186,-0.16931601292106374,-0.015709353524526688,-0.0913647414192414,0.009231223183951618,-0.06637543054020353,0.06746104966704136,0.09623482429335478,0.0032794157259970307,-0.01799396730185964,-0.03430065405499874,0.09273193978948985,0.00823579349425637,-0.10606793901081556,-0.06264910598814563,-0.007501491841737244,-0.02108232483026466,0.02617274598834575,0.13262960230583357,-0.38935117950268344,0.24663874855791823,-0.020714415843540727,-0.05958896394689252,-0.021340698069951126,-0.1438626956903262,0.01713628996059552,-0.1146947488257692,-0.027697951938759756,0.06590539009446209,0.09535852778405232,0.04444290012847189,-0.13615916360036318,-0.019397932336909854,-0.05408143032566884,-0.11136513616063809,-0.04939227987906209,0.04910634357595776,-0.15890875106388383,0.010288970624218092,0.007223610090548201,0.11630825305749776,-0.12251544439232742,-0.09747035135749306,0.14341619016568802,-0.0008325318286940206
62.56504821777344,1.393402099609375,0.007149179513328701,0.2224585919726591,-0.39100292491735356,0.2442733524527354,0.19798628853599212,-0.278074070767077,-0.2539118370835227,-0.3026743511927992,0.42680948280094516,0.16145657949734926,0.2647499191349759,-0.05144009448305455,-0.15235017820777125,-0.42581545453828706,0.07337565762066384,0.3638571088441186,0.08421415036831581,-0.3473203659187395,0.5632699499522724,0.014616862342618036,-0.05429236061219739,0.3051884737760808,0.05839090113626535,0.06609259097176208,-0.030060679737713456,0.21357512733712092,0.261757750261758,0.11836853178941797,0.22969788363822516,0.2321533812645945,0.3784404412503517,-0.8575351064906407,0.19470150503871586,0.43585798440144413,-0.05822039469565518,0.027413253496642448,-0.10781300613387543,0.010554617598282787,0.1736383497725142,0.4376664112782616,0.11209403140469537,-0.3985544865137966,-0.46398324313828593,0.3776443318169935,-0.10730198209401137,0.5562650641272656,0.19303172295931798,-0.39767595222830815,0.010990151018365271,-0.0561549193063658,0.3084459050383827,0.24211450442807964,-0.0699568623708505,0.37677700707762296,0.03690291203509821,0.09004753049506145,0.04564314549203233,-0.012286923093583728,-0.027937235104144455,0.07572831052552652,0.07074608906331382,-0.05722376360153611,-0.036127818165630224,0.06885376428660196,0.013951384933857358,0.003777028110339385,0.01965386094642555,0.0065045255928137214,-0.08464644339109317,0.04351816265158668,0.0840672069378339,0.12240648657021998,0.05236567684395424,0.6991614021422545,0.8350771850362166,0.4842304096603484,-0.02927519404012326,0.02906064688474207,-0.020854455196156963,0.1261268718762012,-0.0034875922624182905,0.046808541103021586,0.08033475616167755,0.0466659767358371,0.007621063677506396,-0.10215123854329519,0.09590324265664016,0.08219123642125759,-0.29977571678073583,0.5650131138273471,0.2606158096364629,0.11313921867322801,-0.029159586181897082,0.007513116548555283,0.025409361956273087,0.07500795672826376,-0.0195877142545315,0.015460496818615072,-0.08574110819549917,0.07014306338670893
63.95845031738281,1.4126968383789062,-0.06772626779215114,-0.12714600904115542,-0.09484834850244771,0.07803878734939448,-0.0027869210708435822,0.6087574867921732,-0.04795200241216315,0.04522047213595694,-0.8415406811147506,-0.507058896800534,0.34818280181496647,0.12031504686891349,0.005117904415164567,-0.060155559460239316,0.17036710022410162,0.013954567019446393,0.13725525398248656,-0.0019403351020660237,0.20192821741715178,0.06381856877254857,-0.20953571121056963,-0.1983888045078756,-0.18534794800457297,-0.022062822137970322,0.01418671334158473,0.060408572328880875,0.014191925136212633,-0.23671649195796643,0.001707094533799043,0.31941896764964,-0.2297512546260262,0.10916383942434664,0.08384724389876551,-0.5240041717148691,0.13256077589147836,-0.08088845479156317,0.4011506204170886,0.24737707587490299,-0.1394583687584258,-0.09997182655589869,-0.16312412907915644,-0.032838663654762144,0.07380184084550005,-0.1001879950708649,0.0008117417980239849,-0.13012049766327233,0.006285677853725004,-0.08630419097102389,0.08338124788988668,-0.27270069927717666,0.21607213708454762,0.20121215037781556,-0.01460999673283796,-0.007833316294775471,-0.015887515797205654,0.18315879969829554,-0.09819487896885412,-0.08344595188228915,0.12903914262737734,0.06957762787886791,-0.07063193331732052,-0.016192988606677193,-0.10212972492350532,0.0320977794940152,0.0931616716064885,0.04409822774928467,-0.0625148368884194,-0.11647152967365462,0.23133605673439195,0.12311411301003262,0.01965915726293279,0.3016942586712958,0.33395064834130417,-0.25852014784752164,0.9569136868946514,0.31361879005674326,0.04024614241509565,-0.08463491169191378,0.0018224743778069707,-0.12812215212485523,-0.02653328923358982,0.09454975952525549,-0.01891090588748414,0.026212361593556135,0.01807211405332019,0.014607331854816037,0.09275848940446976,0.00865306475785968,-0.1555735727577317,-0.49957947084831633,-0.25054402090859507,-0.08274414580350928,0.021057672964305114,-0.08052032283796826,0.06410562913018165,-0.00556911426091341,-0.09629993235019332,0.0012782496614148777,0.061971951834118244,-0.0038651159096360077
65.37114715576172,1.24310302734375,-0.010311935375376946,0.07052088550463775,-0.05122483968458945,-0.07894602495488624,-0.054340237535010216,0.05942132556676802,0.15417751197915078,0.735370756878606,0.15260087506529357,-0.05240157327198979,-0.0023280102079693693,0.03740630941849158,-0.15332416061095408,0.07419236677040986,-0.048833530959872626,0.025715228275868366,-0.0128648087922065,-0.010425198550736998,-0.03157495721867458,-0.026243636370509044,0.02596436186111182,-0.205688184870375,0.7024699000026243,-0.004737472298918591,0.26723587453551023,-0.09632029236438812,-0.041761157358211634,0.03298248872301796,0.0219009877449413,-0.058202381464228584,-0.06569793295789507,-0.0004227669436686301,-0.009313654465307238,0.050833437011798946,0.05989270897715669,0.0746848195688386,0.3359933508078633,-1.2699137500244126,-0.3352906006186427,-0.38573306315218897,-0.1944230478165688,0.26664383185030394,0.4365445320901411,0.35955332163747034,-0.35477044666111446,0.721493426493225,0.10629239139740068,-0.40530540919800795,-0.40436793374864755,0.40656544787910653,-0.08485674311720914,0.8797780976001729,0.5498940501188784,-0.243898317248686,-0.17396599525729878,-0.2548794235471632,-0.16597522892383532,0.14369784080651227,-0.5580680594761296,-0.09022245639232263,0.04977285905355057,0.004522393267326067,0.21508948515683235,0.021707904935150478,0.06801182207156496,0.10338692502365754,0.005883511962816099,0.007585121210190981,-0.01437995780397537,0.17781692457387346,0.11339331732524294,0.07112106649247574,-0.007259229054083663,0.04580846668547453,-0.040772407466822855,-0.05352137642050986,-0.06549497457924418,-0.1478242344369578,0.01877700304436555,-0.03490475022655355,-0.10519914351107455,-0.19087295231335266,0.05430793747097212,0.045413712838828064,-0.028055987793517263,0.010420855440223744,0.032389273284714,0.020510849872335705,-0.04503402671070674,-0.09622743111790305,-0.1511529427783275,-0.19359895200940733,0.05497099217499163,-0.2394005318431292,-0.02422133499795446,-0.05630485293662999,-0.010537431269395242,0.018782082793202988,-0.13033095795239735,0.021319681112582756
66.61425018310547,1.233001708984375,0.020648710908367524,-0.3755866954954877,0.1259127865818241,0.2737946601979614,-0.7532368561748571,0.3493297866280845,0.3970487700345985,-0.10796869712368107,-0.22664926840693128,0.2816096144753022,0.23955169630049927,0.07554829532225962,-0.058565545135517205,0.07501246588328786,0.43203655856583045,0.13359651294115837,0.02584271982038977,-0.001794249723771258,0.2764950464251237,0.0841600824589045,0.23272872533637845,0.21382829707654302,0.4935060856409746,-0.0011475511965313807,-0.7503518674446235,-0.14146290903641945,-0.3025843536872883,0.16138276187249911,0.3125149197645212,0.06182494297020541,0.03751331070544753,0.49912223391799726,-0.49862397912172307,-0.5365052858574362,0.41516111606222117,0.9911088752205661,-0.49301793053229714,0.7748968389287956,1.5456699383624817,0.7466671868368331,0.0005674421083354652,-0.7346579471820935,0.0891517141353873,0.49042524716038216,-0.023780983338243855,-0.8068662725487529,1.1814119014978632,0.6948426462244093,0.43545591225282626,-0.18457843781632519,-0.3985555123860721,0.2465836408868813,0.038745038907714975,0.09773986309895072,0.029627615521535172,0.0065977426936130144,-0.019213760023740332,0.07209677692938177,-0.06625078906993814,-0.014774533928866657,-0.06995806428097293,-0.0007970667466368191,0.000711680525419478,-0.10748837531727946,-0.0018750250355570146,0.07648798820350132,0.052717805131971315,-0.05991224739403905,0.03307867005926723,-0.05294005734437147,-0.10416191826862962,0.02759627592689807,-0.5680763420885311,0.09895086207498385,0.0050751782303877935,-0.12976816745151334,0.08088058938038017,-0.013187246480595695,0.1681038830787487,-0.01035373097156797,0.02589997843495349,-0.0026513431235875157,0.017015672536215724,0.1166251129629684,-0.06946408652604412,0.16733757529171112,-0.37149420487843865,-0.48655734118932337,0.14556508543088406,0.7279941251862758,0.12228053204756349,0.10175951602735556,-0.03721082608306108,-0.06060965663321252,-0.0642050613211574,-0.098263350321907,-0.13950577155467805,0.03248012263836679,0.06193256121093497,0.04661597481211899
67.84725189208984,1.2229995727539062,-0.08915968861273255,0.13555196912592576,0.029522307699591348,0.05967699271367733,-0.06827161025211807,0.10863994564151709,0.3301817796114753,-0.16362651625496644,-0.014976701265346226,0.07045368521973172,0.0781492090116308,-0.03369394734862609,0.10449559164979205,-0.009283377660763703,-0.06909140153448942,-0.015140120472050801,-0.05187457370390113,-0.0158231663917935,0.02100405448053445,-0.056945135850064985,0.02525911364211826,-0.09457248473763562,0.04953414875398427,0.16468198501511683,0.008825585690324253,0.8449439655554386,0.24806015913437968,0.04804105555939682,-0.07275807382776509,-0.05816778483418235,0.4169522041851553,0.03027353754374757,0.11216280845441198,0.6772833590671041,0.11475480616040841,0.08142728552081197,-1.3376429508187855,0.20191275199066047,0.07421027422309191,-0.37306843878435814,1.2614434212939196,0.9930364967839479,-0.2033929518097311,-1.0521506280342217,-0.05812861597626607,-0.24981624790327162,-0.6033267379935562,-0.48163629521698825,-0.4855091817918175,-0.4283346496527266,0.47361543444073806,-0.11693253966123535,-0.31183653678271267,0.14905194207208922,0.14273343210383121,-0.024622964380185738,-0.01732663082974211,-0.02051648111208139,-0.03182979719195918,0.020868666633418083,0.024011823743507237,0.023492447373542988,-0.03370654466719388,-0.05447771465323865,-0.10470808531599905,-0.009641219433814019,-0.035181403446536925,0.0028791097239133103,0.1089284890166948,-0.07404854686938568,-0.08302783814867398,0.016761381497000728,0.10413977540226421,-0.0569449760592208,0.4563703960441289,0.4553908671018059,-0.2120724432136098,-0.05968583498208719,0.05035287415526463,-0.056328644124140216,-0.08962098672436536,0.022155009932852923,0.008005627838893983,0.10895492189709043,-0.12272743961537555,0.06542692852252094,-0.023993268904498016,-0.025687141026701915,-0.22794829691176205,0.2333368937621314,-0.01492745942715726,-0.14958524853172095,-0.11211522129067963,-0.08056394864994168,-0.03230395308356838,0.008371065357023866,0.07625344201146267,-0.018843841851983602,-0.050433714194575256,0.08002124593741991
69.07025146484375,1.28289794921875,-0.06497102075932593,0.022984243246957144,-0.23447460330013245,0.11041673782866229,0.22791440146230119,-0.10018534203121002,-0.34477394160438946,0.3409953772762998,-0.2720295722482766,-0.26329155989580943,0.11026010920654528,-0.2623699477966945,0.179664463405519,0.11940951119468175,0.03302734347746328,0.22402027765173074,0.05432854857859908,-0.1384169472206574,-0.15688087254202257,-0.05742503219183932,0.08454363331575158,-0.4124281998716645,-0.20470931073528675,-0.15564741153710887,-0.2530001463054783,0.6279980640132409,0.9384636805906013,0.17867000711426995,-0.4228448355574682,-0.3908343729166146,0.06175777688337586,-0.6645150274698407,0.13527480692739063,0.47112266920180873,0.4548689006557805,-0.23298302755173006,-0.5929495507526532,-0.25936421817873345,-0.6457448022023933,0.6568469116117422,0.4924380199914392,0.4330417980497461,0.47119159641830105,0.36872811809845674,0.09652475660325312,0.3615785969708961,-0.004581906007813743,0.9631056461975738,0.678299032314232,0.22713955241557401,0.09098379833073622,0.1585607557986496,-0.07309980667129172,0.11759274108435289,-0.05624475518549008,-0.8448673158744351,-0.04678578100459213,0.08857442088477932,-0.10808099857207681,0.13964317886423028,0.12454590266362137,0.007852315081418664,-0.17643479490319344,-0.23324990605941323,-0.01934121593504033,0.012581105049821892,0.062070114231933704,0.008794367863767267,-0.10766612555226654,-0.023269976589091065,0.07030626513302053,-0.07850528431099986,-0.07379426938236963,0.0845083491893465,1.0049960528387785,-0.20286193938020544,0.0038685400075205577,-0.0058977984858894494,0.020210528825151213,-0.05835804468998082,-0.013319613226583926,0.007415728444337485,-0.06298383670879323,-0.017012011014637472,0.059842744114108726,0.12094938417674009,0.21266352821569676,-0.32780503756514784,-0.010616974240705438,-0.09120663887462564,0.07370207029904514,-0.7126418285571288,0.11080316276631638,0.0004755374090270985,0.027910799656715397,0.07348914082111033,0.052190290019087995,-0.016281389357662185,0.04577554037585241,0.06390248975490714
70.3531494140625,1.212799072265625,-0.07847832003984229,0.1782445117603017,0.07800208811308468,-0.49902956396530285,-0.016961545555507527,0.19311914645361505,0.3820312758041849,0.03283696842081109,0.31705375427137167,0.10332166827393578,0.054574128011671295,-0.07261154258218476,-0.015234387369117246,-0.033010850256087174,-0.6241794654502092,-0.12463260361364627,0.4160700136969144,-0.036363604665899274,-0.28203599510564614,0.45535833950294674,0.28478253592656017,0.015367626771630068,-0.12104892813617814,-0.058914471704459515,-0.5455342158609076,0.33740334569551056,-0.11735762716946158,0.7277747352083329,0.41918681506072525,0.11659647171605952,0.4294263750341525,0.11687477514056593,-1.0911602857030551,-0.4846914109342757,-0.06730677805884916,0.27099592202934325,-0.2962265836904408,-0.08919248714695498,-0.40655253989221096,-0.35566960599654923,-0.4769087975200529,-0.733980319018961,-0.6886873828351278,0.27347459796325013,0.17533457788968373,-0.618648632135875,0.4490707631192551,-0.29654980910438145,0.6230783714771029,-0.5905175966861985,-0.2978419993190621,-0.11479956254280597,0.11411868082721721,0.27516833667188667,0.12721870375928263,0.0982695681342447,-0.015479028802912333,0.014068159095403238,0.1066296137802646,0.057656437393466535,-0.0011001485081070783,-0.04079974807715472,-0.07595883548024418,-0.03398764044140522,-0.0069099242332063115,-0.025728498081760975,-0.04089670798474289,-0.0505447110926441,0.00033484569493422156,-0.06868852198349651,-0.01539107498121911,-0.037245451631366805,0.2137218157043054,-0.3880637719314801,-1.0106795965313284,0.09783734388286891,0.02895775395537567,-0.11547499874753604,0.02931304534788114,-0.11532113671351552,0.03792113650381308,0.03123040087725029,-0.0846786547751166,-0.014215419984760634,-0.026869140873696948,0.015749709448776378,-0.05908086443665381,-0.1917354926422766,-0.19158075279400782,-0.036775856133410015,0.11063425734706085,0.14535841517532377,0.11004095281064882,0.07234788063311264,0.05131312281409418,-0.08141785002200115,-0.029026918297069822,-0.07222799066182149,0.004188034012142256,-0.0332718682649808
71.56594848632812,1.2529983520507812,-0.03679919479980184,0.16263554616384382,0.33034390658074597,0.0741768686546097,0.5010613566693749,0.11864703036891315,0.229528679493127,0.074858005170802,0.3109707296734567,0.1156810035424761,0.037923614062915154,0.042143281949130765,0.05267046740633495,-0.2710871654915596,0.2947252575888313,0.00980487049869383,0.25691140411235575,0.31351043460752953,-0.11249397977700064,0.24454229077562134,0.25850782094223035,0.26953283831495267,-0.16539284471916982,-0.1341272674186991,-0.248258413085596,-0.7332382996081456,0.1270426066272069,1.4240960766704398,0.42858366274581583,0.9060873918763142,-0.16323849337195162,0.6101611909312077,0.1378955872226858,-0.662867614533204,0.06254970635513722,0.8992744416857319,-0.5049641358153723,-0.5377649455233396,-0.047438048857841295,-0.8043013482466094,-0.34880733570187616,-0.05416614317167165,0.5375583079770413,-0.06215227551602448,0.31619398941354115,-0.34756916747013555,0.20833224946493192,0.2830973558115738,-0.3524634768413467,-0.9719335978053534,0.3395860626685932,0.09219754877029025,-0.31286504156410067,0.03367899570829536,0.11765128882014006,0.06244495597903104,0.0037734189785443165,-0.12195551324133486,-0.019162503428554335,-0.031008282393408745,0.001835350700946098,-0.15733469026625696,-0.0852354968085877,0.06689898448439109,-0.06377595683874325,0.028487206525522436,0.0971368417702928,-0.010419116013412149,0.06670282888379198,0.09330586959947507,-0.025645422881490694,0.036257779538954545,-0.11734060202705572,-0.20084905091611838,-0.7339265118957765,-0.19359600643662064,0.19846433785127096,0.0054958196993168396,0.10283943547812252,-0.13354917970017707,-0.006933879699120456,-0.00885465912197586,0.06550754230772526,-0.028053528867287507,-0.06970141743743173,-0.038555276887790854,0.13062150752530952,0.10857818721495535,-0.0315556116600913,-0.06110692833746996,-0.17140434064732638,0.35838336185161573,0.3385245577197795,-0.02728651099469165,-0.21894723671155547,-0.03751313371259538,-0.04910890326134528,-0.02684579542515976,0.01741747043923636,-0.032609237399477894
72.8189468383789,1.2422027587890625,-0.03849849361027,-0.016720395709244388,-0.12028398245087096,-0.16700389655569772,0.04912286677629321,0.2537010233720845,0.40585085873568183,0.5257734586940733,-0.02924278041259893,-0.0034575102611614436,-0.1588849408565614,0.07737691235096321,-0.11994536674314207,-0.03804490283471555,0.058235882219865406,0.04333410081504785,0.16268899631840625,0.18307790652788603,-0.5529146368496645,0.24364127920061143,-0.020691123118690705,-0.6504961010081897,-0.31088493426188646,-0.8444678866346378,-0.23504850681514874,-0.018269318025886154,-0.6171499068443289,0.43680321360323926,0.3641229293195426,0.33132348637897074,0.08940064467043357,0.17389470032635387,0.09187880448680041,-0.30263913948972027,0.3175723537806937,0.7675578130568759,0.38559451169209114,-0.5058655790129155,-1.3152474472038707,-0.3746880789646337,-0.43287712111457033,0.14649072622622186,-0.07903873672457741,1.1141222214755058,-0.47592718458435557,0.4562095971024656,-0.54585409525226,-0.8396550123739971,-0.10902172516063857,0.6409161254829424,0.712075820696893,-0.37333157408505596,-0.4431306912803377,0.021149229321360374,0.005928263721613303,0.16757103597617812,0.07153447610155343,-0.09917836329299756,-0.1541495339348051,-0.009309181832757396,0.03700707102817238,-0.08220519023438934,0.06542798349141754,0.03871194801003799,0.0278209975081654,-0.06667257701831786,0.0016073420386715559,-0.10942350510486559,0.04543369626283475,-0.052659438954881135,-0.005180910040402351,0.00483801064278753,-0.02832520781675357,-0.15529175177811153,0.2160402665389438,1.1788922947286071,0.04212904777017144,-0.1744160452648058,-0.01893393105789512,-0.08238406168871165,-0.0760454821428851,-0.37162699548633404,-0.10207317870007263,0.09531931536337125,-0.2541674308414863,-0.007913619015598578,-0.09895539749313532,-0.014847582409865084,0.13677077335365556,0.007946509250692617,-0.17880188567466393,-0.27279652816069944,-0.03390150167011002,0.28938881407230627,-0.04278011475775616,-0.01254757464601837,-0.016561415423531862,0.010636712296474948,0.10457901443445665,0.09418642714885732
74.06114959716797,1.2732009887695312,0.09879429008074206,0.19020703170608083,0.10983480980275492,-0.0328776331741831,-0.019534759597998535,0.48025209319298134,0.12467498519633927,-0.6105465947703834,0.2914538107703831,-0.07269566765252652,-0.059748790059049456,-0.15126331898463427,0.019967970980646847,0.08096952622107387,0.16740714836790707,-0.02600491678552283,-0.21391410707504369,-0.27979742696310755,0.1179252704714077,0.2515271824009519,0.0679776642371511,0.4428433458550707,0.1679236386003247,-0.2154532934725114,0.3497983041627548,0.41169290255085306,0.07693995770061873,-0.30313085973266574,-0.23072937045968334,0.0871770878251649,0.3595760352125392,-0.42780362592995863,-0.47638033104389277,0.2831171463644589,-0.3617037096984549,0.5943978423005405,0.5927967201619038,0.37106203625127676,0.6038006988309832,-0.4213874605541072,-0.8381184400233469,-0.10378309082708065,-0.19260900097845207,-0.760532506266881,0.19064375004493755,0.38230128750250614,0.21802686362691276,0.6804497701231901,0.8103365529824716,0.5084011343880501,0.09297355668068576,-0.021750428272587063,-0.3110984362395856,-0.0860132140572952,-0.09856195666131734,-0.16488883139003616,-0.020393602048879106,-0.027660112054630318,-0.2660201391732896,0.09157990976691191,0.07084874223467569,-0.04548433657119905,0.049717891599753684,-0.03918141166087679,0.0038227407987211273,-0.0361957762719924,-0.005623091419438423,-0.012672785314841926,-0.042462119309789936,-0.08817746048312947,0.05553262522017136,0.08041865362357879,0.043907122193231396,0.08518536013494825,-0.3395846405921652,-1.037350300782719,-0.2720408606778022,0.05488714871587741,0.0427773734218878,-0.046789151165498394,-0.03036088242108542,-0.08662437564889368,-0.05794044623460217,-0.06301031405681003,-0.05987137696372041,-0.14856276475013744,-0.17247576738565729,-0.012188427077356463,0.022312505197846954,-0.14033882120209865,-0.3085340201860379,0.09387605371180581,-0.12825546410299082,-0.19666698418241885,0.07388233439408988,-0.031251558267446466,-0.07070332287750838,-0.34005659727315607,0.14263346168236415,0.04237530140740671
75.3343505859375,1.2630996704101562,0.03992409806786738,0.015230367669824357,-0.01292542102347105,0.006459879008493217,0.16365183737670824,-0.08168120665493755,-0.2526662073496925,-0.09673919519560191,0.19399625698788775,-0.005311319227083998,0.09612492758553391,0.29102800029621445,-0.0075551879129913966,0.022445554794402793,0.23172202238868156,0.42422384572829896,0.1708423917089103,-0.014946673271451702,-0.15392960073377715,-0.5479161873727387,-0.13295506734832074,-0.4670265918933545,-0.26369326141800925,0.24715150354590648,0.20278596238600965,0.2681816058175128,-0.051697861448228695,-0.5151330370400713,0.3800138270832097,0.02637128625519501,-0.2099087791608117,-0.10890089670981429,0.16763701883950802,-0.04597721273960931,0.5472078499718356,0.17614769868097419,0.20977726756740583,-0.7044015420900243,-0.14019033060812638,-0.4675873052243339,-0.31316791911194397,0.24119646998755256,0.1821436151719493,-0.46411430948037086,0.6683669163839618,0.07238497624301936,-0.045094057727978726,-0.1719969208559595,0.5663522284690551,-0.32901687812894187,0.7042926044159556,-0.2673000651013269,-0.11701122439525505,1.0107881787665405,0.03920733882633099,-0.0873012864991442,-0.05968824332888104,-0.05017099381963764,0.09917977105922267,0.15028369449786733,0.011991023626279504,0.050117542801617926,0.17207194272429924,0.11502599594235054,-0.03145664727594007,0.06768328933655716,0.032099405915065285,-0.00013213045245945862,0.007656215834100379,-0.11296673521137296,0.014468585683310185,0.0037893472315398066,-0.10203637461712334,0.31865954709918387,0.7166265453625024,-0.6149255942349665,0.3207252499807657,-0.1505348785084144,-0.22401088991904788,0.06298924966425898,-0.028113411723804237,-0.12383053523483324,0.02884966853023431,-0.0021217187783771963,2.392161118009389e-05,0.006068329893085821,0.05248535038129008,-0.10123154325048563,-0.720405744229907,0.12757587555331984,-0.08278365615929316,0.027342111196740515,0.10130946755907227,-0.08270933099983503,0.11253424293873435,0.0034123961829408207,-0.08491534617298246,0.0006511020018604551,-0.07526761879377512,0.03860850097556694
76.59745025634766,1.28289794921875,0.04706681203043041,0.05503236010870539,-0.1600583965422473,-0.27514096301308283,0.012410857297953598,0.4578019364181347,-0.17048277129698347,-0.41266085312634293,0.37510555434629494,0.018964440223219893,-0.09576861988682367,0.029845858087503098,-0.019444985135622934,0.0019244239916175014,-0.06836354487911307,-0.037792329652874296,0.014707172344541872,-0.3305911570682345,0.9426963730920247,0.06243458101064979,-0.08372783552950358,0.0982712423795577,0.35716201623077687,0.03967880033479032,0.1518339472530909,0.015687150991133787,-0.06575738397496025,0.1544940651258263,-0.11995874148957897,-0.4477908335922579,0.07814083832250422,0.20582504474971444,-0.28192033412681455,-0.3204691414058228,0.015732639163736253,0.4245389033859068,-0.1539728992806628,0.35774935777926287,-0.6459830889328553,-0.17265872357719456,0.017498546335656423,-0.30788946799527184,0.3413782367748459,-0.5713912404328296,0.688092769768396,0.08167381672481147,0.00633753627572381,0.05382276212442279,0.011820975192768049,0.6635218383157566,0.14390042054197533,-0.05098888326152359,-0.03842359506388885,-0.13633962507650582,-0.012428472041106758,0.11044021719969292,0.05713025234514891,-0.0422325285236268,-0.02607946886324626,0.057312190991415476,0.07753249878012863,-0.03822078558215122,0.06320943119239858,0.016225570261451848,0.003665438171355423,0.12210835576136886,0.07321871174079068,0.0027747686072737664,-0.043373903787005584,0.043459521525296974,0.042003522700093145,-0.05175399301911242,-0.13016726559955177,0.7835175732806621,0.7953975872651016,0.15434407233706146,0.07740628084459163,0.029286802828181274,-0.043658388004419624,-0.0033669461975736723,0.12554349873154558,-0.03220850667174373,-0.03265297305845163,0.033262836720586136,-0.10927815708860783,-0.18008864940450417,-0.009551004064369706,-0.0078011987611552105,-0.11284896962087675,0.33032790281669233,0.059597236687044856,0.05330539363640078,0.00880507417152511,-0.0721393280687475,-0.031534634054844315,0.011311913424300542,-0.023128110009517776,-0.0512111041118502,-0.03471839419028691,0.12383058079661453
77.8803482055664,1.2826995849609375,-0.02279635588774124,-0.05487157203844416,-0.026919831667201077,0.037208028785045394,0.031735894495521444,0.14139932502807484,0.012177269229620211,0.10372259226998563,0.389126512733039,0.03613358863120025,0.18808689615279806,-0.006944424094167873,-0.01633927452642346,-0.04479129617743256,-0.021677965832482198,0.05989670606435032,0.00790830604426597,-0.026540770806174327,0.014898460145814984,-0.17648071893381642,-0.024644169023957226,0.1397809160784628,-0.17007093961486439,0.2202703539748092,0.04902482097579937,0.2144133414078856,0.42260954228180564,0.2542765642654208,0.48526411138109954,-0.011087102569492524,0.22111461285189205,0.5901558644605519,0.187211894890896,0.17646890847028557,0.007800539984320745,-0.08993932286989777,0.2658428185816794,-0.422034795916948,0.7458261141201178,0.1769425601029393,-0.13750793032222677,-0.15893686452898625,-0.4545543344805453,0.7869703316378998,0.15703085925287877,0.9903145698198886,1.092627204527982,0.5767066461507367,0.15662491736130696,-0.3234549288251553,-0.1557248401357798,0.43330602403611007,-0.07347101329262455,0.24509266653608877,0.04122127125581195,0.08746553784931864,-0.030202019555770638,0.057888642705595864,0.03074017948140968,-0.008229956748244008,-0.10043808693250557,-0.1517748517169974,-0.02037759943175342,0.11506345217607707,-0.08540944281214896,0.016834870736282252,-0.01556877985855383,-0.018607935773513037,-0.0651679679652316,0.08522717895742583,-0.0056833252124245965,-0.06819790225766988,0.12547909657019693,-0.004017616196487939,-0.4970705130122345,-0.9200992316302615,-0.07547055168473585,0.05836080525852835,0.03862003345847223,-0.0590243314288304,-0.0013928007533421704,-0.07829817105205719,-0.11893578053375621,0.06789969734220104,-0.015018179174562914,-0.06076844104897381,-0.008859375964949907,-0.046283686220204144,-0.05942124922267875,0.1612195021424267,0.07047407936840253,0.45060025446314145,0.16511698430991537,-0.04025937197642554,0.020883014685869894,-0.11284437780490433,0.03122628236050561,0.0559695639312093,-0.08115940435052826,0.00986571928619961
79.16304779052734,1.5336990356445312,0.011036520401006633,0.08450006552272417,0.00825005669606827,-0.12160374819771014,0.026809860715441565,-0.4270981173738276,-0.036422386029321206,0.06529285624755037,-0.029452408900995763,0.03629681175469096,0.1794058515556723,-0.07150489327189193,-0.2062726738334328,0.07407237151690878,0.1818323813791322,-0.23149895531272788,-0.16551398428564987,0.14121687997835777,0.17654901110850477,0.19705150732885035,0.015645573177053198,0.31301070198823217,0.212449531467611,-0.1305553646987468,-0.16187199380278636,-0.167576770658932,0.3437689429673051,0.1687641900262658,0.14666229346666948,-0.31656528075311136,0.43588427336026353,0.10869998648278749,-0.12395401353204798,0.509998950586486,-0.1736324205709464,0.2676456343709242,-0.2605507571479165,-0.08506614294251519,-0.14041947161822477,0.3008164739345173,-0.36721075414541765,-0.8447689859576514,0.5701454830616042,0.18285454306195378,0.3415606562373299,0.3720577081361629,0.2655968936575415,0.18909820997544874,0.005144542187560406,-0.1253440840626638,-0.08110278487789198,-0.09261486303970172,-0.03807772002777618,-0.06696904773893647,-0.18272476445989655,0.11238516377901456,0.0020049760545494226,0.27975778144300467,-0.008673861223002942,-0.18526443596658165,-0.09943006127553033,-0.025393968048279134,0.003927747149566563,-0.007102214633219028,0.12094960964741068,-0.018269292031525098,-0.059790781570002595,0.026441344626449703,-0.05695842196933232,-0.12589642052816047,0.05222496618692486,0.09006544295179983,0.02432063788689813,0.011381747317625777,0.9252640298397069,0.17956992832007204,-0.35108731017949973,0.1153407022585263,-0.06481239091521293,-0.08235649858249008,0.1278241125280879,0.08921693205184683,0.10070837500634669,0.025896877148319217,-0.08793236919074654,0.02315680904113869,0.05512528126459551,0.008884042694219312,-0.0740490963593458,0.14172857284843668,0.10003411921130041,0.07241915735225683,0.058765379017394204,0.022827032262579785,-0.06424096653037092,0.13331168617550157,0.05303631368415369,0.046132270892314954,-0.04162624793026929,-0.08277571180482117
80.69674682617188,1.353302001953125,-0.22388738720314919,-0.005083009765603996,0.14492845327403386,-0.06995271299414926,0.012136815189043332,-0.08766487006998598,0.18561294704037956,-0.012834684928767196,-0.06872099728567004,-0.008794278623367088,0.052024543711983555,-0.11925284837889757,0.05297643453048908,0.02755162969249668,0.09268627526081794,-0.03198556724182959,0.07393126070216983,0.023105421200876483,0.058454406160880885,-0.038985922136367306,-0.16564561669782207,-0.007848789649763727,0.005542538608992396,0.09121515052757731,-0.1048551981422168,-0.028525268907234388,0.06918742075356552,-0.09625107233049263,0.009680995451801431,-0.024112904263106437,0.0644887706100236,-0.5250579258217513,0.04423075934638503,-0.014477596798314587,0.019179595169178165,0.08766531960351769,-0.5279763402698405,-0.24571047907960056,-0.36806459164354044,-0.15685219339417072,-0.12631032740836928,0.07323425123533653,-0.5734045198173997,0.09597023547933525,0.013060652937089353,0.2599177134803664,-0.02387311039677678,0.25916792789294707,0.08487180043473956,0.20109676907406532,-0.007594724006547277,0.044105949896598474,0.098378268264696,0.048949802451738855,0.015065293218583431,0.07665163100025764,0.004898387070553609,-0.11027317760045358,-0.01724542651649273,0.011352492168650544,-0.028532805553370694,0.06500161667898248,0.06520803953504584,-0.046607034950793186,0.370352827955604,0.010454322825355161,-0.21009306572503852,-0.34853754524446345,-0.04751868080583527,-0.0679959621377393,-0.16804648110238443,0.03357768900536628,0.0011199571506335748,-0.07885018323644123,0.11341390325149696,-0.06851822320214739,0.050584515149180914,0.05655598968106189,0.07334425423052979,0.2640200804901658,0.5101916629142875,-0.512485162234498,-0.02013425091909949,-0.11076899732001713,-0.14891795390253434,0.15319258417489268,0.024920821643969252,0.008573109088863431,-0.07023018883276552,-0.06634693502558954,-0.03769851854662387,-0.008088432734421603,0.02001680596380137,-0.036705009141034535,0.033252363882600305,-0.22615655699570145,-1.3677019747312822,0.016265874142729495,0.07478820579381572,-0.3671245283620898
84.69595336914062,1.3029937744140625,-0.21589618933070304,0.13384248629417567,0.025442612530983746,-0.31644017741922,-0.35217482509550857,0.24798279280524585,0.36379293200081597,0.022819808114304067,0.05316933067849324,0.2482805913305528,-0.0011080097389434898,-0.01432389242821492,0.032060506890728424,-0.008394512347027622,-0.09736226589979145,-0.30366743910257465,-0.25125345519963443,-0.1530370918103779,-0.28336917452498406,0.26901476582361716,-0.6789309815584263,0.2880616676574165,0.19735265414023145,-0.16788954218010524,0.22848193460430252,0.23021963641307058,0.05186486405957972,0.1257334006923437,0.48580029377284417,0.4935780112753171,-0.08093614049480818,-0.6223073938872099,-0.028624700787072452,-0.5218798667215827,0.3942100418810032,0.22125402493729154,0.7142223866725922,-0.015254728947923346,0.49059599128264586,-0.2623315100502559,1.1027716501492904,0.7431116097334014,-0.6321922067603349,0.46649706068040503,0.02006545142052217,-0.12079934502459996,0.11888891345249829,0.04572061359467892,-0.3109640207445474,0.09382732922395579,-0.46241376968138326,0.10982449608073228,0.010491971357779076,-0.1058970882596114,0.06996426557780652,-0.14657270143358164,0.14561553786643353,0.11797582417012072,0.09012662076671671,0.17335976646737433,-0.008993976154500968,0.01593866659464049,0.05678936574700873,0.14549711230497858,0.004470614685443769,-0.11139802533249564,0.0675535910033924,0.03931202267071145,-0.015384776021745282,-0.07383315877349693,-0.11975531184510406,0.10176004848204656,-0.02758174279673817,0.22261839996321914,-0.1761237997878362,-0.350482812875202,0.04452618825585003,0.043684959235458634,0.07353714118647973,-0.005187440128437797,-0.027331347342203115,-0.01152339625584445,-0.065670182041889,-0.010374012617972085,0.01831917177688304,0.08082725099072818,0.023164513172152318,0.020259484758393922,0.03693891247971417,0.103762861552929,0.0004976410864529521,-0.01577963900878132,0.08444782559726532,-0.05982020134566346,0.052660334262593984,-0.01865419206845837,-0.014166796704526976,-0.015512743275873708,-0.058955797168914734,-0.2295452256971482
85.99894714355469,1.2831039428710938,-0.3641214204861352,0.10020766392944958,-0.012222765373439588,-0.05203753814548939,-0.14150935743198859,-0.012556902675861997,-0.16249370341555078,-0.05168059778716111,0.08362860187463472,0.06337524785495713,0.09942025088260702,-0.0654343270824703,0.025967254751032336,0.41868931799835,-0.03936297860107292,0.21877358430870236,0.20161141080045095,0.3265306837585414,0.1561087187002567,-0.365857054621268,0.2613002679009199,-0.014371993761942908,0.017091909901838565,-0.3712102453906749,-0.054809720111276564,0.13521232149028617,-0.010540013475822979,-0.6553217448057485,-0.07023534162296496,0.09004169380459215,-0.1073725750133171,-0.1626415382082873,0.1860707641126793,0.1060763027268771,0.15266560847957944,0.3252434361918724,-0.03537002234276003,0.029722359511218682,0.009764590048974633,0.13751196505372792,-0.407826360805524,-0.7532289409049817,0.10137277929021829,0.0776934614265489,0.20030337414115051,-0.19995511620850234,0.06322648607911298,-0.09697305679288995,1.101277805385564,0.3069321300268282,0.22884788380198623,0.25621523859958345,0.0955849961593371,0.0146685384919869,-0.44539711408431515,-1.0888015846523675,-0.12656866214632062,-0.014015221158505018,-0.0059632765930608626,-0.1464670710426416,0.06501819427032778,-0.09139453635929395,0.0315420424745306,0.06403045835473917,-0.06649153325691352,0.013675921776453201,0.037294278495528084,0.0020583921382551634,-0.06955036978869857,0.10998194184599967,0.11482507631899472,-0.018570816022506605,-0.001476605678197962,-0.032681614726280464,0.06930995064219399,0.3329559834770681,-1.3095191465146452,-0.42548741254835576,-0.019772338615786148,0.014755928152472791,0.002405369413146681,0.039340962675096444,0.006047322159363356,0.002297693123202868,0.0048981607502770474,0.01765973176186084,0.07584914852714042,-0.019360275545639197,-0.07144996886883848,-0.10515739579840536,-0.01690851303286521,0.34589239746671185,0.5753722834049295,0.08183632739278263,-0.16138255328465675,-0.028955359268042134,-0.07038041755091701,0.10446341188241598,0.04621613357237947,-0.18527358556481782
87.28205108642578,1.2426986694335938,-0.18586295238512152,0.07512819675043053,0.05897086587527047,0.015460112046169924,0.3273407393895067,0.32290238452411024,-0.25776639924086236,0.09929349973464179,0.08397561194300822,-0.1579557598230615,-0.03079274676620543,0.3128101318896499,0.013808687069424539,0.019144595076185114,0.3584697535722938,0.20832412944443499,-0.0445771068025444,-0.13362722544116082,0.4195714791748337,0.6196426641855612,-0.023512647406445458,0.11867510019952407,0.0006613830188079605,0.03446953434167721,0.47974663950208407,0.23382735594761062,-0.08164055357793976,0.27954230581317885,-0.3145279302978584,0.3333057378356083,0.06036027968599518,-1.4251839197921174,0.7604335362816123,0.12631331400230936,0.009119884806586633,-0.8948936102527433,-0.5051391941323818,-0.08144011433297793,0.6282364251870477,0.884432978001189,1.3419316102714633,0.10005191996823674,-1.0918681006158861,0.8144074300718933,-0.03906324433972069,0.2824691552851987,0.016464912950392013,-0.4347162783187094,0.28361588279493466,0.25174932550424367,0.021303369270687843,-0.015548736857215145,0.016476260096748827,-0.09073646016349406,-0.014294041560640486,-0.07616156942882164,-0.06582555648747804,-0.004617337393833016,-0.061450874204583734,-0.008403208511264079,0.22343895523006138,0.1946655542071548,-0.06737600358237358,-0.15439823301443287,0.0006912981209543645,-0.10324160398297286,-0.2070886399360153,-0.06418983614465058,0.06282404987058028,0.021969304270150588,-0.07283220073108766,-0.08382996482432109,-0.0996787547099497,-0.10200294944685286,-0.6898880729236297,-0.12196491049532825,-0.04880343152453392,0.05123544531161383,-0.06072092929822512,0.014169751827335915,0.03393687265754985,0.06017321641943531,-0.05940891325911041,0.10638079462051125,0.07446329675350821,0.005316493808896332,-0.004720058812571265,-0.10193299201748061,0.13529907501592262,0.01908834517986098,-0.09994119290698195,-0.023349307505008583,-0.0753238842252062,0.010324833816634205,-0.01977986882886003,0.014408149823306713,0.08772085709229444,-0.23693979672818286,0.13885371793500983,-0.3472080767036146
88.52474975585938,1.2328033447265625,-0.48379210232917563,-0.03915516173840203,0.25489719969416336,0.10777124255233173,0.14732627126885947,0.04910420536925606,-0.23028111806770157,0.2816145800738219,0.024450639294940797,-0.023484443366930625,0.009017662626912887,-0.01583211632084719,0.05742204975296343,0.0022446182591733532,-0.011600922998840473,-0.06718138504852998,0.014604151426528995,0.008910586817423944,-0.0018234908799611219,-0.04343586606419815,0.040006761383153386,-0.02387381695127483,0.010994041244794053,-0.044965254419289155,-0.05668875963658287,0.19027366381882638,0.27613849074355024,0.0028813241712760534,0.053145139579446485,-0.18359453664817138,0.0415200135103422,0.3216405271604994,0.13462076449286198,-0.5595539415691263,-0.039530023464527705,0.9158568776321203,0.5593970750820044,0.6418210976463858,0.7114771816611347,0.06950773879864297,-0.353598246762187,-0.6541949688427616,-0.033843921173210466,0.20060720690191036,-0.06254443368925879,0.04416758707054838,-0.32906917315187045,-0.0884536641948471,0.48674344186766216,-0.017161486298979206,0.24838394427221316,-0.07011524110774536,0.12349907160542122,-0.16110725775364537,0.009548607238509508,-0.08304227580886829,-0.16200573885043248,0.16225234924299398,-0.13395072216857978,0.09201861386164426,-0.05421128549233236,0.07656103158949583,-0.003104177732523219,0.02289019183619515,0.11177406472870338,0.01183885401990905,0.02112478460294382,-0.054741435544369936,0.025333162554429967,-0.04138386815396742,0.08229202278832781,0.049810803100681596,0.10210253712267343,0.033998194955792115,-0.08097795379998762,0.2961057232526206,0.043671157805491315,-0.2630520737721197,0.07192137525212042,0.02018918185184761,0.015319120366992057,0.007747645017443625,-0.02908111475822287,-0.10881573676475934,0.05247954017688249,0.07549791771054308,-0.04680855984671285,-0.1080579017869874,-0.021393802787915344,0.06508185420708745,0.14592996636797617,0.11223617108333955,-0.03576480297965323,-0.5784967235923807,-0.18467344721082263,-0.13110504104053658,-0.1210326024620246,-0.04983674866531658,-0.023474332508535523,-0.008779629997337186
89.75755310058594,1.292999267578125,-0.0018677935989217312,-0.022069447820926156,0.16324621683177884,0.0533389178423896,0.01792481107317482,0.17503644777939348,0.18967762704559946,0.2826019783324234,-0.23204889090579053,0.20469565969257375,0.1766697172586317,0.016961674599454815,0.05515077023328171,0.08076466918435392,0.030948157587184694,-0.00036686656831453127,0.024698514403317468,-0.09121956033805997,-0.052394313293999316,0.18880284795492527,0.21810729172205154,0.3340424352943927,0.15213756127987274,0.07428240085409236,0.10252531105408079,-0.23119913118538898,0.030706638957387823,0.16746950466288318,-0.29130617834094047,0.002304930608687978,-0.4904773010075142,0.2149367329024356,0.3587645845243111,-1.0155438155524603,-0.2075447433690128,0.7785502145816932,0.08486706281951706,1.508224782361819,0.6224298437237883,-0.35390466709819834,-0.23109580885039177,-0.10699595708816098,-0.17171649104868675,-0.5552464558036054,1.160001817957744,-0.3777842231517014,-0.8058157024293724,0.08371121194357845,-0.020223730856436792,0.7837877612385932,-1.9924043624750267,-0.21831389740658189,-0.008715759593777642,0.02240220051253408,0.6142732632600647,0.13706732864588902,-0.32866401902419845,0.5883339870799268,0.24517542463247427,-0.04924672680015524,-0.0363254066317532,-0.01177501146246976,0.34708295961843766,-0.04690391894499585,-0.03336094033147791,-0.1032520153632789,0.022546252654645382,0.009940131943196288,0.041620835074166376,0.07463383038898083,-0.055446872863344335,-0.07896013841560029,0.15845047213071584,-0.112025555862326,-0.042779421130867946,-0.17553439182966518,0.04362198036565025,-0.8213362863833917,-0.45744517349111596,0.15454013998251445,0.1535002651822586,-0.0448248947555401,0.1327030343541381,0.04415199105988853,-0.1289598041817127,-0.10378690706822183,0.07103279914702765,0.022970419512822138,0.019502909078961753,-0.12103194794349345,0.14747737938457917,0.14485267067127175,-0.13086884342889749,-0.07332480232761601,0.2721864795906003,0.0639675418244718,-0.11278274901773659,0.11400054320383086,0.0663135646862895,0.024475395386019755
91.05055236816406,1.2930984497070312,0.02360805986724477,-0.09635452406192337,-0.06262149133317471,-0.11088812751009391,0.07400890378025654,0.0724189314466108,0.0705700797525371,-0.010841247134675422,0.04755771434760735,-0.12735799739469245,-0.12840313883022997,0.2827686324489016,0.20878414342553814,0.0339183236412644,-0.19856763546493392,-0.06544245340570383,0.13936494838810667,-0.08682471447486183,-0.16037908813875812,0.09228814147366213,0.2228523385424796,-0.18151858906576174,0.048275108478155124,-0.11846097238896978,0.12568410525152218,0.33480752329160135,0.07649895369544502,0.3184410543957438,0.4229707635736878,0.39363868118997125,0.4267552203687558,0.6050532094954552,-0.0708700237607368,-0.13794312743713702,0.5785583508243038,-0.06018272009170959,0.2502143008821975,0.28313025696343175,-0.205110239830099,0.7960063595359257,-1.009777033574733,-0.12052397940368625,0.5758529786785469,0.6832628769309197,-0.5201290254418537,-0.7809730420280734,-0.3575681733025228,0.11447838094119514,-0.41525283938091073,-0.5950748371808349,0.0855250973184345,-0.020108672354780414,0.008260270534636157,-0.10603148876173847,-0.002070419664788964,0.05272382550657211,0.07442076591223601,0.10374057730171238,-0.0442111190806892,-0.012873474351025756,0.06519317051223404,-0.03830473510118044,0.049126744744567734,0.07217771974745152,-0.026222723879166455,0.0219304682430132,-0.024252207388195255,0.06506882656120694,0.05263027441215046,-0.010033749250148584,-0.07193012936057322,-0.12232172700110006,-0.010960359552734588,-0.0908976367471914,-0.10198528987404887,-1.066915312074496,0.04666960794476923,-0.059706290134122195,0.010979846276688965,0.005531775824545585,-0.021176391220332807,-0.06430372254165398,-0.009247672194659773,0.05768820029273554,-0.07007719101100825,-0.27085239760200386,-0.1024405247250623,-0.08994379220110296,-0.08029633344711791,0.009416602365220728,-0.1541782735274904,0.07159330062912686,0.09490882570092429,0.07461348270931653,-0.059188483015623385,-0.028053065291964413,-0.06752688427227808,-0.041768881160425354,0.060064315458126266,-0.07253165427336693
92.3436508178711,1.2826995849609375,0.07444299243225944,0.23829157181314717,0.3923315757609154,0.33537747268725604,-0.142559517378158,0.012803886662551209,-0.08162382297080335,0.1138269484749724,-0.2657629249933082,-0.06579334579248648,-0.04847157421375145,0.061134502158346454,0.2306284073873433,0.0035081618559292087,0.062015401513268884,0.0005492398851323917,0.033272215645108134,-0.02387412174385984,-0.0831590831781232,0.07418509231755972,0.3391111499173505,0.16882662359738365,0.04071634514300574,0.238871171677217,0.00804030650798788,0.2251518670884206,0.027237210960201957,-0.20301301917796025,-0.0327107948703546,-0.49382245754392246,-0.35226030530659974,-0.22841421366120987,0.11686625182695147,0.36261170858011305,0.06788034149092725,0.026650072530692417,0.10460934647055897,-0.36013345126887314,-0.049960487520021496,-0.07861441280817999,-0.932885976195595,0.32512069413482064,0.07553991442502872,0.3000490369177546,-0.4030075817003072,-0.5359276860598705,0.08666495795559322,0.44117736876673314,-0.0662876026596379,-0.058791765197951415,-0.015470112441758055,0.21046851095526686,0.02853970662385179,-0.05805962227306755,0.005874027157580758,-0.02747569181863819,-0.011114385693489336,0.09707367924028597,0.07132505927229173,0.06687285648537515,0.18700396941404543,-0.06879957628705366,-0.02620585709406365,-0.07726658538544033,-0.15762568978358826,-0.11986076095705277,-0.005065793983536071,-0.10942713224952764,0.019651889657877286,0.1634365324111093,-0.043905386721769676,0.08555042189670273,0.10721297859785446,0.1425637383479561,-0.17781491155118204,-1.0934051236523086,-0.8791814535947411,-0.12598872390522725,0.009702622088551712,-0.03989802634229699,-0.17954377619165335,-0.06805683468633911,-0.023584773532867226,-0.05919056035692791,0.04092143274793801,0.1282581539797498,-0.03622017188548223,-0.05041079791760844,0.00018575193740525894,0.048448450751323695,-0.00976540565098887,0.05161715414330649,0.47491074597756233,0.056209242347172825,0.03134654735286653,-0.020632898542713204,0.024695148051337726,0.07356768111964562,0.19702022238954334,0.10131273691380169
93.62635040283203,1.283203125,-0.04103273712858849,0.12043302200101065,0.09243310400280126,0.18188336971731792,-0.08731622170534106,0.0857316603544572,-0.15638750277420066,0.0547221602608669,-0.18330862615002974,0.06967134787147303,-0.0014712909499862824,-0.5926791687052986,-0.159744401056209,0.07719061298397155,-0.14926549208786505,0.03773052840277563,-0.18540226510765725,-0.2174257212286205,0.22955486871433783,-0.11482607326903607,1.0385548781960603,-0.05557079420513129,-0.03621770624231406,-0.04525069030357704,0.14192849264911808,0.3346314534916311,-0.09556790985785844,-0.009796893318528729,0.018831076311156603,-0.19594603574676805,-0.08721968947523845,-0.0931849832412713,-0.3192925546678386,-0.9803188293877076,-0.8011710620478102,-1.0985837544905213,0.07700961800568736,-0.6822539808653832,0.6318653562356606,0.48219476983434983,0.9283314133467364,0.8152228436929575,0.8090421291662203,1.0342663143213058,0.29190253173781217,0.5760086151029082,0.44140876080622526,0.6232779305684518,-0.18868039730722677,-0.055429839307698535,0.08532569236870133,0.06986619657408176,0.09599103026357461,0.05129599224357787,0.015967612445316404,0.001128455139421951,-0.07312061529485313,0.0007479897049975015,0.054604456698061944,0.03419702980099479,0.06635687897604418,0.07438634679592665,-0.013315462539392368,-0.051028712393099696,-0.1142090616974695,0.1139507993498732,-0.024499712091004766,0.1747566856427386,0.045337811093713175,0.030415993933563947,-0.012445082023495561,0.014032729642255798,-0.03671574764426784,0.2569703646545414,0.3678796029962408,-0.3711217708834906,0.010655098675352288,0.0541953152840485,-0.0803679034579132,0.04757621439223992,0.123959895596008,-0.03252682108968146,0.005560950896870443,-0.02306561254733562,0.13608223905404523,0.1429221121955515,-0.16663094475495577,-0.11014920691220537,-0.05752353636727715,0.052706814034125915,-0.06826607940933861,0.05410059417878863,0.06153641514301361,0.020411231523430724,0.019287607687009635,0.14452853576873298,-0.00769502255571082,0.1260253116634784,0.2816292846121596,0.22308542577887286
94.90955352783203,1.2728958129882812,0.3672972881956393,0.07776900629126286,0.09492402379028753,-0.1897316747654906,-0.047456641893191716,0.2608060927941855,-0.18513615483313473,-0.2596506602091999,-0.02650883469000695,-0.09471780319980694,0.013238941922641294,-0.0850363827383065,0.04944745485386234,-0.07598445956004589,0.03923407906909884,-0.1299739306021527,-0.08882055361557865,0.16075987862029373,-0.013836397827092117,-0.0781316976209718,-0.28427314114529734,-0.08387321113560466,0.15761296361531058,-0.19714246703503222,-0.1112321292820826,-0.11778187532128838,-0.2909853756419758,0.2758018724809104,0.036407743817186686,0.19565266764239553,1.1341326696425333,-0.18213272900496894,-0.15987200298136361,-0.9128731946287875,-0.26590384241414877,-0.22676333067758567,-0.3894653544730508,0.29683557752698203,0.08790547598195828,0.8060029499100299,-0.10283185077823105,0.49807324091089594,0.052870395144148485,-0.5349784923221648,-0.05405842362756645,-0.03799742599273395,-0.13958825624370907,0.2386113227356707,-0.03403781889969443,0.6074665862796127,0.607395657220007,-0.2197142890720097,0.021870407019451227,0.16867564726848383,-0.018598804655971826,0.04092382966576158,-0.07519650190115676,-0.1254739941665242,-0.029247422124312153,-0.06289155055764142,0.10327587637469168,-0.06630255755034734,-0.1432346552550989,0.03591323494269427,0.06629502771408675,0.05389723386287467,0.06383623088399712,0.06487532021465078,-0.06925884666564192,-0.08993365728070704,-0.0002509999389757843,-0.08311715533890565,0.02640824520755816,0.00508186189567111,-0.37837557858499093,0.6270426290970041,0.2713300684735218,0.029685951724375746,0.04784064565957934,-0.008310110272509795,0.028444321749678196,0.06417654186540128,-0.009542621068371625,-0.00266525246592792,0.02765593314217442,0.09497612621170447,0.06956031274364806,0.005107624727360791,-0.12127580663698692,0.031021602622938432,-0.014933604553842007,-0.029497178183554944,-0.060817787151684996,-0.11947125705296556,-0.052170504955582266,0.0402400632975771,0.033110901515457695,-0.06664870781731157,-0.11575496856905843,0.0139932110797487
96.18244934082031,1.4131011962890625,0.011978166534488553,-0.006628756346947488,0.011072062091143094,-0.18550666196327736,0.0049028396784066555,-0.04883383294946086,-0.07383715091843955,0.4959772940941686,0.29552776574784057,0.269634117943076,0.02261730877610718,0.11589362574082616,0.3541306689715886,0.057308396020594586,-0.10952945218256743,-0.018212863466480322,-0.04048285648859826,-0.06515154928660524,-0.03281647670134231,-0.05672597786221002,0.02008252812488009,-0.04459280196145724,0.12646005794007278,-0.08608433695598149,-0.06269945946961554,-0.36004201053572726,0.07552598599175878,-0.548261438701065,-0.05737003894213865,-0.023663411610668404,0.08160445415593304,-0.09550986580662188,0.1596862492873141,-0.05080527618220307,-0.4594218808119169,-0.057573579147087474,0.5480633852155687,0.28330388299535114,-0.3027929150879613,0.09503962476346578,-0.38332923852764444,0.00586943515558995,0.04540605614820156,1.1862427938987443,0.2189569424545281,-0.1324703704354118,0.007880195315496073,0.42940438335694936,0.3601219888575919,-0.4068554402096412,-0.2209071090730412,0.10150813396173827,0.1537703208772343,0.07079722763848867,0.04360768110749656,0.1259634197295544,0.04503814768815862,-0.07048425033201344,0.046374564266034445,-0.009937531153653475,-0.029613513928037488,0.06586084944776438,0.09770709159372443,-0.05648980881271013,-0.010954129503515538,0.09951440856985275,-0.056756576096795124,-0.09930927624737096,0.03273980931834773,0.05897222644078916,0.04367152594280936,0.039708726090908045,0.0715448050329743,-0.11600657184439259,-0.19684178212258885,-0.33471470887574073,-0.19951820384533475,-0.23427741085577783,-0.11102417231459534,0.0341994866213244,0.07476279976688292,-0.008187147847091993,-0.09287268737300682,0.04737563112074118,0.02309730383834054,-0.04658672095355427,0.10198642868965077,0.022737899202817085,-0.0034579978944381806,0.12643914104386794,-0.12435683386222204,-0.03252237493547286,-0.038188697862069756,-0.18480428739062044,-0.10659810768515314,-0.00899335384214129,-0.18648385590154615,-0.16821911981357923,0.10056193296818962,-0.29850753277458464
97.59555053710938,1.4935989379882812,-0.15381920374456312,0.020280115460667728,0.19265398208926124,0.18692767241633718,-0.8923919378688647,0.048462101840797876,0.13187071164871794,0.29321582726961704,0.28457921039058404,-1.0085344598640629,-0.01224731559671316,-0.1962556377913764,0.5785101339929265,-0.4820979543038258,-0.19466681430665678,-0.5678859899700411,1.0796293069113436,-1.1749315454295306,-0.5498002402371558,-0.6984779640916768,0.8539509436976541,0.5455899404964815,0.19568016394672055,0.8147412026085009,0.7438608226652733,-0.3484388856877827,0.023987562781987742,-0.35570734599770126,-0.16666650442360728,-0.280066711994562,-0.14531153969461696,0.8526489803768021,0.3110326788682724,-0.44114190016260363,-0.006830567735317872,-0.5588784660099625,0.23192740651903665,-0.2806078958927646,0.5702505629235411,-0.41040065916428725,-0.31419291483940076,-0.15195071024049797,-0.4575881216098092,0.05229928492264767,-1.107480801601796,0.04552914108233203,-0.6985816628986461,0.6428060202842665,-0.7034766213054615,-0.3454027917041632,0.009467963254156851,-0.7779935000101825,0.030555112700631725,-0.01772092662957709,0.09116235755557339,0.07666028834871036,0.06480683418177907,-0.1821336371192342,-0.021357628794705902,-0.0011891791873937761,-0.14099485069967363,-0.041330421026185477,-0.10940666913537006,0.06146630745453029,-0.02840538335064353,-0.05232309429046377,-0.047186340502250325,0.0894793947141381,0.07250937169825523,-0.010759562668710056,0.32391429165288543,0.5695186837640293,-0.5891868281811852,-0.25041823123742024,-0.012570922402904907,0.15330254326475926,0.03872319812820227,0.1422740611713731,-0.09973310107436452,-0.023298241916036647,-0.04734208820396439,0.025474160331888342,-0.07490082484956218,0.13968781099229735,0.019496546949443534,0.2420559000307401,-0.03923686924971621,1.4486940391693943,0.33351520801073725,0.14291104641047722,0.04661030691139105,-0.02486108957626837,-0.12848781553470723,0.010694743889474698,0.031874100923802384,0.08510131380107062,0.017137867093529977,0.06085398488341807,0.041424706451579724,-0.007895660057920438
99.08914947509766,1.2725982666015625,-0.015083271327149567,0.02515311296235444,-0.12495726817116799,-0.17442532429894475,-0.18756083801229395,-0.06466656191923564,0.00011849224925182533,-0.11307219134967328,0.11013568699548333,-0.14249752017977563,0.017801003961302846,-0.021707062425698365,-0.021987796280826644,-0.06277426478040957,-0.07486654361808004,-0.07074919662663672,-0.00030650681876575464,-0.01791714048234324,0.09965479246735241,-0.0007948494623748401,-0.15057029619384477,-0.06073443620382153,0.12569397497911589,0.07854699779493553,0.017308562571814085,0.043761904225426404,0.010738383245385572,-0.06570283734442421,-0.1607122656250453,-0.021161181239787677,0.0011661081449854914,0.00379222787119746,0.04894947297691324,0.0059533166775781205,0.03321431208528255,-0.284839559640708,0.09275506543230011,0.4170131127957573,0.26585421600272785,0.20363050065642263,0.4478216599918693,-0.4629200207048867,-0.04426480857903944,-0.7489189035202574,0.5529024451549522,0.07619434065136987,-0.08135583730173693,0.09754498748447567,0.06723460606369845,0.08627081488528393,0.1563748894602788,-0.06584194332502737,-0.01874884212825231,-0.0476911326609412,0.09461791384507562,-0.04894534620466052,-0.10435524250220163,0.06288832169233247,0.031194003201223616,0.12647935736376156,-0.05293094037314393,0.01279485324836379,-0.009946379819874045,-0.017572199212959157,-0.1305076533633503,0.0768041674886724,0.036037954050633834,-0.011315481042804953,-0.08752293990784873,-0.011991680671132147,0.026013898596066773,0.6941949169931133,0.0016489691696232461,0.06399887041654774,-0.03862900372496565,-0.10838968667846045,-0.055319505924632445,0.12369954399655138,-0.014766332591452101,-0.005201967381104544,0.0663347063929378,0.03196991516834571,-0.07057605244689227,0.06452618678323471,-0.05666105359516043,0.2519993654707555,-0.4313550452289483,0.14643352100829615,-0.09336599503358321,0.13818090126353402,0.0201859999827223,-0.07383431168810944,0.006153792827615187,0.02765800432624125,-0.02140214875975454,0.0004250110117092615,-0.010670447000553208,0.018749345963894045,-0.03784614929494035,0.0805426632518742
100.36174774169922,1.3130035400390625,0.07700624404521775,0.03829519038840137,-0.08394042809346747,0.18944818783789052,-0.5926257505980668,0.4158456228535095,0.1659249922421516,-0.028234985142310626,0.19131448359292078,-0.0019740778337501777,0.050866145865291604,-0.03405347235248728,0.014962857300503153,0.06076136710386237,0.027151615246174442,-0.002190475087671645,0.00933317962315617,-0.05818604099968851,0.028522210192406604,0.09069639363625173,0.03367011035709824,-0.13799816958407454,0.078915600302248,0.02146639369933093,0.09886133761864364,0.11743418258384458,-0.04438582465614255,-0.010044739421747356,0.05064620038585395,0.2303445540609566,0.37829811719869794,0.5141241213518487,0.7686241082796864,-0.14348567940681545,-0.7085915154683292,0.33483887187328565,0.44094872804264074,-0.3825777986845645,0.08584418126763915,-0.36491044771590264,-0.6560108768885251,-1.007304603167811,-0.7975514613621562,0.5916523560373561,0.8272276381376992,-0.30877371100923506,-0.6882712809529027,0.07033449670992435,-0.18400176292091336,0.167399227829523,-0.09081369999526165,0.19293921844619558,-0.2703483205270239,-0.012996725577373911,-0.06645940708288378,-0.2359622500498832,0.10116890039339674,0.048903376242518025,0.011655262183274541,0.05020198239305144,0.010527461919036942,0.017039714955562477,-0.021327644392528905,0.059042547677984156,-0.049018667275852384,0.08035619694986611,0.049391698522320386,0.15835276766477957,0.06326785853456401,-0.03419732781566919,0.00176413669676026,0.0244821035465502,-0.14906720464969708,0.18329389533094767,-0.3434044795632254,-0.02914811405820436,-0.3218489507042718,-0.0015128088275260382,-0.057415553940576895,-0.013886272945273087,0.020228380548623408,-0.13152144349787104,-0.15854227558939146,-0.02709283395592016,-0.007665232259155601,0.028094344063944284,-0.020594750573494438,-0.016314559677834597,0.00482569942276951,0.04042402802396359,-0.057893628680465006,0.06566613555227795,0.02978738513251994,-0.1048987588099976,-0.06228353408582316,0.007898082123050593,0.004687351058471402,0.04010192088418799,-0.05525966178903182,0.009811079087436305
101.67475128173828,1.2128982543945312,0.01941760727731862,0.020089163794062354,-0.30010019407794125,-0.004109829722891437,-0.06237107240462649,-0.19906833094537624,-0.15798428537792897,-0.0017532161217165207,-0.030264909883051153,0.09559497475472652,-0.25574104153043226,-0.29236074769195447,-0.506645309546107,0.007430674771813311,0.010371497856319765,-0.16142604959163012,0.026410453374098593,-0.08875467821135018,-0.06289262163743482,-0.30723172658011627,-0.1685012343432069,-0.23536117096736753,-0.4988189304005053,0.025583974232019496,0.12899155494816472,0.18392203922412698,-0.0335613184632962,0.002451949508877907,0.5907227880286229,0.5085262618561692,-0.26134079440624436,0.22309121481271293,0.3840593583515556,-0.03740422567676402,0.294212662057968,0.35559652987788903,0.5232087507066244,0.09939452966904472,-0.8474518174067116,0.013689474463253179,0.4140540099377926,-0.26774762472408487,0.7150213489639136,0.2847725559092707,-0.6318433391375694,0.05207250362017671,-0.39590376449093784,0.16482625753649574,-0.05878967804745513,-0.056728378719204324,-0.14273822237983877,0.3924209411963946,-0.5718049508895642,0.6331799131844806,-0.02489376964267747,0.08839084632030911,-0.052341464314766266,0.013743973185420848,-0.026876230892959693,0.14627831566271665,-0.03821325847278667,-0.07875051981680627,0.030035861540425337,0.07617070746999886,0.05520305244655641,-0.020229472317094092,0.004550495920422726,-0.13485778072275229,0.03450030397623248,-0.09210220415120232,-0.04347094457691032,0.11465023930411666,0.021499344276102967,-0.0630804996128903,0.03341612374270899,0.009215678389810439,0.5713177163003516,0.23560144836208843,0.052403922985656236,-0.07300026002753685,0.03986815080267525,0.0004107268175698314,0.12939377908966565,0.07587092478514336,-0.17574399437980198,-0.0355832859295876,-0.02899571203238213,-0.13342848961683967,0.2451434586185197,0.01600244765776846,-0.015115185596954493,-0.43170754871741,-0.05341658083468134,0.05349443238257299,-0.2411963925448381,-0.007210855808857402,0.08543597658163374,-0.16869980587627884,-0.013009668677039739,-0.1208942864400074
102.88764953613281,1.2831039428710938,-0.11231959269089864,-0.026272826474757968,-0.18265159194701147,-0.11136232379763743,0.000973052045672898,0.20487817688581167,-0.07228028031868092,0.4605646053457006,0.083101862705431,0.22512191323209335,0.048743967320459256,-0.12502737402838932,-0.069132411603426,-0.05945297562972657,0.03736385840131157,-0.04554046357846516,-0.021356876593601238,0.04987488028002488,-0.10084848628623014,-0.025480741300897492,-0.10309284128562693,0.19295509341597478,0.153333522540482,0.026323953888582104,0.6406685167718151,0.3477652427291553,0.11656501063328994,-0.05716568454245803,0.2255923323062538,0.15960383343467205,0.5671407234519001,0.02153121782717705,-0.35816938845828294,-0.618453894299213,0.2612880885726978,0.13623222442764713,0.5877131205198125,-0.04899111187209697,0.6630325583591702,-0.042745791082086426,-0.2501529595303169,0.9443915847589258,0.29705873858006193,0.3803910675347887,0.3666293491396785,0.14800020960278545,-1.3170488803966953,0.655944435220926,0.720792215442582,-1.1112619129102936,0.027372601336484614,-0.442862971281431,-0.16938168785613925,-0.5622399332461361,-0.04301720307298938,-0.04972134640230917,-0.0015389324277532332,-0.010539397830648653,-0.07115523438146162,0.03795930752596535,-0.05137162441770757,0.07979664120279449,0.03776400027656092,0.025907140457779653,0.17838761899348396,0.05255731271572306,-0.1254907608962113,-0.004690380798705984,-0.05329667437940552,0.02229817688115576,-0.10988940199074745,0.0019150000320608332,-0.10515197025165816,0.14624945135034323,0.40545002371500694,1.9622164380095293,0.23759623890134585,-0.24148231881510515,-0.04272383579340644,0.34369864718807364,0.050391979135950254,-0.09264670975246547,0.09080356664526223,-0.1692852048598027,-0.11339964101850218,0.20120833571791752,0.01849523977889992,0.02962139805211357,-0.10770145344087403,0.12463010151420308,-0.09356543124574704,-0.42181871676089083,-0.08409466422329233,-0.031980988518941114,0.04123030706010887,0.18721503857792396,0.016806834616328245,-0.20600018103942674,0.006501367535760069,0.07868571170907232
104.1707534790039,1.2527999877929688,-0.06120143170997851,-0.026600604016939575,-0.054982279109748206,0.15088392547004167,-0.14555323313222435,-0.3552221976195598,0.031915654163795534,0.3941396604716805,0.10502697281221798,0.0849015306624041,-0.020785035083571646,-0.004574822020878888,-0.0761248414022041,-0.10631907638551406,-0.06516060981850229,0.489366136905666,0.15885208908570073,0.5342146395429439,-0.489555370907582,0.2774214365085584,0.19684289344017059,-0.013479556246048243,0.09227754855673063,0.005988530914053769,-0.037174049712466455,-0.0419492489750998,0.11609942656369046,-0.607519491896757,-0.4151639502425936,-0.11628294670652956,-0.10746542096472042,0.3122487948259505,-0.23547318789760974,0.8973973864880991,-0.12211980014565132,0.2677097544150877,-0.6203060955008988,0.08552230105322522,-0.08152225533496785,0.9935656785378754,0.6650738705904549,-0.7424303947457093,-0.36867310875836745,0.08773212369257165,0.5058389292662367,0.4636012348318582,-0.11067277427409689,-0.3616560467710301,0.34519986340396397,0.2682680128288405,-0.03895179607215031,-0.022518579147997535,-0.044136813838072976,0.10702792412548386,0.010174920510817451,-0.09230733765006324,0.07229886622968681,0.09618613982086309,0.007423714671072626,0.008740197467757472,-0.08370748314028276,0.038544438105948875,-0.04950178041693852,-0.1060363348730195,-0.02443530309581339,-0.0011787587312120824,-0.026772084877147974,0.027296978818165615,-0.022923533712886985,-0.014621828924684827,0.010532290978376505,-0.10450346484724081,0.044214454595073505,0.7006152825152494,0.1964225532944026,-0.15289957669125281,-0.1314469373120302,-0.029435385191901843,0.022208353452447677,-0.0019209256401079722,-0.06948969644318734,-0.042335608451605805,-0.007166379216489532,-0.021991459922130318,0.05507880165959721,0.13982549181368537,0.017477692915066047,0.012646718509277677,-0.018663930049478254,-0.009621800972057462,-0.12477715977571374,-0.32301177232662837,-0.21084003660215062,-0.05475597446419037,-0.15212246390693598,-0.27715037208355453,0.027044732393565193,-0.022609217465951067,0.047971649813443124,-0.03983480927669456
105.42355346679688,1.2425994873046875,-0.04848119954092449,0.11771919023580413,0.055070180099923136,-0.26879512867433014,-0.17057700650328134,0.06319902556388995,0.29037007117482555,-0.020204977348908887,0.0012923114394932569,0.09419818305245711,0.03468731578059409,-0.016842418616553036,0.06818543920397635,0.07765591871552517,-0.11128657576421366,0.008667463810985465,0.025937029189362665,-0.03089810800583208,-0.026974772994525074,-0.060127631557828354,-0.13237554225694093,-0.5466616917416945,-0.06743494102707712,0.08970774670011136,-0.2802861870403972,0.1661502627571536,0.040854329999423844,0.019046812560782563,0.029392673917091407,0.08945680947136671,0.04155124448733516,-0.44310322091722343,-0.28491367155810376,-0.6144175527325265,-0.19825072432350377,-0.3350123917573834,-0.22334710381162148,0.25802506355733995,-0.6169130182649829,-0.005299393932148122,0.11526270577008961,0.3957989498798274,-0.14183268190250992,-0.16121117517563058,-0.8421104278922023,0.16738259033021402,-0.9473279772348596,0.07899358974416232,-0.6076018958163256,-0.3005802272531077,0.39438783439637287,-0.7716273256794911,-0.1567207738914358,-0.1638306377458266,-0.2836035772068083,0.07255992712104521,0.009271127826496944,0.17423730041375723,0.07110705754128983,-0.062220740005723515,-0.05693802083082695,-0.0022721662228441866,0.07497285083309209,-0.04126618537884394,-0.10387061823288864,-0.13688447657758157,0.06397657175871113,0.0015069517617112005,-0.02760130152375556,-0.03478077638787582,-0.03974129364264436,-0.043565585736861125,-0.044356757094702555,-0.013373396768380444,-0.1930542031569476,-0.31107275044559834,-0.04824222780223891,-0.29097442453532657,-0.018475097797241852,0.013380762449724288,-0.06453502019963532,0.037605001410338686,-0.007721010177290599,0.015020011635626166,-0.018966078615020743,0.0628831129180765,0.018655310824314555,-0.07112806253840198,-0.1486265331723853,0.012541168909163533,-0.004084454346037677,0.054040370131698975,-0.02601028230556096,-0.0359586115258873,-0.0013354751048548913,-0.05543760489592975,-0.07387651597383972,0.1862296033319753,0.24688912565716764,-0.006530394118070493
106.66615295410156,1.2826995849609375,-0.0054262139613513866,-0.08469078681568955,-0.05503740904054235,0.14246761006154612,-0.20033056149089695,-0.39337804955126365,0.03179799271552073,0.46728589824496386,0.014131913163226005,-0.010148779810281311,-0.18559154906439362,-0.025278196166363325,-0.06293819638474511,-0.0066232207281719385,-0.026535447069266305,0.014402718029420558,0.12653777148833342,0.3017517182025698,-0.009510938726978488,-0.06721293706333134,-0.45089815975655445,0.11635598211363359,-0.16392255396700176,0.12160024935006429,-0.08407221071197718,0.04804996389470238,-0.16887990999758612,-0.03735173818379966,-0.033354974029683855,0.4308133335206703,-0.20984608162912383,-0.09553682746802145,0.35959477085690156,-0.49944910702162254,0.05652294212108133,0.8947707597673595,0.09819204783588331,-1.1778829790044456,1.118889628911907,-0.3689204282672514,-0.5318369291131599,0.1641059559798304,-0.0810931077141302,-0.9030236423485412,0.2941873179177732,0.38924939800612834,0.11110164319219146,-1.1859772023477775,-0.1789761655719546,-0.01056834875530828,-0.1561406554889047,0.08913704862815784,-0.12299202835346564,0.08408538936579361,-0.09767856406545743,-0.3513947794738041,-0.09814048838811086,-0.10865737935478159,-0.030740984196659528,-0.05919807305359323,-0.05968632425412842,0.053937616247422326,-0.05609371434569428,0.022549205924587683,0.05842790828133063,0.020524203382853906,0.04625499225500456,-0.10198402417945535,0.055757161542608985,0.03222527396985038,0.027867931605609464,0.02875181232235069,-0.033201937874504775,0.14930647887150922,1.005954722598133,-0.1450608261010594,-0.08343633159885448,-0.06061118818089836,0.1068013224896823,-0.04175084535544015,0.09419757109294233,-0.058317851705254775,-0.027802987727184137,-0.009496861965998013,0.11340195700983928,0.031021055025491233,0.025038053026317078,-0.016567574666859264,-0.06222973848356465,-0.07736547217281978,0.0829453311171369,0.057663431675680096,-0.031897311778908276,0.03744070133394488,-0.007715768256077423,-0.03511673172946291,0.00565526050981191,-0.03078849580288024,-0.046658037675401526,-0.1137721759312018
107.9488525390625,1.2631988525390625,-0.11020120134835673,0.00418967171411489,0.077510553548033,0.20493508052801404,0.10940418847814204,0.46350458213578377,-0.1830693907176402,-0.06276295115411815,0.2282803498805089,0.41259441287159304,0.0012283744886769227,-0.06366476100853176,-0.03215088005803793,0.023737750133244872,0.02118803388533258,0.02573047457195285,0.0016988426693476995,-0.017500099874982383,-0.03878459868511363,-0.06880051965212297,0.12571753360101437,-0.04204084917796706,-0.11990421522016773,-0.1224441289013596,0.4631234636728059,-0.46062831859303066,-0.08441008596637556,0.14868772478585138,0.5272127818628726,0.20118473212114532,-0.10747991508039281,0.48267360417043226,0.3804039290606079,-0.4551533556524235,-0.6502993235905857,-0.35774579215009705,-0.4086101040921961,0.6232185594928684,-0.014581342341673187,0.06746788921105683,-1.5995978374843187,0.5784248523826486,0.0011661608013372998,0.06687196237573173,-0.0772694171220261,-0.10392201405683898,-0.8086619086511349,0.34494463786927504,-0.06923174752950952,-0.533725518368434,-0.7497406881620168,0.2438787519438916,-0.11200683466747138,0.1524520272512364,-0.04507862941236059,-0.0828069097371035,-0.0157845484697049,-0.029970016474151373,-0.0017130603688015028,0.059239642482427114,0.03565103262725359,-0.08845242539043714,-0.007689456500321234,-0.11400189862368454,0.03436351112856262,0.018437290168642307,0.05936614505798243,0.033232949066370296,-0.04188930637791567,0.14958326669211855,-0.068106965305646,-0.03747101225641271,-0.04279619771490117,0.02748164954414257,-0.14487281132388558,-0.7942407904666389,0.3616714269582923,0.005471435907106827,0.11859573753350353,-0.06992851400771626,-0.05042397901782462,0.07791099902651358,-0.022545542434376845,0.0023550550950902026,-0.043434092233037604,0.02056017182234028,-0.02855296265617218,-0.02294668992736848,0.062176023927126026,-0.13669720118275744,-0.16735733641556183,0.1981215771903719,0.11197313792259911,-0.04457835721522431,0.023907570314378533,-0.007494404145838787,-0.12159314810945013,0.026784812966140943,0.07277675245316907,0.07366961341146834
109.21205139160156,1.22259521484375,-0.0861517432890207,0.3325632973840018,0.35391032130009653,0.09754021983025947,-0.07538371579580394,-0.02275294113490855,0.1150850081608889,0.06778186468304404,-0.15041200398095683,-0.05462198917762873,0.11144014488201823,-0.010152444836750051,-0.0749453050139513,-0.04930115120259676,0.0703953671686419,-0.016769008529015656,-0.07011593877948263,0.14720874955980257,0.14850400745041237,0.28653327257370353,-0.06082928269824353,0.04568748546530445,-0.4163317513960529,-0.03119557410251313,-0.027150938459672196,0.18861861113521056,-0.04240133311001772,-0.03836749627752028,-0.06697438223544726,-0.04829550843853355,0.0842502868003911,-0.26392050342928797,-0.7560201920263456,-0.49783560119648235,-0.43517850339374553,-0.727333308355715,-1.2515664329557459,-0.17554315736822051,-0.13277046435391426,0.24983084040094447,-0.3101032488368089,-0.46535730679994336,0.5471590153791807,0.16530255289976015,0.7336487435778304,0.48866842095978386,-0.02577555263923184,0.4454214487677068,0.1702587367999024,-0.03465873003692862,-0.5769484772531316,0.2926021838124695,0.1830671944482976,0.23463049416322385,0.1220732756495275,-0.035181094885506484,-0.022418489514001883,0.07543516791887142,-0.018426812054027533,-0.09408297088107612,0.02649224546108328,0.00808652454134776,-0.03420805369651485,0.07037217976726022,0.15593022037086596,0.0452451806168723,-0.00022241138816580857,0.11710987683960918,0.006468250299308708,-0.06846045452182804,-0.034974704801465674,-0.022666097204446824,0.02020168147298076,-0.1012105126108469,-0.21033945737555376,-0.09370696273225118,0.22298401358860148,-0.04494655408725206,-0.03316879198426656,0.03843771936453483,-0.07705178452977134,-0.02956192890289366,-0.006538669707806179,0.09386062078790144,-0.010338031745675325,-0.06264373301046197,0.026308290271009914,0.046074673051725586,-0.013197224027306807,0.16352658902410022,0.023707369507309083,0.06864475470736658,0.09402711100623612,0.03895177741359498,0.021948958485828486,0.0022046658385354223,-0.0033723914514342014,-0.0017353125171952971,0.23990123338572866,0.2285655018953048
110.43464660644531,1.2729034423828125,0.0761937178713518,0.04981740239986629,-0.16137663170349387,-0.06696054210765537,-0.14823377596540824,0.17537372766540912,-0.08527940579471772,-0.20596279874074513,-0.15531848475813156,0.15276740282289453,-0.01076743656519222,-0.09182895107201659,0.0033085513791370896,-0.09778190819592594,0.02076920964644448,0.06020308810706272,-0.014476510783264193,0.12200337184552612,0.05595975748349229,0.0547437949745343,-0.004185601456334108,-0.2628186827336232,-0.013335466389574713,0.006321596239762699,-0.176025284502212,-0.015593642097632865,-0.44774887455906337,0.3663744421505135,-0.3808319650560837,-0.8125031472213784,0.5604135993509526,-0.2929622147297906,0.8297292185232868,0.3206296035058446,0.18089110653067264,-0.2012726795182634,-0.12732608974776086,0.463196904868924,-1.4382174319934067,0.5683241104088178,0.8078353493065962,0.04812426784302754,0.07721222877695666,0.16100637931377126,0.507765549053819,-0.1899322289763922,0.3702502619295881,0.17459901747025927,0.5349741075819479,0.15461534629292073,-0.057300478849748225,-0.20711653160405347,-0.025309682180618437,-0.011325140176167606,-0.043205800212525715,0.025883925612422094,0.05733892054931706,0.003236268126309074,0.06859808756186818,-0.054214557476491114,0.04968794080422843,0.026573063516092604,-0.1216572234694148,-0.031119237490425083,0.04961157020227151,0.16676215051310012,-0.12621658137123107,-0.05055919285601493,-0.13853290897802112,-0.014711372100773128,-0.017038181546414326,0.017549537049158348,0.02359458821740172,0.0551788753327997,0.27683384016492896,0.2527312069418234,0.1033497207893357,0.036195126015446895,0.08056721763587804,0.0951971311405619,-0.11425753577765929,0.04075087523840281,0.04361495667063819,-0.05444907554055664,-0.02620854253046706,0.1354042529656696,-0.05561544713043412,-0.13529243708903863,-0.0008603245781597709,0.12542215438145282,0.21085786677220794,-0.05109750201677239,0.07634877727498479,-0.033191971702902466,0.08885032325529363,-0.03144832409704362,-0.0238604629954646,0.0369481855365724,0.04753584553862236,0.08401095266865118
111.70755004882812,1.2632980346679688,0.07497951119636838,-0.3720790919904882,0.11535611567002259,0.050443220078213606,-0.001430542932948102,0.013656843974349062,-0.015137802392067298,-0.3167478763188674,0.17951599155822306,-0.011161111532230155,-0.0288821011404235,0.005373999199766194,-0.0024761545953673903,0.027962870734674954,0.047390246460434986,-0.027272730878411665,-0.01957747477584904,0.06095368495059591,0.013955324679411827,0.025653831932592852,-0.005550851896193869,-0.0785800552859601,4.132479910501363e-05,0.16354747796421523,0.32118454168021626,-0.07184276573103128,-0.14016240340186825,0.002185328063654997,0.026327540365016302,0.32526941773238954,-0.14994124165783806,-0.4545737961040859,0.2680670662873352,0.7473399475948734,0.0010129955201566565,0.10595040286127577,-0.6886182357596303,0.46716868480728346,-1.0493582049324162,-0.8806528802152925,-0.25787180205896165,-0.8507271737262657,-0.20758006948188165,0.10409538515072522,0.07208989944624522,-0.29592984678016865,-0.06216922943371675,-0.4542824936557211,-1.167337200861762,0.3080627261047668,-0.07103414288395422,-0.9319660992542317,-0.04187609527842903,-0.21162904276064898,-0.007640525405552328,-0.07775257480757118,0.01503523627660832,-0.010040074395490265,-0.024878974250872595,-0.02037499949804414,0.05856651462346574,-0.0734558604214423,-0.09179363817971715,-0.046495894228323655,-0.010592020898853562,-0.04014889626891577,0.15583957508494858,-0.05791870269647651,-0.04621556943367711,-0.10643820726055758,-0.028804363532382055,0.013165356101688652,-0.044641607456936815,-0.20724570944958387,-0.40468450611133955,-0.16122869369701576,0.06403937356114378,-0.02719890429874532,-0.10624667182665827,-0.015932674233198926,-0.05802677104950718,-0.10764974307695,-0.04309403836536661,0.03877913853580084,-0.10346730081789644,0.01766565255286283,-0.06357245224685977,0.05998761868127712,-0.012867895269633934,-0.21207238664424385,0.15683161458243192,-0.0174861066927701,0.07342490027240807,0.03850191951207521,0.008691906009841155,0.018757542478598635,-0.047231864328120064,0.00029158001943770107,-0.27748252846916316,-0.046859237134361645
112.9708480834961,1.3530044555664062,0.10118915564810758,-0.15629604337700276,-0.25965884113418086,-0.07056599305610128,0.05657063811822356,-0.040621887053386166,0.04115635704037882,-0.046300993505204516,0.14915623636901587,-0.21881536478199204,0.012233840751961851,-0.07220634851671216,0.10781150868096244,-0.08500205316256,-0.016587847884790303,0.0013743971000211852,-0.09108989756583089,0.022237497904539917,-0.03220037516464129,-0.13038436747486315,0.032250102257446275,0.10762033826820415,-0.2389880009838441,-0.08725555318282788,-0.03108147450529937,0.14660995166904933,0.17560148389276536,-0.46781628526686014,0.026017155037720653,0.09494839064761129,-0.6654848144948696,0.489748471802609,-0.16601356354756053,0.6675186815600829,0.7221547689672076,-0.05951744896931739,-0.2613645328493718,-0.36156201266264437,-0.9492376390429752,-0.6667632600196657,0.13679026387727183,0.688462232368897,0.07783203397647712,-0.4746189789655605,-0.05922665320575027,-0.4127945329176308,-0.1448023434102219,-0.03521812601146439,0.05952625184482317,-0.25856211769166254,0.11886244204092763,-0.3776195262645331,-0.03354000786868737,0.15127298500373795,0.02141476774747296,-0.12072737926404176,-0.032640897055436484,-0.006489097395458627,-0.062027236503409654,0.10570126348330977,0.03985708932222743,0.01942470291230182,0.0956010916612041,-0.025078209852939033,0.12792820547201905,0.18179899822153917,0.06812576611016684,0.04834716629162189,-0.024395145105686515,-0.013535513721724374,0.04064543250336358,-0.017725051862414725,-0.2683632554549423,-0.17727078676709213,0.5875121255708132,0.21345968358189205,0.0495432390245321,-0.016058196815423764,0.004219106852289836,0.09645099235733705,-0.01949910671698562,-0.08375840363982133,-0.009975805359821427,0.1021601533047353,-0.027193860675241818,0.02724186367353313,0.04152773113501393,0.06416178064167062,-0.2252962110505631,0.03794111422177684,0.08576552690712248,-0.06119562958447686,0.10362718862832243,-0.015059506745860443,-0.04648854383318941,0.15368413196989147,-0.13559919239473578,-0.07054205101979644,0.03054500280270095,-0.11547523794649403
114.3238525390625,1.2322998046875,0.030877924531664713,0.30191851611714493,-0.015752387433907264,-0.39018558486994187,-0.17319583176487469,0.12542251880972677,-0.0751422708185118,-0.025788786728479545,-0.1158237355433856,-0.578593704976841,0.17645341581627533,0.07525038511381979,-0.013347018386988235,-0.04732545216258003,0.006635903922581324,0.027324115726728555,-0.061231642205082454,0.05882094249578197,0.05567773587941463,0.030763499255038976,0.34833936109093866,0.19126244062919998,0.01019431894269127,-0.2054781546463788,0.028199795145868102,0.1702967670381492,-0.025691537163123557,-0.0380970130603011,-0.05790285084148924,0.009267236117207568,-0.044441403025820544,-0.18808747987621288,-0.9472395651048934,-0.3551730178615342,-1.129905687571628,0.47262118613465776,0.16273303339528086,-0.03484508307802789,-0.019314635019983716,0.3867906479232268,0.29682351140923957,0.8806467795967583,-0.33674620800067756,0.6724103826434681,-0.18469596209324105,-0.24188456223998814,-0.033486337446054386,0.08574740642611012,0.07090850611489152,-0.18608914567957976,0.019349708248310567,0.0557259346917953,-0.029682905480390754,-0.04577963794602624,0.0020571889512822454,0.02487415443949508,0.12203116667014784,0.0805356223627053,0.050326848473674766,0.10723814490051405,-0.03342655558215363,-0.024969398750531835,-0.1411657283879009,0.016061219298725518,0.04023764852356097,-0.15482633887152797,-0.14301797843172562,-0.04369311210259392,-0.04307979235210818,0.009289929515560303,-0.0802311514463145,-0.08643062400036688,-0.039521366756429026,0.1412335268614574,-0.39451850839771785,-0.036259366744294814,0.0194395088932873,-0.0176402962552811,0.10346026165735553,0.008257304078318123,-0.00433310870523522,-0.03269487453686891,-0.050893716275206814,-0.07521961088310013,-0.02936376112229248,0.040318364036219696,0.08622784966462828,0.060789697924810024,0.04994404527653405,0.0046613434270938725,-0.20893404056662748,-0.01684175256876039,0.04689558550134932,-0.011890860538470285,0.07010155117922359,0.12373574183608564,-0.08548394894348449,0.1676885305550001,0.2532222916772955,0.03976922610076278
115.55615234375,1.4639968872070312,0.047671097718392494,-0.02096683025153992,0.0563284282521981,0.1729076100157023,0.001131722578995388,-0.2094486404650071,0.07888984845048445,0.5973961868993933,0.14692372743902765,0.13752703340444827,0.16402185669683764,0.2321891724790999,-0.19853001771496287,-0.17857408533897423,-0.05027908209339509,0.14978998612142796,-0.0007691521192121143,0.039282811361016676,0.07663290925312001,-0.06422134524126541,0.0746039580001566,0.06250877182849358,-0.018514045917634486,0.08441458996895698,-0.054712777832673955,0.10017832471508617,0.05877420230797724,-0.05185614721871485,0.037343440014262076,0.039500855562918734,-0.04565849397253748,0.06251726609287228,0.07338675542799561,-4.3534716455342556e-05,-0.018984648866611255,0.16256735777782869,0.050391185781700286,0.052170652329212024,-0.1262891314217141,-0.19279164660072373,0.4499401604134001,-0.041364290169398445,0.05154375930649581,0.2066597169646687,-0.0912358255515865,-0.24132550800622646,-0.2892425533391362,-0.2864347672772134,-0.10491596553577923,0.01605195807049497,-0.03470715063307318,0.11094994168468358,-0.07148700376707182,-0.05536813770316389,-0.17605470201373996,0.09719592737772431,0.07802596767685384,0.04051293390087979,-0.06183328514421976,-0.21378769501056832,0.02745449621166332,-0.04205227841136903,-0.08703588347005632,-0.07591367845376767,0.03149087270653099,-0.15091349790833683,-0.07338160704226622,-0.07081283211323276,-0.06905386558251851,-0.03565151525836238,-0.050954070956082446,0.08198186338438629,0.05914746888414645,0.008576197463852351,-0.7467475844871262,0.11169456355768774,0.01547906521831538,0.12638118385050642,0.12129258721356502,0.04708353297853164,-0.017655777647688945,0.04260961408616654,-0.09635851690990163,0.010634165955452676,-0.019877854336118626,-0.0031888316418766383,0.052107272558632234,0.05289742532469506,0.04757593381730974,0.034917329391740394,-0.08434603377214263,-0.07033604069967511,-0.08916835516362662,-0.16234781963979608,0.09349466218228102,-0.0874686724260819,-0.0630298982058496,-0.036123671873520606,-0.06763206825829171,-0.007850301531352077
117.02014923095703,1.2928009033203125,-0.014024820769937163,0.1953084429463197,-0.029172253972960277,0.037381031211821535,-0.005549773566962482,0.208669256401618,0.11030078615705945,-0.018911986814278737,0.066200147562054,0.00904318977092533,-0.425900145745963,-0.6084955680840731,-1.0441317208256529,0.4215490218939503,0.4095130603063755,0.5824437375999187,0.48011341038728006,-0.592495442861183,-0.04763624319311266,0.10874964003207882,-0.05729450004480767,0.6697110984659338,0.5448108114546985,0.648010466865308,0.2998836656217924,-0.2842858366489316,0.06773186553859567,-0.14175653615598885,0.19521904270827145,-0.07423291615577737,0.4861067626597827,0.17581672608953278,0.5313570884093204,0.9266899632528386,-0.21706071415029154,-0.47727215094586367,0.9281684370945285,0.24141474670112623,0.36035338430082964,-0.23652605145286684,0.0472201173581703,0.6755469609441336,-0.6326665877995258,0.376327139967206,-0.033961627256961585,-0.32393095098834623,-0.13337070162318213,0.6328017938170235,0.5779141715656926,-0.04006525716945675,0.9775935171875854,-0.11384435007161645,-0.19019600106584944,0.5013992321527548,-0.4241242990042978,0.047051812256085304,-0.08080123695111492,-0.1284718699666808,0.013934452440711153,-0.1299392571699231,0.03213800729417159,0.014710725697260592,-0.08481928974073775,-0.001027260035938615,0.029258253460870756,0.015076240265322607,-0.0473808489107943,0.021297233166602238,-0.00038822353103619986,0.08927802170081553,-0.006680142192969349,0.07578535744878574,0.09112057099580545,-0.013789922632220883,0.18675034890514958,-0.023920467700475255,-0.11279834664961316,-0.4445918478327443,0.25725180759996286,0.01341065568613038,0.06735490877122535,-0.07346923179146411,0.047124512527836816,0.06181893708268894,0.0024433626241503487,0.012806749229454883,-0.06667001343538366,-0.034330568550966584,-0.006287383020881844,-0.09287106585272016,-0.10738133765609426,-0.011313272510726984,0.06370907586055966,-0.24618589527331433,0.11684771640537248,0.059256476722584696,0.04282774917703179,-0.008363494313429356,0.0011798195688538932,0.058653761351595675
118.31295013427734,1.222900390625,0.06576942694531991,0.060584616974020816,-0.031216648065360092,0.015106289897000379,0.4931845952821662,0.04646553034292217,0.06270680908793722,0.0835699960786202,-0.0037653819875388614,0.46047573865427016,-0.31732061276172285,-0.1097924553107636,0.028633401434116634,0.05628318492689135,-0.13402814202243607,0.008627128507706378,-0.0386840569180987,-0.08519849086919423,-0.05459739907767178,0.12182570099589038,-0.051612174953109234,-0.1810587510017223,-0.15952231175074946,0.21835870371269223,0.13123543687782033,-0.429045143592471,0.23794833627976364,-0.2647350476986202,0.017042662084365626,0.010552444408954174,-0.2787241861160805,-0.33101051075976967,-0.3973530458120309,0.23191330855434014,0.5723734990086978,-0.07335340682544869,0.22711942416951125,0.635697875013177,-1.340239058118728,-0.20809634049518388,0.47132629386266695,0.13243171069976928,0.7257157503664241,-0.7207913947820508,-0.6608269495171808,0.053360094732198604,0.02997963562527059,0.05130179601446768,0.15991338613841508,0.11144010270646576,-0.14631729582222763,0.06474438500856453,0.054924883631838534,0.039070132131654146,-0.029115661144893695,0.044967062055196565,0.034132386474820954,0.09127374359088956,-0.05120932618868436,-0.03717143557018626,-0.1280158252342093,-0.029316890651295086,-0.05928821301622876,-0.025272062047266813,-0.08380302130599844,-0.026111312706903374,-0.0393317990785345,-0.03986832403408632,0.057016817777243135,0.1076904062735702,0.11585512170150507,-0.19308817039313264,-0.43317325287311953,-0.2832384938221933,0.6586406439306292,0.12258741741192763,0.06976877768959712,0.02483604725506771,-0.028687196320076738,-0.013710182122040568,0.06622231618035977,-0.07230819822220133,0.09375161832851792,0.11939025604862852,-0.0941752436698235,0.05082782759971357,0.006399413333423981,0.13635469777393866,-0.32399168497913877,-0.15365360954164656,-0.0033217624574106153,0.12014829949570893,0.1019776623775393,0.03619277975513886,0.011935852423513672,0.02519703131085375,0.10230895919110496,0.0388775868748013,-0.13036624180442122,-0.14852974218339038
119.53585052490234,1.3029022216796875,-0.15321734007049925,0.08762246575027537,-0.10772483913990094,-0.2762459229687262,0.018178197797832266,0.22950007964234032,0.22999153071571557,-0.040720980235228396,-0.023467896125027428,0.007248823595683705,0.0065232996394518124,0.05161761272693738,-0.14845582354600761,0.060763757477992286,0.03784246438668164,-0.0672143772899366,0.04997766189557002,-0.06487582621835256,-0.0076980515092335555,-0.050444282850900364,0.016264918716706427,0.06087563167880029,-0.12304458280632563,-0.7911027873192078,0.21730361141216,0.17056494418044435,0.1779025758545578,-0.17043740598627924,-0.14722649564916407,-0.15410812277504038,0.18459605949650085,-0.42655047477798347,0.39941602820410693,0.4111175275519383,-0.12651705520134934,-0.0869968909250825,-0.1251048347704656,-0.35395726776251624,0.009731072409702543,0.16653655006641488,0.47300567849722347,-0.4111895005404578,0.5058265386750367,-0.8223353252164485,-0.08250735805571063,0.9197957284427437,0.05758145166594304,0.2425763645939284,-0.04501349864145139,-0.2945872009663397,0.022884438003400995,-0.10206013906440198,-0.05385396560548991,-0.024322242206756994,0.1146527088702644,0.03921983059356285,-0.012697214856419746,-0.08576925104538624,-0.1156874445274779,0.04799160462854843,-0.018132125187493898,0.10364706706612695,0.006335415431918996,-0.042113879196943316,0.1301150682269409,0.15507527414609326,0.013082653912726337,-0.08156127366504917,0.006880777250279883,-0.06605156372519039,0.07261286707664162,0.017470236564378672,0.020546761617505883,0.03154002754893871,-0.19741378937620202,0.16329951815061225,-0.07657569049102741,-0.403433098979333,-0.03350988124462884,0.07709435585246907,-0.027164009352918836,-0.003225973215960766,0.008051567716429413,0.02160779504912899,0.0240284962232968,-0.0919895887795912,-0.04536953992144627,-0.05657912602565642,-0.04372550914629097,-0.062428329124725394,0.15407944810547833,-0.14505766880402227,-0.11092582504357598,-0.41632866566436033,-0.1263156706516669,0.0187701423750304,-0.20320260719048755,0.02819148458671286,-0.0034938030540838244,-0.008960969476543422
120.83875274658203,1.2527999877929688,-0.1564881851565548,0.0837729144075918,0.034402477237560514,0.00729309301036063,-0.18154161118983314,-0.013505892413556497,-0.04238055749549071,0.11844055098205943,0.015071453168740286,0.0028441552801489797,-0.18797134643831004,-0.027973025686778383,0.0957041018208757,0.0006666878249889097,0.03797007911915394,0.0380099787680522,0.08018800160508041,0.05295596581189925,-0.05675692595320977,-0.056365319667409375,-0.007972349652729872,0.04949880035643228,-0.03524302372336391,-0.13399366057378245,-0.04670149390627509,-0.03859869228162436,-0.03499156864423478,0.07152697235095457,0.13216339377239011,0.14240630072007293,0.04038148228894252,-0.07257641844587144,0.22267971680573664,0.1063600640604851,0.5584425643280271,0.005776343310415044,0.5332714589834724,0.28749506316407875,0.5877729148326137,0.6609078905492354,0.40380389128244853,0.42807891747726134,0.2378338990886842,0.4609975723672714,-0.36571951291660654,-0.23320149686800606,0.4568047516353647,0.09892192096577263,-0.12075482061398536,-0.1934709358203926,-0.04502092680983594,-0.16141241258880062,-0.04198948427628854,-0.17905768267079875,0.1468153118264869,0.052070333954743045,-0.008400027873879366,-0.06331556796401636,-0.004426638909683478,0.2296942177101928,0.07422114188805877,0.03334770666688752,0.05507942465255505,-0.08898865301234683,-0.12036026329621266,-0.04613336958939622,-0.20762325139890075,0.022103308362980557,0.04544220198476739,-0.06647036391014172,-0.08522598750401929,-0.014429856353956034,-0.027348244087607606,-0.17406654542732725,0.22369509732666276,-0.1066329192375298,0.20430271001813402,0.024908274636943555,0.10816559730497424,-0.018009045932870806,0.05792641220200773,0.023618032281351398,-0.05886406096552145,-0.02608603519664795,-0.048762853506667994,-0.1398911668904649,-0.12829009570872701,-0.015131067190540238,-0.05515960261038205,0.023264754163513597,-0.03984643238341383,-0.08003678857119036,0.1458984100395131,-0.18875587920926967,-0.23860955182985905,-0.06449218620862876,-0.2126390743201139,-0.266300391146328,0.052837280906997325,0.022797011470112073
122.091552734375,1.2429962158203125,0.16648172550780602,-0.0007089917615534351,-0.059875961205958554,-0.6636871714778539,-0.06863435814698549,0.14024789552620492,0.07972028529748355,0.2897839743356835,-0.001378357010196984,-0.0242719616417833,-0.02557597711936551,0.05264353967288517,0.04762551588744185,-0.0065021316282038175,-0.018025441547202606,-0.0549833970610911,0.05699938053132353,0.07421464255795834,-0.16625902590803115,0.10940456875932274,0.0018872739420128606,0.02815384268407835,0.046570542947538235,-0.09469757361030268,-0.1432614438305061,-0.5062962582203038,-0.1546791209187029,-0.1634241453820673,-0.3187964337182305,0.4136119779146467,-0.20080083477299293,0.7952237294820393,-0.503827255071881,0.041030771063323423,0.5727953133905094,1.1279578023150099,0.09269164520835262,-0.2186757260573078,-0.4689709135382827,-0.33630445498513895,0.7563382139789899,-0.07580917638780543,0.003618378716030355,-0.22092910843987174,0.34068618434016357,0.5066932100940555,-0.2851339634905113,0.3358354929172642,0.4338918350993313,0.6890511232984656,-0.4072880745876283,0.18596194036933372,-0.19080818882822728,-0.049885507804827645,0.33991634602543325,0.3241048926225597,-0.09252605481199785,0.11337190547760814,-0.021577427901289834,-0.013380939443795745,-0.03849308923810395,-0.06862237375046677,0.04041734820572998,0.032878915704585815,0.027076252898598233,-0.024989401747974017,0.1021179485766005,0.05882484042401755,0.14418590468212208,0.05631247491644417,-0.05621829597410594,0.010566530493485028,-0.04266871021943354,-0.1565002597596242,-0.03543973972186426,0.10858063320218354,0.07310204466843376,0.03554000921809873,-0.008775540715769182,0.06604303999860439,-0.06930076027680632,0.020325351792709438,-0.0666729536989016,0.03216123468311019,0.01420371262094611,-0.07561824658991974,0.05418348971266271,0.04762023435376703,-0.030846159027696194,0.06338527496580645,-0.002172527714616922,0.007387822395001801,-0.29899844945195625,-0.03547782514239124,0.04312563717747572,-0.10699855409862262,0.08488849616264783,-0.019315101914623913,0.09992643999929808,0.32330501134645306
123.33454895019531,1.2427978515625,0.3362053008690259,-0.06822783182598671,-0.22678430433903154,0.05025876794313886,0.06990613613471346,0.0834158952544531,0.07961841019201624,-0.32622550960003316,0.0502636726835642,0.275615393831202,-0.04353497291561497,-0.11287043488374833,-0.14939493359668904,-0.0012633131226674685,-0.046397873438869475,-0.013973382703201257,-0.03345516831887538,-0.024767248348477464,0.022984530706698248,0.048748684980630175,-0.019549644713057736,-0.1531855213480756,-0.006484043250138217,0.06264912216618593,0.21746099422804654,0.24977221384260717,-0.14060041669659443,-0.253307543025222,-0.2173769795514282,-0.2501913864914573,0.08472126116870318,0.2706607525280041,-0.15477687375806964,0.6312193919822436,0.5272654603484447,0.558791606031409,0.3519656813642264,1.0522133451994928,0.29475604944478534,-0.07950477601463887,-0.5962123929003946,-0.5253553283447199,0.3931180833643505,-0.1196913694964646,-0.19162203532514344,-0.36281469204905,-0.29820177005955667,0.5358540620117204,0.2872996272986615,-0.40349710804905164,0.2915566557786756,0.27722332247020215,0.07583224097239086,0.28456555704123176,-0.042239998687693216,0.12234783970514324,0.03492640898316691,-0.008962232737703218,-0.07007643327626863,-0.015190938466773222,-0.05508601975259825,0.07071231980965029,-0.013205343533753954,-0.050140492413005555,-0.12441244743114806,0.08614420988594489,0.1347094071160399,-0.057229347147498985,-0.04573263391841202,0.02520615778959256,0.0008247263904280506,0.06396900175230767,-0.07558436372850659,0.029022681192790747,-0.2806011115167922,-0.34423087269243646,-0.08854486793544085,0.08078859796762322,0.01021961149859781,0.0359690966840963,-0.13714856708492953,-0.09461216024039854,-0.06478460266911747,0.034412964112454154,-0.03862349636262618,0.08208247020966283,0.018780515261320137,-0.1141794410854076,0.08634801962845945,0.14600821436057543,0.131667198256233,-0.07582961653898583,0.11274040674828088,0.020455091739013512,0.034412790086260095,-0.12901809157891153,-0.3956113014213492,0.13481627907430918,0.010624411861382821,-0.04376918686961639
124.57734680175781,1.3030014038085938,-0.041419060510594255,-0.04190841872502659,-0.12690089036917637,0.219954252543476,-0.04788139431868944,0.2556727649353676,0.08304727172456632,-0.0267078114960188,-0.2546599323255703,-0.29725935157375366,0.054477500167031886,-0.09359599301588568,0.006582928720439014,-0.04988389723806313,0.4385783103801364,0.08460551650220635,0.005359450827969264,-0.07060318440276607,0.05764303622576022,0.089385221501417,-0.029691204237895938,-0.31777637936560565,-0.10263558007748261,-0.6306832495597674,0.15123751343595382,0.24925668118582478,-0.24132992041796703,-0.009437089258537392,0.48575210605780184,0.006327141113489559,-0.24831144709654937,0.2610960333193367,0.9203983919780272,-0.33388345912878276,0.11581864680633708,0.14878303442652735,-0.8133843823714287,0.09559749847239445,0.8559702450935386,0.23593695163682263,-0.32274487467845014,0.33139142233920693,-0.22040135184385923,-0.8405821000995976,0.47272540895324416,-0.6362273945581045,-0.18972932565809097,0.5059343208718926,0.5876796181359831,-0.014694483642367912,0.01104774982147158,-0.3262810280452135,0.11768124026444339,-0.0023467936761176365,-0.1629459384357495,0.06788226087490712,0.11804489135642503,0.0407368621462947,-0.1170016716919352,0.002566616734019561,-0.03372763477564071,-0.043913505574752265,0.04156428355534941,0.0296095031762654,-0.027526372566771314,-0.01126216234974921,-0.01290589357348787,-0.032519244912787425,-0.03466224319188186,0.08704802961409794,0.02499962987444657,-0.06866759494841035,0.023236448654259733,0.09174366644976702,0.08990959048394184,-0.40654715268930114,-0.09223463850367047,0.02485720771181231,0.05444318369703981,-0.05010745517487446,0.0376286065228925,-0.03089333936659581,0.03367075104931659,-0.06723652258291067,0.07999303714364395,-0.06229249303072937,-0.02360902505276276,-0.09969654640345528,-0.1002506612712045,-0.011722980995847669,-0.11898444868605408,-0.008014448997999968,-0.10856621561373431,0.25087565790904137,-0.00920621628086539,-0.030522469862115518,-0.03854863251698295,-0.027946650090417413,0.061073379067262,-0.030451354805258374
