start,duration,0,1,2,3,4,5,6,7,8,9,10,11,12,13,14,15,16,17,18,19,20,21,22,23,24,25,26,27,28,29,30,31,32,33,34,35,36,37,38,39,40,41,42,43,44,45,46,47,48,49,50,51,52,53,54,55,56,57,58,59,60,61,62,63,64,65,66,67,68,69,70,71,72,73,74,75,76,77,78,79,80,81,82,83,84,85,86,87,88,89,90,91,92,93,94,95,96,97,98,99
44.55044937133789,2.422199249267578,38.138063437536786,-56.91037770520713,140.47649443303493,-240.68134771117633,21.24841818981522,-43.192386971432974,-14.586467200436015,172.86966723625073,-151.5037509759632,-16.91892312073504,-21.70012456249711,37.35673871683255,52.349179027973705,104.58296691254854,-55.313813056982994,72.60655110221592,-58.751795076104315,13.593905936423106,-11.141453309474306,-139.62023426773348,-1.0111766436667793,-7.8309447437103685,29.373245751009406,-1.9525926927118662,25.746530199957217,-43.50545098784478,-8.168649370328747,1.6475960197559232,-17.199267897558684,18.77039289183987,-118.79367919157528,50.71454416204016,-24.800663928544562,40.03497885268538,-13.099024971442695,0.5809763175849572,-34.358867126870265,-38.59948775594359,-18.68140854787784,14.751952990306508,-2.2295085535963173,-17.82022764473469,3.492940543285323,-25.422235662609225,-12.57594062344907,5.5572873072817455,18.839056111710107,-38.678903198295735,10.276978163190721,-43.4034852860015,15.957279196287093,2.041198377219641,24.429778965234,-8.506925055120648,18.878339931132423,37.782331429891656,-10.142836343381877,38.76441528861994,-94.84964529424417,77.02463801174616,54.235778798038474,27.40280421448747,-90.30123995011071,8.114122734060306,-33.02327606943949,-59.70272994010247,-18.569142875725568,-36.793953380235756,-24.901748694394072,28.28355186443403,-13.096179619647142,-18.57618034532897,1.260441074470945,-3.2820201303345224,28.792039884843557,19.635675130150645,24.47883844682324,20.32836862833384,12.249368986549948,8.386521832365089,13.211266132260088,5.756328979293713,-8.987583582953294,29.764808013361396,9.098981240466431,-17.617820592759816,27.52960918029956,8.96790914573791,3.195193148721271,12.780633929638054,-19.68124223731941,5.385764023639716,0.34787272517588463,9.925226996727666,-55.28405590965533,-18.682343012837947,56.96805893510066,28.47602156408449,-76.87478393726892,-157.30195169081003
46.97264862060547,2.3720016479492188,-113.33361582719292,28.274867233196215,2.62106355656156,129.29592384560004,38.58782916682504,-97.80197764426536,-70.55251962765047,-123.7561156172273,-33.38646289674566,81.37689639393359,43.917864437376835,-33.93787927676358,-92.62282712433046,-53.23751864150199,-68.06293365322215,-30.011103654378573,87.23690926368377,16.42598009631946,-23.592592749629247,-3.286891710160459,-1.1272898181039235,63.57180836552527,-5.331893348812333,39.872313836838174,6.053267110966612,-31.623673044622286,13.341830643318644,-15.303861361773889,12.077077750109328,15.546568964653261,-45.05554901031878,-58.4834699358987,-72.21930802367402,-112.24763547591552,-4.618956481287814,59.5158064549834,-38.73883457103541,-27.798285249627465,-4.2457048415648,-1.9541214174523223,18.686384382100357,4.834529461753451,-9.223377246464207,4.204271310613696,-39.01503605328662,22.934812293935156,-25.151023695241005,90.76170124969278,12.836018477305302,7.321236910450748,-3.4048609701970163,12.904928435055318,-54.499933438641136,53.80412069275047,-58.90155021083476,-29.52802039582137,-13.270171523921052,28.304683407636475,33.501708082603784,-23.1188291372082,-45.806422149482955,-31.263118616093053,6.726699312326305,-8.192402344572923,26.17378843701585,-5.012552641046765,-16.848422346390734,13.494379774152051,-13.289053951248238,30.596890596506434,-23.689774187932645,-1.5199791332354522,-2.6218363475907225,-8.165573201253597,-11.912069743681553,23.432905464314157,-3.280587742962963,-49.605984982371986,5.540035737948422,26.77281307007818,1.9512842328968734,13.326375331815955,40.46260326787875,-25.97113106332497,-27.73956610645359,-3.1638826556218955,13.34198449430879,4.014233763606242,-3.442377715033645,-4.93918702229593,16.867836458052828,-0.46221019220042603,2.3181945690828876,-19.632623487975856,-18.71939327597536,24.955461380791288,-65.70341284488482,72.52967669149321,-25.55118722942392,51.7647164384791
49.34465026855469,2.5625,11.923300292349602,13.60941077656517,-22.84872714934346,69.3070849083163,-97.56365729136739,78.86780453953222,37.9469612227813,-45.89823953480196,21.60708981008958,-39.53297546977426,38.767174947740656,31.603781988390644,-3.9299586106234887,-7.781468215297842,-89.00611220878251,-124.21417327899148,-14.985696648038086,98.55345825815178,121.32845463041299,-31.514365246960782,16.70155327019931,2.977680055418923,-101.2472074525868,-116.5836321508357,17.222778202495665,-91.59064142487631,-23.663185503237806,16.786407771835854,4.269440620724831,8.159925007929491,53.61712730216509,0.1973227679332663,29.66419420245521,52.297151024469954,-68.52071632595218,9.612297038308913,105.4774393755799,-13.16512312702835,-83.77592920322326,-88.62317894675756,-5.684987202133634,21.588233341523733,41.21893225978535,-36.72354345608197,2.073983741760974,-45.14740713468855,-96.6365142903626,89.16726560581348,-163.5555276400668,-148.7990400112065,-54.51665210063687,2.3060111279498843,19.003217806857254,-17.34807785833168,58.94002706263639,-63.96122385025527,-77.4500522663753,-1.9177353653401803,128.54751516583204,-64.85451953756655,-27.41267399008797,-26.70283673469598,70.0708174178846,-84.32836201587196,37.4736927808165,-70.68162691787808,64.71774930927731,-3.162130332448667,5.51067341469367,-2.621428665280348,-9.898062944192468,21.39762026442425,9.804827404322072,-9.415367151006027,-10.594380451644975,-47.772932212104934,10.348701950391657,5.254050669134214,-6.957921070863726,14.467627696477368,-8.821186581176573,9.542996357547217,-13.757360200263244,-19.55297905006728,-7.218727895335358,-31.456731710154322,3.6191312981238113,0.43414580360977795,-3.2942458656268103,7.158600749546892,-8.199686841278638,-6.971320776115346,2.4051817872144614,81.07793930972564,85.23047681668696,5.945617471076455,100.65022944665324,6.8234263406472735,-119.30390406463519,72.11847238071493
51.90715026855469,2.4423980712890625,74.4299476213854,37.943110945426945,-70.27005152153177,4.370081912556369,90.51077471446018,-28.198039765605742,-69.39338749654404,37.73469820561182,-156.8619271687587,-62.55487914710797,97.49265051614809,21.614589414410943,-26.887202936613395,4.488089759366788,-39.87393397285753,46.21016346503089,6.574559685718517,20.587516595356885,48.31121705321334,14.291046630906434,33.694128395113054,-28.042535743822768,-16.00496305706713,-54.57028224361996,22.906391104822024,36.91189791652499,28.66612711039537,-60.90895385178626,-13.634436919818963,20.626718406766543,-95.07817722091752,-40.34938926205796,-87.26476716414271,12.308750628047655,74.16334858356255,-71.10634333419723,12.666432046510046,41.75992859096638,67.30844659982245,40.011868581060796,-18.29417077117045,25.732809533141907,17.064344405916085,14.673525982375033,6.439157879840426,1.5008150182496758,-20.951098972780144,21.50152617106213,17.75841378174973,-24.146073321917118,-18.98623078825488,-19.235175514289654,0.2805216627519713,5.250534245624523,-32.90928219421404,-6.095086377747873,9.498777363605543,-103.54895554135092,-6.7334662798882725,0.13376383748977427,18.745836628083225,42.295792378150615,-43.503413132051186,98.05773829617098,-105.82597597233405,-24.4717716817037,-45.233217843756606,22.211808665409908,-49.00413436624289,-26.35365866579305,64.48946398688771,-24.204116838049472,31.28380891051546,-21.49303477715496,23.397496125844672,31.062419062376136,-16.868152017680607,-10.48292738927293,-23.517280717743244,0.9070632386835982,16.058350072360025,37.612010781899976,10.445996005740575,1.3981133604157483,-12.315511663959843,1.36012800941598,1.4206135014583934,-3.2580510675102605,7.022392871765523,6.096356190478117,11.452126619924615,-8.722271510298562,32.38275897733499,-11.654047403270859,34.45143323429621,-47.57199030065084,-11.38712182436894,80.54645597019908,68.84505282861451,-5.6847082021881405
54.34954833984375,2.5120010375976562,0.6120488821915586,-26.655448530436864,18.45193524115846,-189.65039890903623,-18.062973557057873,19.309641898659933,-54.604887427111954,1.0342824843111231,-56.903753619831235,6.174436181973661,14.505393934234693,1.0081150582886695,-68.83343799560198,48.11935256607876,72.86361061695118,-26.217037222991657,-19.851946686506345,1.9315362392003195,-140.73564580741322,-84.79953681193993,-47.6536121993184,-9.890574753957631,-26.851933834531238,-25.986116015445436,-48.25706305595581,-14.56638088452072,-28.89563673553625,16.839985490563418,-64.25132896592288,17.33778874343809,112.05856622253324,-44.30362253307438,-41.73882577499755,97.23318772817174,-87.68534048490454,37.271586376122755,70.56132656349764,-46.07510655312461,41.60622091617448,-35.30704083483083,17.47677312610256,-13.477216668720557,20.859872944896864,-30.97040254878697,23.706848719096886,-10.422377600438368,33.0482581864211,-57.730741994008355,1.3311671574432264,-14.146199652096078,35.56659128040794,0.9293543137293456,-31.994999891668485,-4.502997243388553,-13.996773583801396,-18.811536900771777,26.167455498071625,21.435697358803562,-27.368659443347532,20.97957715532985,-35.22733289888249,36.14650776318262,-21.08201324638683,-46.23535123628044,-16.776799486874065,9.618189637944488,23.424056697889146,-9.171932733101976,15.547689528167961,4.827143151313564,-3.7562154580614204,-13.955013371418204,-14.181620937362082,3.029868047148965,-17.929123141095413,24.106542235170405,-22.523453148989265,34.962741078687515,19.264366678420032,-24.11562096827239,22.528832724959468,15.085033428881378,-24.37868608552267,-6.538069123555038,11.153507991186995,8.346700659886064,-1.9662697152670878,7.88439025802841,-21.223131067283287,4.783529094106991,10.824133092190344,-3.465384338448825,13.624077033755421,-26.888228078270775,-10.363952487463996,84.93631161546782,-21.176556019240707,-22.358572837799507,30.603983220947885,-62.22289122375611
56.861549377441406,2.422698974609375,-38.8989165352803,38.92119951956603,-20.620007804810907,69.61654302334173,-58.877257781796885,11.07223825002288,-90.18367562922232,12.204935625170723,65.93980472728082,-192.83548999777395,-93.71989786535951,-128.027411898772,101.70737878026853,16.577146168735027,-130.4726227822743,-223.78508605625362,59.99545616275862,7.047474667431228,26.62549501366326,12.752762831016062,-15.86990367473453,163.94768230177542,-72.43360661758838,4.499112900227223,-41.59828601836209,39.13753947546184,78.65118627401266,25.563319187155695,30.74216631363791,11.212276419148132,87.44298541290722,4.186495205157078,25.999139473299074,66.21085956220143,-83.47041317721688,41.77153369787757,-6.438596044398363,27.289744029350597,-62.26197270595518,43.41205293943695,50.823545678962034,-25.50884542727632,5.167449445787175,22.381708499551163,-1.6003494011181,-5.044669364238008,5.183099253971016,81.27728428963945,-30.35310878797861,-22.577921968397337,-13.41560454259264,0.9038928040266603,-12.270315353918187,-15.060880277063543,1.4785983657730952,24.059140642174455,88.28422361854271,18.89991034665885,41.7905981346719,-17.362470937915997,38.78582146721385,8.268265433551157,16.816160515751918,38.987645422713015,-9.086192429182127,-41.571900356057164,-3.299654313753446,-49.28154059196591,25.48136127385925,4.0223815601119295,-6.580485878634368,-52.48364962862124,20.94992695539027,16.14248973121481,2.112896799138287,-17.44912983660787,-19.549740329046365,5.596744391221952,16.068594235612633,1.3513101320992003,2.7693271750027897,-11.829721826309271,2.318817881637763,0.5274586997706452,10.032765610502114,-5.6791036394008225,1.9602819291496738,-15.040499342414062,7.629817942078715,0.7728308044639441,-8.887126394059408,6.001953458611463,15.444591356768782,-31.270163596855994,14.685727946879565,5.100752651876768,95.04617207740223,-31.748328462498563,64.24464326962617,-77.02468789547822
59.28424835205078,2.5222015380859375,-62.17621195913584,9.141094418032333,36.45267909047023,-57.7944552359317,-64.01488329371216,11.765545412413442,69.61920325733188,-164.44498053436774,-4.692049995886915,14.442627628373378,-118.72313221489252,-66.484296697231,-60.109588405184255,44.08985633561501,114.70013610374232,-5.071767700463751,119.57045461809693,139.54220728966146,-11.894937430823704,-54.44854718107251,-64.85711470918093,79.43380407747424,36.281652287556675,51.264555556953646,113.18731630403937,-46.97731710967754,-13.550399393029624,97.27791602845177,-52.26078972757422,94.40439877539168,-179.0107946849096,-68.82226257089114,82.5214914870522,-19.829504857525663,68.19917506373771,45.068256300680254,28.155783334736615,76.94460991114443,-3.1972635853522444,1.3970251599518984,-25.567379485541323,-6.122940679632744,15.424287912804626,-15.164713839128165,2.7985875576387933,-8.185853817859066,13.99441909831885,84.49217813400047,-9.37677798154864,43.93265294067629,17.221039737750857,16.944225054592522,-24.038030867706237,-3.3634302357919017,-57.451388935320466,-9.200804833865277,-37.64065893351145,-18.17937032660869,25.903821858910522,-72.98118304616806,26.464250418881818,32.4100634490901,26.738931641503058,23.17695931750047,10.86542184404055,-14.878323927405273,67.47225127210312,-15.210555029396335,3.5658289111596266,-18.553411651163046,26.628517740587206,-7.524430165526049,-8.65645521323907,38.97174493012341,-25.43936573565139,8.069178959496096,-4.83931370919307,-20.309624753770038,-1.2965342351511642,6.778997094882087,33.595439906478205,5.994556807862377,-11.494458755304606,18.99821228790925,9.853122853945118,-5.433047343557806,4.370138203859587,-1.126332870079583,-11.819245314400247,6.723912565097247,-2.7197707018186854,-1.6118952571494851,2.9325847374663923,10.693747769527372,-41.52048469919379,-5.53851635372375,-20.973963423311424,-81.9385149982573,-12.296969984839746,-100.12849271621887
61.80644989013672,2.4625015258789062,-51.95232559813469,-50.26852852860633,-47.82501796220045,38.432982654277325,38.95280912178628,4.112987500113512,-41.12878787907989,29.832949892470857,-0.8242979895085778,50.35872961490834,-22.24655821468627,56.29492089376858,12.274343832715413,-6.320906114255891,-64.10829175528688,-137.3186900652474,81.92425234221123,26.254266976575956,-3.577496707313243,-22.252395425434194,-47.5544489285138,34.89006364400949,0.34245667423852794,5.829598942458311,-1.8728405062388251,19.353442666384048,-2.9632098798886126,59.987377343769325,-16.023630427822383,-12.910003478599759,16.200138504549848,-10.42887071995779,44.328478087994654,-45.36757377923511,200.3491619116273,62.34126733820652,62.0452747583181,-66.66595746517689,-105.73838106640726,48.496610770770886,28.251226598314638,12.641857412907285,32.23917776685048,0.42413663377077393,-7.347536488298379,19.588841273145004,1.2297216737362766,8.324161202708792,-5.7745838508036895,0.19374083107569043,-15.045258765073255,11.20531614073671,6.3331572818095205,-3.6109692971064655,9.263987091768918,10.539910372165377,-7.361059489119755,-17.891379352528975,-27.265137109502597,-61.566672546136985,5.962039619372388,-25.71941753257491,90.82218166214858,-59.21221819470573,21.44941423300431,-71.35432936421836,87.63350905994686,-42.05573548716146,19.204891305812286,66.35434740751349,-2.1045909640507023,3.6804083155397045,-2.9343405712965414,11.516896264342485,7.491363781498771,-2.3656847748110756,-23.983657905898042,1.3746122458125745,-15.80755832190273,-15.95824913452489,-16.34454122470393,1.5498450291013768,6.18623430649075,12.793896174155384,5.539294548709012,-4.022387137099682,1.1491428724513844,-6.521242551283384,1.095793565331453,6.452567704809589,5.305724581702745,-20.56990003100581,12.478999718308774,-46.78318578537152,33.956929346392215,31.540612191581914,129.43737182449678,47.33107139371242,-96.20894651616346,-118.00208119472074
64.26895141601562,2.4723968505859375,-68.62588454399335,50.712609249524206,85.93513517203905,-69.44219168925885,-42.688174671708246,57.14040859438833,69.56259044337062,11.852422633861323,-30.573487930690575,42.210889662904755,13.30844958741062,-39.35833807439295,13.673828819952139,25.78539608107256,-6.74734335887128,-34.973578519298826,-19.59075975368608,29.05216302037494,109.12815445770178,62.91219894231288,32.13644361580621,-18.212354645884787,-97.7425830208613,20.612910521155033,-14.691402782844364,-0.41733328387927227,-10.667316508974713,-5.330384178419022,5.99706362676407,-5.528535446637307,-0.971769005261895,-87.2893000710287,0.05451679377308061,-26.4364736531806,-12.713250317784288,-44.26797807140857,46.922368153919464,-34.70158529633957,-12.431323028652146,-12.437253990545614,-66.67744805047789,4.520901265612715,21.24365080738265,-0.13892387011210472,12.836798094633567,-17.229052954272113,17.577649983440566,17.282108507994785,-2.642935625554472,13.133486697847628,-9.896595467403785,19.749516221889227,21.16630358275351,-0.8938298092656565,5.432431231736732,8.382303075345721,-20.84120546786062,25.94211321506052,32.00316958807495,10.471118723865859,14.502533341532832,-7.732245264075773,13.951916128687179,10.11509192848023,-42.95837566800913,-16.155177804504298,-10.167202912049989,-2.0318328558373775,6.379469909381754,-12.755159226454424,2.080690341610868,0.8237557093976591,12.076697334860878,17.428565638924137,-1.676563777923279,-18.418226064162738,4.498062705634792,-22.32840864812377,-19.108214449000155,20.972543165515532,-14.631664276190733,14.523511668644883,-19.85332210642933,-6.857306267798805,8.163083036949548,-6.051551782907786,8.059694438764902,-2.548515963756129,9.846624580013536,10.862373364491047,-3.57094027429687,6.282982266853451,-10.797334915228376,59.19519723674468,-26.412369754088925,-74.21485169780492,20.16587014723318,186.68116593618677,-72.06708378073631,27.868929526181965
66.74134826660156,2.4117050170898438,26.513041625619046,11.0500521304652,31.211128521730124,-133.53752854878795,-6.223862573208034,184.09031411037074,-51.15478692420058,-82.06282746035512,-55.29622002523613,-55.83783109096683,65.1196687496306,13.468843007292442,-54.36363240812504,-144.66686624527327,103.52143608685121,-39.60602048266216,-29.466229545105016,48.15523235442187,-16.256931036842918,36.930351550356164,-11.076509555666082,-92.68558388032756,-80.87006202681663,40.73425628840242,26.468275838497576,-19.662703857848026,-13.738313429139057,-50.45402740763629,134.24640202550222,39.86278563028566,95.1213841171242,16.495028193601527,121.75232608729678,-13.292589143669055,-12.220292490483596,-53.90284778144033,76.72768276987188,-7.953027566104565,-40.677151812228466,10.331649656782433,-22.271636180213243,-31.113830407112985,-15.678007523161249,15.529009279434918,1.4723859355576177,-63.83887098953526,22.62012541964817,30.630247308990267,-17.75262327467627,0.5788804993103603,33.568272799695706,16.311039639405358,-68.87174101665973,13.01784255261079,-87.18066831278823,64.42146886716458,14.888138635910812,-10.455104380675147,-57.88033125009673,-2.6439380257857112,-13.770030498117524,109.6639530567912,-27.423108858177116,-13.632665844184856,8.314420725230947,15.872356100356347,-17.939911351215724,-14.198308301672224,37.51512441777128,14.274123645819168,18.105378603409534,71.38685980132293,14.724756395468534,32.180618713989276,-10.88696544798816,19.91802985894865,1.7644336173903445,14.097349715106622,-3.395540521639984,46.5683572562296,-5.795425906448145,28.69978399137853,-0.5198055942535893,2.36446321570609,1.3255354922854194,11.330906469742638,4.2520777024498155,10.031352733775133,0.5941139519709291,-5.989779475035557,3.1842265485730845,-74.7475653239594,-91.6892695550956,54.243989252769396,-38.68418766425103,-50.7348471782114,-26.686747634984926,44.74521340715164,68.49380021193534,-35.21486013231777
69.1530532836914,4.6548004150390625,15.250652536398789,-9.316438295277674,-27.459632528641926,-4.693399673062602,-22.201105178832467,-21.469389092804246,31.35873674798961,-196.58590593281116,80.67710078195043,-43.26154562394285,63.75648023274987,-26.99458618932828,-19.438597076197816,70.97410149040344,-49.20345472987565,-68.05845617761057,23.467485322480442,72.14889283789446,82.05968956684971,20.283017558181708,74.84680747906101,32.52993587334235,-31.8790631136614,-24.31447843546417,-15.585855394752212,-29.378278232692566,16.536185282625162,27.747447167911346,-95.99243605648584,46.89976345096038,-58.035704870193975,13.528503245087293,35.866192926246974,15.992500745653878,70.76167833283333,85.58878389075342,-221.18610677778963,-59.1082053897146,-31.471565417371004,20.019972915383256,-7.1896172677057315,-11.915416125520068,-25.263464970685828,11.151128072554222,23.36560128701446,9.311585269233664,-30.35387831173061,-39.204195666032064,-8.987286803605155,5.3046912952168395,44.434872935600396,4.9689178470433495,3.1095765289831467,-5.603857011529577,-12.789457957888267,-58.804887580251346,25.580430916723554,20.397030868256476,86.13799081337037,4.248776187372593,-10.466268849840498,24.124503404680922,-10.120853340473966,-9.722299067149864,-18.087690112494528,-9.691310541984908,3.003349663762452,15.025416517601162,23.472120540725037,-9.521474849146172,-20.68548558205918,2.794362548850135,-24.891178300680433,-20.847687817852524,9.871143121637651,-14.218122643324303,-21.77267377824315,24.77584938190909,15.881132175235647,-7.770757669531109,12.808772732063206,-14.8560136090406,9.496273276780787,3.9169510338422646,-27.065961494485983,-0.9972326648367607,15.276176633610236,5.000988461339848,-8.721868249980757,2.399011230508514,-10.342737615523397,-3.7333777871747125,7.780453764908249,30.441672997932127,67.24888815628621,-57.57913594146061,107.53443187399591,-33.99271216649082,-192.36872544366923,29.005980111538584
