start,duration,0,1,2,3,4,5,6,7,8,9,10,11,12,13,14,15,16,17,18,19,20,21,22,23,24,25,26,27,28,29,30,31,32,33,34,35,36,37,38,39,40,41,42,43,44,45,46,47,48,49,50,51,52,53,54,55,56,57,58,59,60,61,62,63,64,65,66,67,68,69,70,71,72,73,74,75,76,77,78,79,80,81,82,83,84,85,86,87,88,89,90,91,92,93,94,95,96,97,98,99
115.63410186767578,0.6203994750976562,-40.1298810456546,4.281331463249646,96.66376390623252,-23.031880522507436,55.680249889479654,9.603875018295014,0.6271947609035848,20.62068091767968,60.53906052761906,-59.60920045077054,-69.92257606404834,10.029062756248972,-7.744609766537603,39.93070012791747,38.286331520203284,-62.635950052551884,-16.20751997589791,-40.997613489569275,8.052407896440268,-30.873016252005215,67.1338091777785,-1.4482545976468648,27.98237455809556,-30.54568167584203,-41.098472985439,49.90589487313972,-15.94215888471724,-28.28553550543488,27.403574438587093,45.275888705461824,13.762341918007515,-36.29315697646685,59.41827355370539,20.24016500776977,-10.732547479994166,47.5970334879314,-23.7588016372095,-7.627927992472463,-6.3734701534971165,23.07757694174782,14.609995088316156,12.021202572727537,5.723623932911167,-0.19966389602703627,1.283661605997957,2.3791976986176837,-7.033239600400995,-12.52263116074836,12.57954838546142,-29.35920550449649,-5.1636617665927105,4.1667018462407475,-3.1821413657015953,-10.394152804543419,5.845436006914498,-4.801142801557364,2.4286244038279388,-3.711931747630699,2.170323049808445,0.9292162359806276,-1.5843341208739172,-24.56564595946015,26.00384685542945,-18.977539444679287,-5.605966163123085,-5.892310665463594,-22.60286974571394,-11.745621164819386,-7.259510650201659,28.17395790179687,-3.4707157529897437,13.870151369222784,-23.334379947215766,23.10288962455486,6.38850310053261,-4.816584428420376,-3.331261767635029,-6.131869766517424,7.550546874246558,-26.457705919027617,-7.437899622747116,-22.240620993304223,-16.25360011361149,34.559216536047686,-6.630067554899407,-38.666809116006775,-2.668205329817299,8.685076674113493,-15.576153781316684,-0.09422734317339887,27.05446863343881,-31.788887254431923,25.124868120154723,-29.610395169649635,43.04253218895001,13.297029899848209,-33.53761412195186,-0.17397930546492812,-23.85526611110926,10.36436522507234
116.25450134277344,1.3409957885742188,17.134185172930103,-36.24294221189727,37.761625540515396,19.430152356943523,-53.87606795014145,64.35279106729716,-32.586319653417,-20.480801529668476,30.92578734194697,5.1722197814919575,-7.187125039064101,20.755694540756142,12.111935254707804,-2.439637122512546,13.315819442623749,85.2792141277703,-12.248316345187417,-17.860210738660438,-6.78774733484746,42.69007096819226,-95.78086607116289,18.38951003746911,33.4169471052556,-49.52144767138484,82.91454646548459,-69.72530454276534,29.551016591352376,-6.976095454020518,57.74580497420489,-41.463001424135754,27.388350584726822,-13.75689838639832,38.11079431027536,-62.504400273896806,12.241566828000213,10.367655033285564,16.01017655350796,-16.94113188062122,4.0524557920211475,6.367352929735458,12.975846822659246,-38.68687632343423,54.346031324941194,54.41052583215294,2.640895885386911,118.23330889724012,-59.59005628344616,44.567637861469876,-10.531766040512146,10.085706922553292,-2.8943144014835323,70.04020438573582,14.79204204563787,-46.2640670759292,30.652660198924583,-27.64494852685599,-28.474995103137793,16.558169054452954,-31.72841707487525,28.890525726866702,5.565603076826873,41.68676599938967,6.833162607762045,21.048908934190628,41.60819412895715,-38.83977032204868,39.070759807640684,15.408392449639846,8.547623302267125,-6.070358936995957,-29.9104510773201,43.052065815236986,-9.547379698320121,17.812604476563955,-60.70797966321741,18.72437435316765,-2.522555627743682,-7.696499260577667,21.593970374548135,11.406120259626947,2.3384206994846144,9.217783030872397,-59.77139798671653,43.44112182338513,9.415814779158158,16.553651664156487,17.631212281647493,72.02517524349015,-12.01871635596121,-26.956359168468197,-53.84091213150992,109.61238217758614,-62.09500434246841,11.796717542869928,33.03254271697397,-39.155094299453566,-14.870121054740572,98.18859315701013,-104.76911846382578,-17.269454586910072
117.59549713134766,0.601104736328125,-20.604530834424708,45.98097328885577,51.37517456757939,63.846089775433754,42.57314157325231,-12.332463453229298,-3.206425295291303,-22.74662461031648,17.101329597368398,1.8391909381764773,20.048015760599498,-10.762245187632045,17.52425926121055,-35.61220594275564,-40.53255525628851,-4.106357564471731,-0.508082939339374,-2.1414197499299874,-5.062643129885612,-37.34979029296045,8.667009286888394,0.31999998737107993,-12.942751290303276,18.065663641020237,21.14153562878909,-1.6650172872403088,9.461298937220597,-16.058605417034613,-22.41940856582404,13.596876846549051,-3.249944846019316,-13.306105038351792,2.385406943193588,7.44879886012027,20.55887891147996,-21.239847697870186,17.905362056053363,13.491001788045018,-18.178508744509777,-14.29470580568311,-7.90058742436408,11.665248976445941,-13.371886096671654,5.660469313497777,0.37154867894819354,2.4054177855691585,4.03307607518839,0.4446069653666824,5.706282773245928,-14.358727243985852,-2.4305332460548,13.309838754999753,10.595599641898458,7.719363950364277,5.492703592454269,-21.730437706622958,-4.758358779433907,-14.667154835811981,-33.383978883820205,-16.600918998812688,6.64086326087367,-0.12564627563870623,13.584940714743292,-3.133272971938719,-4.822611555661384,0.6207081277461173,-4.313871187322768,6.24446005803926,8.563375178805416,4.887543115998011,2.1403157124547842,32.523069222062624,5.8943433941416075,-18.430233529934128,-25.530393958028366,-51.034758726438874,9.259620677006422,-3.93573512383756,-4.961158598201901,-1.627265479640851,-8.793453311306077,-5.922042737594811,12.702921936277962,7.6305416270471245,-2.6414820071984737,11.498206580865647,-36.707130468581155,-8.186411069019135,-3.2941034151747925,-4.252201441315201,-6.5017044939740725,-27.991915846550796,-23.433151536307687,32.62615472175742,-20.748575229424002,-32.829052482484244,50.08036617151027,19.89502214787039,-3.178132329524593,-61.52850273780781
118.19660186767578,1.2212982177734375,-69.97308917704665,-35.37535750294644,-37.59606677889673,-39.13917462694447,-21.72189781490857,35.61862818954664,-12.376259872570783,66.44261138234555,-96.3413609897566,4.198824180751064,38.75628927476233,-1.600289055058087,29.052254726518264,-27.955144138228384,8.075643423490774,-29.588834692424964,-1.5804891312410039,-11.495209507559355,21.364305514784657,-41.428707230585104,30.7942992496877,9.49965267669327,-16.89821729970131,-6.055006329645359,16.98851169475425,38.384211535017585,-57.03091889599838,3.847445308238737,46.40170711955285,8.072433659076196,10.717137966537077,17.785803577669675,-4.9100055980789,21.803719758845933,46.3172914839955,-16.775889691248313,42.240993639639456,-50.99021037702033,29.061856362335558,-13.315179388583914,-18.262032077260848,48.66376282278199,-15.9451261679731,-40.500628683892494,15.133152363261797,-21.878913666644316,-3.9148811373958514,9.574199865516015,-10.019651453151365,-16.618461273679003,-18.284348210248677,15.685661981072743,6.844352476824392,-13.913870239101314,46.36918145752363,-77.2077385919503,-12.63376079032998,0.6304661572556363,-16.75171392771372,-31.998265072362297,50.2763255197243,-91.97898138352346,24.674723339188287,7.626135521389688,17.711524448601235,-4.229552934518378,-18.80021411048743,-32.854524879657625,43.0174426974296,-27.06948814699305,10.232556603369883,-83.09306686534879,-36.96399295755539,5.351294944205826,-10.885409275305735,54.29199006929265,-5.34893896528245,72.71737177957328,-41.87824668090459,-6.9095159626254095,20.56806823658854,-1.6434997616003137,16.231559053843476,7.817078224971067,-24.290518139817312,-56.12883639562402,39.13618435714474,14.468471389560145,-37.40526051112349,47.95518886661472,-35.70746442852611,5.30587913041335,-7.681020622764889,-20.708810146582643,75.94274100294483,-42.922082687803496,6.877300355205863,-39.53719190898258,106.1861582874009,-91.85990466884405
119.41790008544922,1.88189697265625,-69.69959938344871,-1.7686358729932694,16.35662196487404,-24.337032843756337,-8.088070682918389,27.432934960303992,2.1527327148069784,-18.871245208785698,12.052341931918459,14.223376826484543,-9.486267287772492,0.6528581427393133,2.440996297764709,6.890239363825865,24.734854571279012,-2.875808623101526,-1.3149267613662177,6.965653330969426,-5.838256171966615,3.055460593456661,-9.041067943225114,-0.8557989654701172,6.210629245235152,-5.708667538718497,-8.918236958254798,-10.738589549767417,12.81309389362335,13.221036882697888,7.836262276418457,-22.671859460223917,1.9157807576389456,-16.87738412588226,1.0286337312610718,16.257064915914643,20.091962216661262,7.597696277072705,14.446508501579935,-4.086301798246785,-4.493308686264844,-6.08241876058487,16.97322797626958,6.972143293448291,9.041475656976248,-10.118047365277356,5.335599265793825,10.612953926421664,-8.96018075844133,1.765026404146833,10.113220704314978,15.974263774448522,9.00562165758195,-1.6636542072701765,18.1768573817754,14.852863846103817,14.887640521267558,18.49512807966184,6.974426789009488,-13.876089160237887,-10.51603542516383,-10.704687748189599,-1.6831755281531136,5.1120135706605785,-3.6798691349310704,-17.389215871996427,6.124371086080577,8.490922150405366,1.7551223158181541,4.14157557204173,22.036580774553226,45.85338033470057,12.843607584409167,-27.403662470764917,2.757324949286783,11.009233473702578,-9.133955231855785,-4.747049454218406,-2.467290446468014,-3.155982772461758,6.719303544550268,-14.850673933163959,-23.88170365818003,-36.64136319130932,20.53444323613966,17.47251331146623,-14.206469475159006,7.035295015236973,12.520792256994516,-9.478320844762775,-3.7436788624632107,-5.490476796148819,6.173252903490574,-21.520503799242732,-16.594083549017085,7.29387305128993,18.304809457760207,-2.975528456681099,-38.498677927953565,18.001623061402718,-31.743521046382632,-2.572271317865452
121.29979705810547,1.8314056396484375,-19.792689511964795,0.24391093689512378,69.11613333355453,-26.528822401118546,-8.187360136117556,-31.437369261122925,-84.89408387119926,-26.223890056129726,80.19153649055167,5.010824066100838,-39.50648694870896,18.55930123161928,-25.567752933589546,-4.909077717458352,-47.88944601211672,-58.190117335988276,-90.1519182165705,-13.38741663922594,-36.185868540920374,41.89375178042722,-72.48864165156499,-74.91236183738962,5.5960709413304714,-37.31982842049667,74.53758861445228,18.215316266354932,-20.709755662184676,56.92985002286554,-28.265884090796103,74.15102540570959,35.434607986049116,-0.9220466007112798,44.25535905133643,-26.729027082850827,-64.71396283035418,44.34098490152882,14.454590511408053,-68.05396571163213,-97.30121612750179,-17.15117639731811,-24.061520317599708,6.385289187780373,-52.24602686371104,-12.870300461764616,-12.953276370506416,-39.68330687779824,-10.37187464327613,9.697064217001593,58.96571799843656,8.428217243694457,17.057980667258022,29.24897363174817,10.438130165175847,28.413876722816532,5.577058989868986,17.19857346841368,37.03347966441139,-14.958641788512644,-10.542286335101975,-6.003883180885257,32.65258569383816,1.7528712483977706,11.710146750151294,-1.2921475469390065,16.872357218730638,-23.653528032986408,20.901728698554617,19.68204025624856,-3.1209383731810414,0.27344199375618045,16.734014495518146,16.436338061730826,26.43295263466088,-7.6592980086810485,-10.722272410832229,-4.918374686589491,8.580404065839629,9.567096253047985,-18.275424883577216,-1.1456286911594948,5.914113603040618,5.493481825989019,-16.01801894312368,-12.970352368991714,53.249508564583735,24.1155090142616,67.04222664808184,-8.257068885603033,-18.97454374510911,4.230702163180733,14.504275190236346,29.21565917209171,39.095616285770426,4.52336259803305,-26.530747551935548,-33.89936566502792,31.484024241001777,6.102161276068361,-24.891354820643866,-29.758127910595533
123.1312026977539,0.6909942626953125,-2.749343587305354,7.769490237273519,18.668935127343858,-53.01129562223126,51.681262561779185,-17.86637455677717,-8.241981326153187,2.745649029805998,-22.014529325559153,-8.796099488413613,16.321627778249745,89.66518147469552,-14.85853897216624,24.939529517502805,0.38718829056449433,41.40878122325548,-27.209577826325038,-46.18955003963206,-9.929026270047316,-13.77540688015243,24.792054233067855,46.755727245933684,33.82078494810592,-24.42333587728759,1.0674677873292477,-26.56063095206607,-1.677812594409378,-30.93511100577661,-12.759106086516802,19.897131216326454,-25.583810164344513,-38.74980852653751,-2.4053656478055467,-70.9860119395221,-55.20912320957326,0.8024485323586736,45.21979573813288,5.831403848514329,-19.42354763352916,0.7130799502419495,37.31218836565381,2.1334576049563374,-15.375602452934395,-25.977329558789467,-27.7658111041794,-9.26577638764498,-10.158178870576727,18.717718282521133,12.075243987243624,-6.887908962877037,18.979303680681102,8.626169167463118,7.6771275331270585,20.009265449183662,9.514775206680602,6.762434305461161,17.950336054680072,-31.45513081634913,-10.064455446996993,-2.7150597540082537,-19.07952124477976,-1.5103380975882175,-28.88942714802511,10.109501468334347,9.084237436145125,21.54371861942807,-7.759582358788748,-5.9789338953484155,0.20450214094093466,-21.412736779891453,-8.21767933683661,-28.04543055811134,4.635547966926831,5.255373479468372,-11.621071676637738,-8.614349715124007,-14.320237218311323,3.2576717757508695,-9.546162304431201,5.659589375157612,6.523117241708924,8.666044456276644,0.05248611544394777,-17.549531171107066,-17.47433219154948,8.618989408571236,0.012551652168313332,-10.233727059442064,-18.572443651635183,-5.643410497651034,-2.0666967326118963,3.4655143419635124,9.09672339927761,7.371125785263084,-24.51238985993704,10.809995286482632,40.3748971342802,-5.448962516088362,-3.0682563717089586,13.606588654253098
123.82219696044922,1.241302490234375,10.74068847182624,-1.5755159779465568,33.35359811520405,4.493235310584939,-2.513146703363919,-14.162191263143997,-15.212939817594897,18.57971555961924,-13.822173152299952,8.551254327425024,-42.40932546625171,-10.144589210670958,2.152529127249746,-28.726434824051495,-5.820703225235957,-6.672908414088859,12.980059728135041,-32.02091883313792,60.62231596213287,-52.66979201807601,-3.3628819142720734,-2.3817638508926136,-19.96110716210717,-59.48236328995174,64.31146550101364,-56.31824095353179,33.51075034246054,-33.33750407522838,13.757628087969024,-44.63523879840848,-11.724069533662048,17.90015637830008,-5.946094169456564,-7.637663587135757,13.350212351097632,-2.470656616165929,-5.3365883150473445,16.69819630001102,-44.34910778061321,-15.239149050933158,3.4953578552841167,31.55485241761721,-18.849033190270056,-4.5463711099925455,46.52380771997716,11.334345124925497,-76.73545120845183,20.109642786480265,48.162811191347245,-43.27733818372825,53.08483410548744,-46.03275015749837,48.57198512018444,-25.259905245984243,8.649386057768929,68.71592845005011,-59.61295992917553,24.241017847313394,17.186231094859792,-1.2931836840809927,57.13952076250965,-78.9391410601668,4.457555835895995,44.40322903334231,2.378442891105517,-32.26691787322952,20.53243565079134,49.81762014120107,29.473115779626017,8.61458015675558,41.35111045458259,-62.311437181623006,76.94290060301267,13.349138996618702,-61.229953365839634,-32.88558598236074,-71.86123149798848,33.56416720531814,52.601369609353256,1.0127625725951859,15.012454382876278,-56.482061142453574,3.5136217005616475,-19.077885962455024,30.366380957056336,-38.82121767955321,-54.45211092968728,33.25271499962186,39.182889175961876,-7.495611488345357,81.02371187020337,-44.64092276009299,-52.811719540106324,-25.80439488841195,36.78673164930853,22.023636256434237,-31.119564033243083,-59.11948289643639,9.533665054513921,8.962314974642595
125.0634994506836,1.901702880859375,34.78485354946696,28.875370912074334,-33.95579108599045,57.751605961070965,-28.203399861446584,-29.888901005707325,-1.1326990052688477,18.83673289125879,22.470151450884416,-12.855144566370896,16.012576501582796,-11.199988014055027,-13.473995497021273,1.0812885699209456,-9.586412507607355,-23.98316200072902,35.70651638285185,-33.55475248067091,13.643813526869183,-3.1256704816338647,-10.556199712490153,-16.28380840985959,7.519877527118057,-21.587950504681316,0.8836401403588684,11.962299758833435,19.98115146138721,1.5050433227002649,24.842862532353735,-0.8610175379273424,17.227476776517673,4.602519896818373,-50.05138342419812,4.189465060352849,11.84649025166931,2.587321238084124,21.44230760013626,-10.768017926155292,6.97115881431749,16.446052250219587,-1.4987505868589288,2.545973431348121,-4.037086516660087,-5.874005499357378,-1.1946329779783462,6.228375098207887,-17.73672792167516,-8.915632031893312,-2.253544914789598,-9.681828331208786,-15.185269090574565,-26.383432522750084,-0.954742009327407,5.900704349383148,20.580219199537648,6.088254028444153,-3.2530508455407343,-2.0154250863309464,20.567388862959174,4.15284022464091,-8.281480129806639,4.530838026502759,1.676436795523978,-1.7633526898169318,12.453480142381602,-22.550950967767616,-8.00140454121456,-8.381463266421568,-34.995448093823846,-6.123502038467205,37.65581258473282,-37.69229451642179,37.5801771214355,13.510139922049838,-21.59956736538852,31.78541251665078,8.445327457684959,7.105346208049688,20.92361978861706,-32.465429340808214,-4.17826387171982,32.886978748832014,14.447549035458605,-28.914421944770282,-1.6602627177898195,6.923021994776364,26.50142531479664,18.81138335244096,20.603036288152143,-12.949142654351455,-6.184056224222183,32.632796416336376,10.786156524243381,19.47037556228233,-2.0534288678080763,44.811641393852156,14.757443812756383,-5.844710455029089,28.17474906609299,-63.08101043748717
126.96520233154297,2.4423904418945312,-70.11054645337208,11.293282902725869,57.55656015652637,-50.28439038199102,-38.34307413518212,19.07726477622314,30.11447404546016,19.679737321017825,-2.739403160696174,-58.54060806993545,50.76807305692728,68.44073951912665,37.073473755677554,29.99609862622926,-4.46171336975122,-51.56801264922442,-4.648544466911405,-114.12355058431257,-20.859012899057884,34.88511512324729,-72.54238869350101,4.494894011398248,26.904602705963534,-65.46433875959812,38.58964694758353,1.2675018856895321,29.699432750740907,19.076720125123224,34.470579794729375,88.78235029814476,-38.359500819653114,9.873724625304735,14.820357275363694,-15.484950886544883,3.71518832044622,-3.192128900223178,-13.694443412345422,14.683303063339405,-8.419308682523525,17.7075655859292,1.9442272982428506,19.15807456560512,1.0286408156165092,-4.096313537351099,-9.668489297196436,-6.698970551398241,19.37719422116393,3.005969935943744,20.36066403613793,15.22477946388631,-5.39752223521663,-37.73174415400063,8.356980624920958,-6.887526230088933,-9.72124128732905,-3.664479798804306,13.35300055402845,-17.974554642822216,-4.812299323719011,8.290365250469922,2.2179945531206,3.2468991656184456,9.630651572388881,10.508003373753821,-18.37118233720347,-4.881174429035459,1.3236590222837092,10.97495913955854,17.219049778721818,-22.80176748123439,-8.097960654384206,13.654221521682654,-12.134193561256021,8.964066111161836,4.129289626306079,-10.437860492946456,-26.883772839463372,-25.859376451211414,-9.337086166456178,-42.175548323577125,-39.40728742664844,-23.200910386665495,-7.5768300788571326,9.773402816796665,4.375751171421781,-3.6810916384490184,6.461479532150262,-12.926736458949172,2.3235945189122273,0.668884424919354,28.162637451797853,-8.168988177487451,-14.440588173774364,20.40770343408549,-1.3525963390428375,32.96480661978499,-55.84231012100708,-17.176007210057815,8.051434333385291,-28.4548319014465
134.60279846191406,0.64080810546875,-10.301607320768596,7.383095117333023,20.664315013561435,-9.997151532530491,17.29491682428285,50.41620811807442,41.59393113046404,19.091290478053015,4.938253130457044,-53.623933808657945,16.942616479810553,-16.601979371635732,-23.81853206345055,28.308230673419402,10.517951750695776,-68.69718043089495,-21.021689483573205,10.774575443113163,-15.661483244374317,1.929697650905922,15.557282690669602,35.517019918791156,25.235131521325222,-111.41201321715279,13.10483103044016,55.02303439174844,-22.44031046922467,11.276040238025058,-70.8412495936675,25.55515452179608,-37.368382285822946,40.32181078267306,-9.416120097644042,0.7980530025482229,-31.385349921034738,-2.9936679097553096,18.261728624615237,8.863415498058558,76.12142768399488,26.123648967414233,-2.2442992368809564,8.197064096370863,39.91452521869263,12.281374666905212,31.088430935114253,-7.719040891603633,-6.974205867590298,-12.864358795579586,17.664812603127935,-25.230887699195844,0.5409884150034989,-2.0373777081658364,38.54610395146048,6.2449808273449054,7.893443951190016,-1.8368369178697121,-14.598696340965422,2.071253255568649,-5.583418959621667,8.642942702209787,-0.26816512383702873,-16.5309644272509,2.472067145359146,8.103090672336707,11.077317136148281,-2.4288954197337493,-0.6235286525956572,-13.47064182923557,50.723436910990934,8.920610797215753,-2.083969576611446,25.201080699641935,-14.307172594165738,-0.9095114101453259,0.5622353977096182,1.1279534925635444,3.319599662565754,6.808045603491676,22.713033999067417,13.99488366945542,-38.71926216887863,-38.39637580001666,40.8881135590793,-5.146323164430334,3.939132026920392,2.991645910611818,7.316682330098091,-7.307378965191289,-26.039869243803068,-10.539697508105581,19.369310861401825,-1.6442829894930169,4.853813322449442,-2.7441486890699958,-2.035200825441768,0.2590175971802692,6.612661839371034,-8.424993430859018,2.70303658930525,-33.300931290587975
135.2436065673828,1.2711944580078125,-42.964861486455405,-26.702606615730474,11.964227276931402,-5.263277988521715,39.332943212229274,9.3431112734829,27.79470272804885,-52.54490219224132,64.01036526757001,-34.27424978967,31.438415760998204,19.473009476989603,38.64074349188008,-19.186800782425387,61.37057994845405,-21.598334566293094,25.932439584244477,51.620006699131046,-36.60742195989277,72.03205070818021,24.501250148296723,-40.89865919579493,74.91309810276107,-77.3230405144291,-49.13287568326284,46.489766339065326,-18.084191320064672,-26.297918548140878,39.64133736008857,-53.266842853557165,-30.714312710696568,12.873807415355266,12.64745100623026,-48.245686814883115,22.321488913576953,-24.226045984949646,-7.393274622329984,22.192700088108538,-23.681113771518255,-45.39786327883529,3.703701511927268,11.524804597581868,-25.991960307591157,55.17645102625768,-23.406672605477535,-6.988223840464351,-6.279381317994533,-0.698376826055455,54.31741359792437,17.852363773495462,7.24526904885415,-17.440749780230302,14.78895040779357,7.117102855371067,-27.39208307503579,21.63052528131729,8.142724438083672,30.1963368360908,-41.02422090680473,15.468673487694842,-12.070628707088067,-7.3329010282940015,22.459019792416917,4.105764864220446,9.89988310523902,34.09532242049716,-38.98183819845186,76.42633603184126,-77.8380689455092,56.1065728997262,2.159338915381815,-15.808924906281193,14.98857950007235,-31.253921224458164,-25.654412947821072,24.24444340341187,-29.823290808768306,2.7305731893325778,-20.10078318731734,-36.063801463138816,-2.594170217626419,-65.26449878210506,14.3182678250898,-10.92498167754924,55.56762457788733,-51.34219906306374,-19.48575866470959,27.6489198114758,-17.156843341536653,-82.78584206873342,61.20100007721313,-54.187308935342585,29.87456337455825,-55.053578349686184,-1.36408751092414,29.76821825579286,-9.745385586204783,129.86656319716084,-59.5558491567054,1.7918937890538729
136.51480102539062,0.6306915283203125,7.76323597352248,10.051519022249105,3.953257027518903,40.96810304473841,26.70926692624274,5.873865807591162,-57.241738566022796,-8.819602234892152,7.50556784726392,-21.788923552464993,5.467030381385022,6.456821110092433,9.011733227792103,-11.641980170320544,1.320028163429923,-32.07784811713769,-9.140289475046162,5.967696635886238,0.23013710124884046,11.32293481183263,-1.0296794083753125,-2.99856911355538,12.71987851804175,-18.384033926209696,-11.506682976599526,11.692745386842454,2.1584202550243408,5.68152987578924,-8.962125916579653,-4.571678330843526,0.61465274565764,6.996922393913145,-2.7768926309867004,5.534389613061305,-5.638001404806651,-3.8378150939722335,-4.86486688533687,-6.663091661879922,-5.048550771540156,-1.2773705825830677,-17.38115405625832,-14.152072174154036,5.953404547046498,0.7250023118190914,0.9606649349907315,12.89454581082695,5.663845925190819,5.997007295021314,5.6014867111751,-7.003384931072542,1.5535602785017972,-2.1091552249124463,-5.685069029272097,2.0835611999840262,9.304549069363956,6.561370473647951,8.69352409241043,5.999583884130438,2.4828103349711235,-8.862258451616597,-34.00211450671429,-17.591471427451648,22.536800435646406,16.742580921142412,-21.832561504331643,15.299016050573556,33.115374849448855,-53.683334104814705,-27.162767126575464,20.804133887208195,-56.4664189915755,-22.65044784834689,35.87980769687388,66.11449624479076,26.08837402931014,-24.99908835254511,-19.404816797099414,0.7227734369780965,6.999401981109696,11.55337327404424,14.16828849256413,18.941374291356947,-7.941998345431565,-23.38798947401401,0.5689214230225573,-4.467752093654774,3.1840830530879156,3.9964214815159433,18.485833123263564,-18.82811159388428,-18.789844525644874,-10.75381391027714,-28.899585160096947,34.68610782350707,-4.216518597613644,-22.21610542919878,-11.81042206414932,12.163883152627665,-3.6577039097306265,-18.659883026513842
137.14549255371094,1.3311004638671875,-12.427204462262917,11.428024215628351,-3.5945016907605556,2.360914327595154,-7.400733890077437,-3.707883623697567,7.664839584498695,36.62650423904217,-44.73026055385836,38.09990874404845,2.7770036084939993,-8.771388163889354,-39.32992106414865,92.25168060078799,-44.58540092986448,23.74892628359622,3.8998151155236593,37.4478091588388,-2.229964507373353,-16.433236558181022,14.237222067476603,-1.6571225078039236,7.936707331241188,-33.11689625524819,-6.843951872223127,19.429052975347403,24.857887424911493,-1.1570088850313276,12.202497481920613,-12.425695275890401,29.49183568142113,-34.55272260349356,-17.380906144504998,21.41025653103933,-30.82459756791646,28.90265045163045,1.7693595833589377,16.017963993338633,-24.46502697842254,-35.87679545476702,7.027763424522175,-34.53822915859116,10.922362952561155,53.43086016883639,-10.511687323538517,54.44706220647634,31.63964536341636,-55.207536846821895,81.30164767561791,-74.62975999461126,0.674253524337006,45.694847582957,-31.0078363404665,86.70371761944034,-36.49799203362149,-20.76957433467605,14.967786154787861,34.22749388547423,-11.885314205159586,66.05891714623,-30.26102798650584,13.221153107706273,-10.782034548896522,-10.563121151006388,85.53977771410638,-81.76357752938198,33.0700524249491,24.05933913995048,-69.24278722816335,63.96008337256247,-21.943418364739134,8.83149345527871,39.50126999531341,-39.73000566794074,16.057600786032996,-20.524739378251038,34.59798528873764,32.95843803842287,17.264636053532385,-0.4687819707354155,-42.13810809087282,-44.642003923228806,9.634761022768593,19.254239167713056,-26.407964872820713,-20.51872123931092,-61.12768029531063,6.924675677172813,-24.075189681990203,-24.6606670657275,-80.37197722810104,92.527774616399,-83.8246842362726,27.1265083180515,27.860220631926975,-43.855624682116215,65.24398415849508,32.14152878770298,-101.92500966007002,75.87737891337983
138.47659301757812,1.8719024658203125,106.15425773022542,32.8162905384764,18.873839489299588,24.211856951816983,-9.691340285641873,52.15152015660417,32.32644608037646,48.58341392480767,6.864780698772844,-7.271261718998359,-10.540476248500273,-8.72941087546979,-6.256682241335221,-34.10771945694056,17.296347426353304,-17.90903889274893,6.25624458136766,-2.3613131252455615,-5.644959949337499,-1.0234388844832054,-18.86553559307871,-11.003178654975551,-3.584160984831507,28.19524857454062,-10.107242160450692,9.74474696045418,10.251468284692857,-7.767525256142132,-8.19075083913217,-9.10223733762417,25.3526506244308,18.685994001424078,13.08446488635769,-2.3469996943429696,-22.278940793053103,0.7240281373383053,0.5940883217796395,6.284385511018701,-5.19684430927802,-27.928291174839256,-5.2536584814824,-4.410931825999823,6.813846255827131,-14.878178169501727,-20.425515934050996,-0.20245837466476635,2.7933045019139575,7.788039625034106,5.213613457709908,-1.1608879076659318,9.002823680544653,-6.3201750173479425,-2.3305926663099665,2.8031815910550453,-14.975011673291242,-7.76310611267583,13.166729294474763,-0.3307525138452636,11.309003443685151,18.076339490684102,11.57767454429276,-3.500498695942699,-3.0104932134902667,-16.00097129548488,-9.653773132941883,13.325849490435452,-1.4635544596083443,-1.2979026536826836,-5.598707713565076,5.125699624005345,36.824539946619595,-19.670453887252712,8.29542260019438,39.95504934384459,4.845503820078844,25.624724166702833,16.741649863307828,-10.8940566556143,-20.403335013137905,23.68618082357774,8.806503665899367,21.556036374684858,15.958267006113271,-25.167193131437685,-9.873504208269566,3.4203924716994214,28.762260903892702,-18.859174495076303,10.989229694986316,14.298037988447652,15.858429164916878,14.016453551104878,-23.744186828305516,-31.25853199919294,-11.108167669630436,35.02898026763011,-31.00761790744653,-7.384311064729498,7.920963631834698,-100.95543754773081
140.34849548339844,0.6305999755859375,-109.75426030312745,67.08062113205192,37.446613725290945,35.9810605799507,-21.089139585796747,40.524408463235595,-43.95118103539563,-45.13162070330981,-42.78977629947256,-5.9796224780812555,-36.84954547943695,-55.49961216843832,-6.743604400121735,21.946458575931025,-29.316047324895628,-4.178862563438248,-42.15085401818288,2.758786634743627,-29.36623642531088,-20.98438126835898,-11.287529365371974,13.376081587118831,-20.268589480336335,16.149384367298335,40.399080555919454,-26.642384798817787,-34.03835553719558,-62.56146693042943,-31.769645655024075,55.25963198229554,-60.466353928373636,20.05637450054829,33.11376445732208,72.36402756100432,7.005749646771185,-1.4785158413422357,-19.99505508644993,1.985350938022968,8.112413381351015,-16.415767296015876,37.31076064938766,2.1583435709206418,-15.176254715582484,19.233015309263216,23.13985166112238,-9.270405046705884,-7.351165946116488,1.2575405521481946,-0.06530663479836529,-16.829883933137207,-29.472052250645287,3.543867694581019,-3.6246605277383512,-3.0050020258037944,30.58775416110043,-33.20539015399726,5.27591913793868,10.288432256059856,-15.144222983561992,-2.3449367555436043,0.81166765891867,-4.082980497851109,-7.364702921840133,14.869850184889671,3.9670226945471696,4.581123479207691,22.885337991593296,4.51888375670656,-57.560474712360886,-18.001975743365957,-7.0210782130026494,-18.841640933909474,-9.477919749924267,-4.723387163769623,-4.595477040529627,-0.32145404000964395,0.7889911582738836,5.85422069520421,-42.49580183333032,1.973009352816316,24.555214819600028,44.386056855585544,-40.94441444872434,6.105519313255872,29.05027832033098,-10.520138580886798,33.24737640323851,13.610023049791828,8.907934327424629,-6.028886594646021,-2.686333220389563,-24.462927472649817,43.68827246808152,-9.297230625852247,11.335566704832319,6.9412479872324555,-6.07115512208582,-11.073155436837002,-23.52334773344331,36.91112501949183
140.97909545898438,1.3314971923828125,45.362069562107024,-58.994561775275535,22.386018438280136,-51.61888325099721,-8.895745647390147,63.168011252558244,-30.419986741564582,63.28892182644623,-27.215753476467114,26.672444185947622,-40.67817126579973,-16.166682751342,-30.065967994101783,-11.280557530479697,-4.904935450478408,35.180203773817524,-36.55563477078619,12.40163544532862,6.575001843819894,-9.616262926236022,13.547037829491233,28.450377686692097,-62.73503826536645,31.34609560270534,-14.418480730427243,-45.45511093520388,48.209847675577386,44.61873552800592,-63.47070614829704,-26.07795512513205,90.8638684451698,-62.825876919453606,13.463464540165543,-5.920373501657709,33.74248537748131,-43.87408724992456,43.82269358460911,-78.31744124472861,4.9554695408980045,27.0688316830193,-26.655880893130107,-33.33761440124259,28.573252083692754,10.946527728391167,7.2722162123111955,37.46450021067637,24.531853126726286,-98.53979942391008,52.88622367886561,12.507954888996801,-34.845072107102084,0.7228522508781241,-25.296122242469337,21.41044225768944,26.001521768288967,-29.59507705629737,-3.168772774642696,-12.786774985666229,-9.028140257937423,33.710844801417586,-23.87652636488195,56.45403604496451,11.269703064784784,44.66884486557224,-3.448475560945546,35.32494346166793,-16.408883490999745,13.043493307584923,-31.278638737790544,7.636950524999168,-38.22151878649245,-35.62705377208511,63.13255564452415,-61.77201322842834,54.962047133469405,0.8352645154612031,12.973740353952936,39.94071334429383,3.5831643047308024,29.77571371161425,18.777987738354035,13.551230557038622,-37.63108558769733,66.98028795827076,-53.74574508102557,26.62920117093418,-4.852679610817109,-21.241886922634745,5.315126836194004,-13.999473600875373,-37.309129239698834,-1.184612763798477,17.894623555634826,-15.822208330693663,-89.82541060149961,66.26391201433538,-50.714321469506395,-47.905692518714176,-15.835654899613168,8.66916509165205
142.3105926513672,0.6405029296875,-38.60320858793584,26.458909645258657,49.52192057962593,-0.6553297551534907,-50.33471464215262,9.462520888097586,-75.02948802360069,-13.999981551321296,-5.664488231281982,-14.096005210755033,11.279482241462478,-6.327230519401597,-0.2563961409031754,-3.81027713505319,12.101774983317126,4.383234693428831,-43.13464958002318,36.717104697248814,10.602373058502272,37.65280708214375,-15.550179252113217,42.14219200960077,13.49351245422276,-28.32509098482747,6.292168170562201,-15.114288027653807,-5.672548968506524,2.809693430270914,0.7032858297970723,1.6966399292963672,-0.5632886327649209,30.41797592533553,16.472502159551524,9.290278781372086,-8.360792118577312,42.727318269359465,-2.746823364133969,-35.034155509363295,-1.1238360653035802,-18.713895422918775,-7.129509900319723,6.771112758574252,8.631543640881613,2.3420937304580955,-0.7334966372098375,9.93966919196431,1.350433760509142,-6.1386096785329105,-9.105867608883475,-28.43613115535156,7.510258680918879,-6.560762719361042,-11.58498549982824,-10.75037403477715,-6.461140397791715,10.042288402472396,15.03659014179901,-35.14577715429712,-19.856332614106957,-2.599841555438354,21.40219965578701,6.301643420699728,-3.2896145932419465,-1.4567828308359054,2.212106385507486,-1.2546052565790937,6.300065440063238,10.731007106239224,6.001997681281512,-23.484016256091124,19.34829282649157,38.583442253527295,-66.87916661691818,-43.9383763264659,4.673583236270886,-2.27228902926371,42.54114515138043,30.8896271243015,27.74069090106329,-0.5700093242821476,-5.9778286872064035,26.044363063770444,4.845370779788432,-38.85458783248674,-23.519255760742475,-20.101262475142917,6.913832445309924,-19.627872488891704,-9.887888728571594,-47.47071917624788,-10.221785764096424,55.24234045194592,17.81497682053024,-18.120199949179867,24.90514551877291,11.991401946248587,-11.799318446193364,17.043623176598963,26.96847320850968,-39.36329942863339
142.9510955810547,1.3014984130859375,-41.79412197324457,52.47100558033451,-54.4927331680266,-1.2036136410850315,-16.787454994268437,4.074449783655162,19.43617472247202,0.9262355696167082,30.726834423432667,7.986405271348959,-0.11600827208007458,4.085300711294062,15.319461320738222,-46.49739836854637,15.07700587455296,17.095508755485586,-4.737974348477739,41.3193423670409,-37.43091369538527,11.928245367336409,17.90619805359937,-79.06925817930205,13.364229464963515,14.5723004466304,-69.90619528695521,27.1534142338906,0.5867650862755545,-0.9026799474200171,18.5300698095364,7.770265172541357,-0.7820276097347989,50.973498986535645,-26.140220113016746,37.158153385006536,-12.095008578669463,14.643188672429705,-18.311782488605765,26.623056879974037,21.280000645169874,40.11725276674814,-63.29690873144111,66.62313306132982,-86.3344027864587,39.28871172131825,39.716683479592334,-11.995451639202656,-29.2645881783042,-11.12968581410029,-2.1912254146312797,34.283228436281796,-19.618309941734925,66.97740286257711,0.960414950790625,-54.03607084768255,54.702065405062655,-13.082080236357339,24.580835222223342,-55.498322170534806,8.299791486821722,55.70774975434734,-26.922547492295593,-28.228372401429368,3.4156205883798165,27.277200883124813,6.1942895647282,33.69524840875787,-57.31055195955878,9.707687605795702,-32.18192411348759,0.8796299246391941,-4.591915346260686,30.01706862410394,-6.005978903317781,-9.01214824485232,-62.93107857368563,18.776126503114448,-76.80965043427233,57.507607181952714,-79.22567213529545,67.68108521554608,-96.59367106658816,29.307997980650924,-13.433382764178173,-4.738897222367358,-40.51181891252333,-6.808617285998634,-52.21937213644106,41.32227475182361,7.6184334015808055,-1.9293125900547548,6.73279706582423,-115.70794143231662,14.297928079273591,42.07386442725278,-25.143632031865057,90.08406736837662,-56.930239912476786,27.64985738563671,-38.697517280756756,25.007576458505664
144.25259399414062,1.931610107421875,37.201264728047306,27.380405288647907,-58.26171648355398,63.616430064663774,22.951882972784635,-23.586700667529563,16.620011914399296,31.11394481913008,-9.210032147121973,-7.40845847492376,-0.6541518408474651,4.490188704846574,-1.4709617442100338,-28.134102263890824,3.8066442358153223,11.192150433423489,10.345664593726159,-18.152220334937006,-9.301744841176355,0.08670596603818392,-4.5236333253206,-5.401839529827979,-8.009368023186013,-15.063846585114526,-19.557340892122255,-1.515655805578334,10.69968271550469,-12.327712045655979,-61.2881879781496,-0.6126296408211669,14.74303526961506,-7.411414067980022,-11.479130071839455,1.1463016334253193,-8.882322915878476,-19.196427823162843,22.013838117194915,7.279774900855057,7.7551051249337615,-2.9070006360959084,0.3047476148109588,10.81884759612621,1.08627603208543,5.087123797782654,17.271237369307244,11.930832787197321,-6.218999501573782,-22.612807143507844,-0.6829717552446839,5.993052082306715,1.5562372983342732,10.700142909098414,-4.636614731325889,-22.178848139498243,-14.037115587535723,16.04422120437729,-0.15598722938535942,-7.79498647235005,-4.861704053961293,-0.8763434888370014,21.250746133302037,12.285850499147006,6.025574198903211,-0.025349113761544473,-1.4000248571761587,16.236535179609923,26.228268301267033,26.66080288985498,14.06220684127926,-12.408174738181073,12.482486908714034,2.6341531129679883,-7.800246892617536,-5.337466795014798,-77.95533192700114,6.7105018948466535,-11.064699607612436,23.78133064857029,-30.500934274893062,6.521906316270435,-27.76417121704034,-18.207231320704278,-1.2597047123661032,-2.6099774514352747,6.896892428894526,17.028642367184275,2.7223569176633715,13.245981320716945,2.3854412156876537,-32.75269827092801,17.57944384711004,-24.58220645804989,0.016079278552538767,-22.444996503680898,-39.58802707851761,25.05452303928056,28.58959730818422,48.93905235647728,48.32059306370513,33.902920205712064
146.1842041015625,0.6504974365234375,30.47077740293782,-18.460972611186868,-35.4663867625479,53.07469601130991,-42.363733067835696,-45.25356387297266,13.4035017511115,21.135666106052202,-22.452941883712576,-58.06732095057534,-98.27948873265035,-39.129115716871375,-16.150238783006827,28.014223220285462,-7.519267957364868,53.600855514602,-30.24406021677091,1.5273835017535153,26.849043882393175,12.004981224697953,38.014507699577294,-9.832509077572471,3.912385309065106,16.4207201838501,-7.264443978658317,1.522706236909603,13.050448712893322,68.15768032486467,9.595851071416925,10.503331463860432,8.060138218906559,28.5079838530371,15.925746228625918,-21.33993578798386,38.52474828825944,34.205953685234064,-36.77093753509601,-77.56202505001322,28.589528700091883,7.1718930737122895,1.0246347430100768,-6.945695596634734,1.7503952960315297,2.5595357974812942,-6.174709989016122,-3.1851361056292076,-4.876665670869082,4.8727969404330675,7.236469734851248,15.006500825116325,-4.390655712521761,-0.7603403086413758,-12.6148180694683,-3.791521747856174,8.362614737929814,3.8700375224348686,-9.559050352303014,2.3890118161892997,-3.1508454799958616,3.6003113916743494,6.674186078397334,11.971513204525271,2.602711354774079,3.713263544455544,6.500601647390299,4.258681721796659,3.2214010858082918,-5.652447431374624,-9.448723018047911,2.9904613127462074,-4.25678308672101,9.988141154090247,3.8690967195237675,4.9247807544801745,11.358335795268472,0.5463002035611262,-5.4884896999410655,13.023706757818255,28.804068740479398,5.047039096280773,-34.87201052128762,13.172780748501978,-4.098802711710484,-29.15351502078508,-19.15198048149972,-9.561464825086551,1.2479720419592084,9.647492921957307,4.671883822840736,3.5950788934670284,11.481405894615783,-1.837636304501137,-13.331023326991492,23.738294017772237,-21.317931979494798,-32.090949375703616,0.9086965230009714,-0.6538897480151574,30.092654051458997,-62.309030207698385
146.83470153808594,1.391693115234375,-63.361510185973124,-9.993139793180049,-12.960688787283363,3.7279832477731247,-5.206820573681759,51.303293523954025,-16.10919741563968,26.881888441491995,-48.887412187979066,11.658714216422874,-45.30958288774148,97.36112979458211,-24.514618041886397,-10.26687921207847,15.865632133379702,-52.624171621782864,0.7223630951022031,-9.156645531468328,6.329852603188861,32.509578151913445,-84.33156195631821,17.29076350214902,5.337023308470435,-44.62570361097482,-16.078072899505063,49.048689158486305,-77.66708195218945,19.623046007284564,-10.970139742621667,5.464914647567884,49.57585600316611,-44.652918212245126,-13.854171054980071,1.8404245977142346,24.272738118479726,-57.44522715673068,43.063173909595,-42.26447534103251,7.733912571925416,-35.32968059382159,-13.68147497558034,-9.151957100011881,-16.542450460202275,-1.2401813877299306,-5.713131944651728,58.30294033276074,8.195271530803732,-24.185641239166255,21.734091525992937,-58.11012394739994,37.2165122121605,-47.638575968501314,39.151110248984324,24.718120345960017,0.6134500244582348,-10.379039609084366,20.603248582952055,-23.328403481877032,11.769398446940093,-28.32044714342624,38.97420070873488,-30.38508319781451,-3.593288564658259,20.194398693273683,23.880463777740257,-41.68334374059866,-0.4082905574406581,11.371117759596068,-8.143833577936878,26.956728750911303,-19.43389054481013,8.430503795674138,19.448528889626697,-37.235038955770825,66.1703350178403,-37.88470569815581,1.1651505623805587,11.291855187809961,16.12552227322898,-11.135059660022273,1.6234754907229578,-7.619254893138336,-17.609356429186047,0.783197996596531,40.074222029746096,-14.6216957542063,10.111489876397037,10.196281578378409,-21.40343153477093,6.046346345242156,53.04047677996477,-48.438763687727935,-6.212478654499185,-59.458971285221004,32.756022014984865,-54.53836424285298,41.08985581164543,-104.48499620942115,45.57817517107102,-56.31920324479629
148.2263946533203,0.7403106689453125,-39.96903275413399,-21.724882976599293,-32.54992208496719,-15.732839173964964,12.529225760037452,-24.12617405604925,-14.600388381054177,-27.020752373373192,46.030256704751494,-18.956989425731013,-24.592827725783337,18.016215239915297,8.613022446136767,-5.373903996626268,-4.446993038102182,24.83423789918964,1.2673473181767163,22.989210547359693,18.919299378788768,14.56127374464949,-28.00982714483123,10.898072479378959,-19.78255460355552,-2.2979192599610636,8.395266293046971,-23.881605522746675,-0.9565102693325986,9.261147704849378,-22.315749801547756,15.688434470121017,-5.435607043525428,-12.12009354977398,9.78251555113464,21.631545931286453,-10.16061479979929,-0.6027923771286421,-2.11395809598291,-15.646923197776806,10.237819594926913,-3.8807742346274754,25.054839569198528,-2.8374875027563276,-10.105203688064124,-8.59726867847285,7.763668573625147,3.2266003004474766,1.7918624692636023,8.382854004737894,12.922681846564789,-1.3342939736051624,-7.860602666259721,-18.746204561608778,-3.1595046040555443,6.275080541139954,12.311963107349193,-5.9436090706468185,0.589527258227136,12.118862540199494,9.174742400120762,-6.562089066367511,13.56417352065433,-2.204746619905122,3.492357130360233,2.2509489671441876,9.247543467212166,6.012674933611242,-0.32138609943283775,8.478196353879138,21.94019800838469,19.729311570693525,-3.233874563862444,16.32040661789757,13.352227492865476,11.165205644986644,60.631005222345756,25.04553141127704,-22.179578957581825,-12.408956937304051,4.063387489557129,27.681009990406263,-0.20784348504556727,-7.038920158356701,8.471700775877377,14.480444576558934,29.86872658939079,19.428848782997854,-1.2414216062815204,7.56383224934658,-12.494461761641332,3.122899891469231,-1.0552573733134838,-7.086796323753585,24.062363835564362,6.123560260336312,-11.219771909384411,-8.98606864656008,50.20658261918031,38.23563126360213,46.89196326025348,30.709338107518192
148.96670532226562,1.2914886474609375,12.499265521302437,-6.177545766483826,25.339741297512845,42.5362601430674,-10.226931380387533,-21.402958281429772,10.777709090713154,-12.589256353958376,23.508142351574513,10.998392152901607,25.055201418802994,33.328539780730736,-54.91954054847596,25.036490459577767,-56.77296186173346,22.43517239638341,-2.136442894560237,9.885508764470039,-28.003881750995326,31.88123832340839,52.09845855192737,-7.6703571169314895,-35.61076303154149,-28.72425631194575,-15.734754727893819,-39.56369783546865,8.928768972642512,-30.503926227415626,28.6181279695008,-31.42221334672349,-10.066315960316706,45.008458606080275,-4.936745931670543,18.84344682415502,-110.81902402889924,48.50044991802848,1.0620321137966648,-24.81437158817736,21.383979281974725,-9.220300797975943,-46.09920337904415,2.914431482040934,-55.31887647308499,54.01638296264661,-41.56313743444407,-23.998908874764933,-1.3725538878967953,1.474171069413651,-84.92298861864779,113.20493066419469,-80.59815553869974,35.98326885623005,-1.0621298874568121,30.80500204804002,-19.8278386868635,33.48131877277506,-8.971713015527534,21.695040333102362,-32.7275293158324,34.00011211092861,42.589427978905384,-57.3210877918318,19.702156799259818,-3.2358834386062085,-53.75062935213996,-12.282027180611696,-26.802519189115646,-4.126693735284501,54.042169554083884,-12.128638019655787,-13.342336789153125,-31.515317929054742,6.150690237560376,19.333258117460183,-7.497203891511118,2.8303983653463156,-38.74450085391004,6.263984442329037,-15.954685254860772,10.4511782421779,-17.351045450933643,18.558737245274735,-56.227069252312695,40.704451684735744,-6.778393535256494,-27.813169693691552,47.37102783634634,-11.413295141328817,14.608010334583721,-35.561471678342315,31.91416099546337,-19.22703915512786,44.5406810579458,-68.61265854447491,-19.01904901943101,38.782320524370334,-38.524313636779816,49.14379460949142,0.23611631665424226,19.035153102158507
