start,duration,0,1,2,3,4,5,6,7,8,9,10,11,12,13,14,15,16,17,18,19,20,21,22,23,24,25,26,27,28,29,30,31,32,33,34,35,36,37,38,39,40,41,42,43,44,45,46,47,48,49,50,51,52,53,54,55,56,57,58,59,60,61,62,63,64,65,66,67,68,69,70,71,72,73,74,75,76,77,78,79,80,81,82,83,84,85,86,87,88,89,90,91,92,93,94,95,96,97,98,99
30.107200622558594,2.2522010803222656,-6.8819279714320745,4.51629651567925,-0.08566705232537619,-7.951359944228313,1.2824402289851196,5.867271649296024,1.559157907534117,-4.594289624245997,-0.4758894240936966,3.553998981612849,29.72271012287664,8.014193570879094,-9.25801128618123,17.50461361040208,-29.54742654706707,-39.66620965177869,15.029103802830885,-24.418350090845834,5.300932244025142,-47.60614606715226,19.10173420424756,29.90267490290566,-115.51011530902034,78.07095272830665,1.9085687288729578,66.29788059636549,6.162431892008975,-102.03246513697634,139.31179360423576,63.752602744302294,63.042533438878024,74.60920565896618,-75.74410164372856,91.0341794984568,-59.66905512221523,131.76061148517584,-47.61512288562879,-81.88658798447757,55.47881464081078,112.58397122575316,17.32870474292336,30.52601697758656,58.19285587074462,-34.81618448723338,-0.2693945033238899,-66.0030030465018,94.17114550546336,-7.593972790297415,-1.4225021927762675,63.792218329763585,54.63674999858491,-12.87154786218094,94.99201451336855,-0.6019087413156576,-73.60156475229934,-55.251000687861115,4.206172721305327,-47.31100262849353,-46.48378874219425,-8.746885251777414,3.0094501692155022,-137.52126973343206,-17.201025124787197,25.49633840907095,9.433383106471913,25.990514379000643,2.6178862416958038,-54.62128437621062,-4.957302821171659,14.57429131529189,-7.360852698023721,22.73214238337893,1.5117420490689657,4.592054863107595,11.263814378250881,1.268441012480885,-1.7920507357648532,5.928515648045852,-9.214914915546382,9.468774347862112,5.945658555302905,13.150326146742218,11.646133907536983,5.897679814271266,-4.397661156594767,7.625108307634102,-18.02879390248418,-5.493714033965778,0.8961989838644442,4.502148034068537,-0.1669706398165447,-3.9244543516165944,-1.720151720829936,-6.415837325002178,2.8692173031702044,1.2288263789392833,-5.580784579913583,-6.425451915057437,-4.628444911821968,-8.289635828706526
32.35940170288086,0.8502998352050781,3.7388013244013933,2.911322587927693,7.188231717926982,14.347788006250587,4.277315415836961,-4.7070836984205915,-9.932812944277652,-10.519185822746746,-12.96102907439785,14.65458260748499,-0.9711143145163749,10.09208956805543,-8.223165936324271,2.8188408572395858,-9.51244209929753,31.11602812816853,9.226377056677414,4.848841526367082,-44.24247729248217,-49.84582522193448,136.56655624870294,95.80573371751643,-47.70217807022452,-39.767601073103734,-59.03463011218178,128.96261895404018,160.53318259377656,68.97256805738584,59.222651110534784,82.57004353806376,-152.8128810685543,-27.924828350876187,26.527242879696864,-117.62391837331288,-20.472004977211533,83.65880168185033,-36.19702483016933,-94.73994903470097,-179.62191954598492,-95.99781627511267,93.21964923945707,23.06392694705015,-101.13056951694935,-33.49435376334881,147.7725750829681,-109.69289731110297,-39.61955299749509,19.753976960525904,-116.99629233833124,-40.757169969546595,-3.203648803919882,-1.412475302905675,4.568570398472316,125.17072278125983,-34.70704803617229,-25.67587003429771,40.46202378030554,105.60521119283192,-113.51463068934572,46.98680664944936,-34.068158463231114,27.03267719815594,-59.07926411472412,-48.330810059186554,6.154839381433492,-67.08218432561434,56.554069627072245,33.166441032495364,-16.99711176886473,-21.077000091569204,25.253178304779272,21.26717692193131,-3.967866275649389,-13.812464525222497,2.6629018890593965,-6.785788537887493,-19.360560948619458,9.570730911784551,-7.952440354440814,3.5514900470635915,-15.332894922952624,-11.693913463145801,-17.810127324301174,-11.225223956641525,7.5693570702221376,-4.054114699449391,11.100737642356545,-4.8124171398763265,-10.035158257610377,6.423969034369941,5.637246601003255,2.650743637722562,0.05317972144682237,5.514851100453113,-1.1161712740014045,13.730008775445885,8.025166813164166,2.8677798693130656,-15.585411771832849,-4.619746203593454
33.20970153808594,1.4614982604980469,2.6575915626533453,4.266499008952082,-8.301897760633102,-4.504690061620088,-3.853696752876761,2.2946723069578825,5.179610004625932,9.622914747834628,3.133974725080777,5.258451389493949,-11.571723938767192,-4.749913573717447,3.3763443969811844,-10.927547939814737,3.6264502022029927,4.428357545714418,1.2964457757638763,-7.381063853422841,0.21875616907312373,1.2048249935625268,-11.759795409957166,12.504596212386245,3.008475694032205,0.34573459990446076,-6.65601085448297,-8.778104750055576,10.624104587755168,-6.386552255526308,0.0928402466728857,10.626665613059686,31.846922723497183,21.503918595022846,-2.4225974796520395,-8.906467781901805,-5.847299913105767,26.245406720947436,0.25601925861388075,13.264294454940696,0.29650838993826767,1.1700914926952581,10.926848249672188,-14.253744386307853,47.11546834641213,-42.150529451212776,11.085148651400724,-9.654117181367806,-36.33204057527468,12.977499452697998,26.788709264002613,68.9843510630987,24.520755855520473,37.51680534728708,-25.375984411007412,8.50165079663293,50.77016346779272,14.393245911415256,2.8931544852888997,-15.829282016944404,-10.267674687363597,-23.813820489214123,-49.42236917004154,-30.218541579466418,-57.95773992684962,12.203985988667116,28.808454687045824,-125.56775782973048,-84.7341738577598,-17.42084817916347,50.68266744956746,14.901717644574326,-64.0441280301075,23.998517806183983,-0.9725805872610565,75.9626986756807,27.28703033709501,73.83265376788901,269.75644041283743,121.30932303393924,-65.1128332222396,25.791520439523254,-121.62463229030647,25.875636281546157,148.11528451763536,-82.07350482134443,-56.86968691593661,-110.59240301388333,-93.19181454058433,222.154736403982,-66.88247591180148,-45.37241770438705,-136.8187716655973,90.03417999325198,132.59934338192676,55.85568771682587,-30.812830323880554,-82.9027042254414,10.146839289695237,-63.36209217812216,63.01842078382991,-1.0781842897387088
34.671199798583984,2.2326011657714844,-55.57545421256985,-13.59775497264882,24.91023995969684,30.98017335177132,-21.157014620092355,-35.03797969095715,25.498878857707957,4.4371091566582255,-7.912072618473417,-48.87158575018104,-35.163506675935245,28.10280439985268,-37.62958051118608,-91.6329774288722,-49.097051486531726,-52.0121860701011,37.34798926937792,40.14400647983318,34.011073504240144,-15.611105259181034,-19.47614270181091,79.1669215516306,18.130732487742733,-2.897811217522992,17.990823991341703,-18.900994022547945,-32.05822433616966,33.594660989529686,-17.336926407629498,-62.78767401814294,11.67219658931593,34.20795152651528,-60.2235010372181,-95.46251548661661,9.142073697730076,-84.26898277604833,52.7079120077965,82.08452391460112,5.297236514176031,-18.69906490620857,-18.84856146266045,65.09079045695957,-30.93578270270159,10.821307181499993,-2.0268229424293898,-50.49573132921778,-0.8478868786764693,4.528008783744772,-6.816111267631117,-3.990013181484205,35.33790469376728,-10.674879203404746,11.521497837663313,-20.531884633721837,-13.952698241189847,-42.56062945569086,-1.283727599495707,22.87060329118949,-21.46303338016029,-26.34368944046191,-9.59360181698192,1.319432344189682,-5.071629507014898,-6.935170226485208,-4.350060691622912,5.106862048496778,19.981062683033965,1.2802461632191413,15.506896448248302,2.5824995712222414,-4.101127357467832,-12.510694792627739,-10.47824686737259,-7.595846954988939,0.4247661204074973,7.769183369690478,6.09826840766165,7.168799993495905,1.8712319810057885,3.365874732495573,-3.4319073446667194,1.0719952358011855,6.9641292173465565,-2.1655988203999894,0.039794821581061735,2.943440565660746,-10.875530668699875,-0.6955137753488564,-3.2816366038000817,1.8477195320848332,10.062846944355087,5.452688789163402,-0.35498566079854044,0.2571802870299067,-16.986828889202396,-1.9617193083019402,7.876281846137264,-6.091636556794029,-1.9619957861979926,-10.998614838224201
36.90380096435547,2.5321998596191406,-7.38989083430706,-6.623946271514002,3.866909732483726,0.16180472710629779,-24.27866840429272,69.19088493590645,-23.58461115318629,-1.8590614569899522,-15.402867973872103,47.49318922443832,-11.837643552729835,23.08418954277714,5.740325265613415,-35.36788321198442,4.99317956357331,-64.6569879217978,128.90606336483694,91.85713255855156,-32.44888864314646,-34.65793188055822,45.25495567670639,23.33579739557772,40.49687250814189,52.06058005382065,8.343964184126419,-44.97723470394803,-144.14575157666275,-78.22643174476138,110.52969591720282,25.436618162412305,-29.608633909922276,21.275002973844472,-63.49981177413217,13.075259911568155,16.328103982860554,-26.2046413336589,87.87704707411689,-23.43474033110513,24.229202438491612,-19.294623552199276,57.75142285989088,-67.5058488889564,-34.165475213647504,-140.11106866996212,-42.245619793743444,37.16870503863887,129.22041772445345,-27.964943205899587,-44.961522144150244,26.752903683002277,-12.969054964751383,120.91084531778861,-10.375840438691853,-12.018629757482783,3.3834718722544945,2.2037640407500696,-29.45794068856331,-6.454571485899916,-31.95904640576115,11.385088050969507,-12.498729884481584,18.586939210536606,-3.5963007883045215,10.000899563958386,38.1177063923145,-7.722375039308755,-3.779699619888787,8.688653820005525,-44.516589284925544,-62.810545657448316,1.7393503519420719,12.319315587711237,7.351951898636978,-0.36166538529767744,-1.0546186673728153,7.980704799326914,10.530878862672848,-10.333537180439972,4.986596801597375,10.546231962754824,-0.7070541724095201,-19.656975659216418,-3.4758655539817207,9.591736252866767,2.8363055476014742,3.775107813476511,-22.864447867423234,1.7104800347267677,-0.2172796038224219,4.8652401004454315,-1.9227461997201702,2.9999289690348903,-2.2594833556870326,-1.1219048016556212,8.151205040582717,2.32817239994076,0.9238166998781299,8.688670457546296,1.91943886299015,9.346487213328542
39.43600082397461,2.4321975708007812,2.331787897142971,-5.0895000672956066,-1.8230214441795267,0.09900378434247181,-10.34744315906382,-6.1405461501553615,6.505169142533527,1.9758607953856637,5.48068576956638,-3.1716063043551084,10.802269650759333,3.4411594883996917,9.767033595436242,-1.4171847233394552,23.77926674291202,32.40745449588992,-3.8291077427164497,15.690521977796847,10.238832882346664,37.72204740228905,-8.628407653590669,-39.70393252336964,18.663587471698968,-79.49007462004974,-53.29519268917788,-125.76422839234462,28.04155728890744,64.13005969992547,71.51983353844521,-101.68945066265235,-11.235295514512924,30.929975828726658,102.22525858924223,35.415152501036815,-45.846219381750075,11.25844625156546,-5.750034820217401,-140.4928716273721,60.24684508813009,-78.02626202702461,-50.41614749829394,-44.77342170454853,84.46142719578563,9.72522862719644,-63.15088123202833,-41.70384768897974,126.09280103295758,35.49364693827846,-128.0689437161576,-59.04859343473599,43.247124668446716,72.50487487413537,-42.53264888778426,-1.6183658438829127,-66.10021159794401,-9.469276671646941,-12.671046081247983,20.03896048022674,-115.54643724937232,-8.975004604580167,4.3529739861866314,-4.760830246730604,18.85962958058164,1.8459332599049776,7.937663520005813,1.1886626907327198,-24.676358345131895,-4.711114115506836,-0.8596147899599318,-7.478421562634997,41.576698695433436,10.484299915398767,30.02908835465835,16.48777410777935,-2.898224517950955,-20.98189576517301,-14.512974906648672,-13.73825486426195,3.741298652683169,10.308359401399523,-7.407682054667402,-13.063921722278153,-4.470879846672606,15.70209451667947,-10.743372859954732,4.684456154415026,8.638860301801769,-7.976590520050726,-6.217294354922673,-5.4724541855588225,-0.5579075628493416,-7.245251643235131,-1.908667065175389,5.13271720590096,-3.46271458182029,8.39828727684443,-1.7424974768133046,0.9529449265591632,-2.7871099982481375,6.506851316167311
41.86819839477539,2.582500457763672,7.768351916065498,-1.0711487389604473,-0.3800306048909674,6.838965297126053,1.906649465027967,-7.878541721290995,-1.9336404976493258,-1.5066972447749607,1.3183128745198074,-1.3680850663342805,9.120021663836035,14.309219499949391,-9.713016772170946,5.118026994317822,-7.816554534657951,12.12692304548294,-2.7504643581340646,19.27816309927214,-11.565251722144529,-23.477080338968342,-10.933430774775193,18.916528812558187,16.32540980157644,24.761088955196662,24.498794039009518,52.4114505355032,-11.024581291040231,21.114116039416047,115.71401753658769,-59.789782332347905,44.03161347627167,52.33695572864148,62.28329495317433,11.363027637809854,-18.814009363762942,-155.4643290154459,-29.780981555969774,-123.11674089179704,179.6973897556201,-52.28045385526696,-129.01183540106086,6.9281648557322715,-47.047742835112004,161.0229592621951,-25.60009779065147,-5.9060692303540865,5.993525374768874,-4.135268903582364,-27.377638886847905,10.394991872989348,-22.217092745068705,-2.795153914665458,10.061529572535385,148.14095749166228,55.805534998488646,30.641957559502323,72.31184312834614,5.8038665712204605,38.49958103727835,37.48992175463583,-54.270932183878784,0.7651572072050161,-44.36501586531327,66.63223423786962,-103.06447262693088,-13.286568629470295,33.093927609381815,-31.809326153180017,-7.291854203900366,20.037057922797686,16.39304176781408,10.409547577304277,4.262556060199785,1.8995106242231365,-2.3461078914413687,6.759013004884068,2.572073332388978,-9.649507730566581,0.82896541133751,-13.86745791943886,16.0466438400764,1.5599685503297809,-0.054115399301486455,-9.446994607466218,-27.24667000405303,5.000015286709698,-2.754611285173992,7.238452734811566,1.5472552114390057,-5.571999458271771,-4.029621486663801,-3.3925453236679193,-4.181872073624843,-5.515885704543084,-2.1671919492281697,4.282044465016269,-6.26318208067417,-4.26660583508031,4.145709402880876,6.28432130126032
