start,duration,0,1,2,3,4,5,6,7,8,9,10,11,12,13,14,15,16,17,18,19,20,21,22,23,24,25,26,27,28,29,30,31,32,33,34,35,36,37,38,39,40,41,42,43,44,45,46,47,48,49,50,51,52,53,54,55,56,57,58,59,60,61,62,63,64,65,66,67,68,69,70,71,72,73,74,75,76,77,78,79,80,81,82,83,84,85,86,87,88,89,90,91,92,93,94,95,96,97,98,99
177.33749389648438,0.9615020751953125,-0.012483978698759252,0.20026467442362708,-0.10254065343397693,0.5110131511634735,0.08942629202635852,0.19935471689356152,-0.05189101201685145,0.06986513126689904,-0.312535618804211,-0.01502992707799427,0.05063084619668422,0.21856414951932476,-0.2916355430689056,0.10187776200430917,0.17323085919114647,0.2140456392600858,-0.03453250550183166,0.006116549589160286,0.13151895814657405,0.49257101170510764,0.07652407152090665,-0.16454100437605468,0.35638741318102407,-0.34289406401833405,-0.07835651210361869,-0.044823201291048394,-0.11589258178851816,-0.02371966042535263,0.05161520481945528,0.003652334014435255,0.06844419697543527,0.03096565573283189,0.03659892316728574,-0.02086731276067598,0.07301847173757539,-0.07705556461747527,0.008504320472937657,0.04179833745689585,0.02348502879170538,0.008437531490162246,-0.043716578147043904,-0.043058466705357346,0.06398857219812606,0.03251626493962174,0.059765804399967155,-0.016347117857690927,-0.004344111958775026,-0.19024665999307255,0.024225358547732546,0.021856273386472395,-0.03669557478758724,0.01968985428631511,0.009502713073326362,0.0068475502110268375,-0.1572988715007362,-0.10845345933211196,-0.10416999295040821,-0.10661049080591113,-0.03246657005056645,0.014326219829235574,-0.07443046684326407,0.04629237400239099,0.03898063150586404,0.04212823449166473,0.16226819816971502,-0.007956976640935507,0.0668064972471213,0.020002711215503653,-0.011763312548447294,0.044056446811625946,0.03711547264867558,0.021476351036915933,-0.07038978412372632,-0.049136382907305785,0.026893770150802403,-0.04582247928077456,-0.044834703397960536,0.053395718560644505,0.03203013872976973,-0.019868493089961057,0.005207904075591619,-0.0620515806214883,-0.02103268540144789,-0.15651855117553767,-0.01442419660830379,0.029353747359288748,0.0184070929838649,-0.03828734375590069,-0.10717733402267056,-0.03279352575540439,-0.39796571266375635,0.05777423959569784,-0.06849941395559853,-0.47423778612763867,-0.8555019321833732,-0.1467058621323174,-0.24077809564264338,-0.2151877388775602,-0.002517525097078588,-0.630470971705197
178.2989959716797,0.9308013916015625,-0.6039705149377651,-0.15419724237681004,0.06592152256744647,0.3011211831333595,-0.44070958926080883,0.21281089376026976,0.2124739923069286,-0.5130355322397786,0.04134418424199707,0.02689324974388178,0.021284958545415178,0.36716813935350767,0.050162702313469074,-0.3832691146154448,-0.10911047131920348,0.3810600597923576,0.06608576189830243,-0.0759353422879245,-0.017405910832553606,-0.0761502422515943,0.1440505513491918,-0.28212630807624656,-0.030483171260334892,-0.03833322277841944,-0.10620110310134866,-0.02005040232695811,0.029749569053045072,0.1051961980676287,0.0023864727287665273,0.07322924972679334,0.09694597040129847,0.014207659978343168,-0.017959815294719003,0.03358209036711394,-0.03309641984856834,-0.08722247516623644,0.007190715657586735,-0.00733565866591637,0.01660032865685463,-0.024460527662876458,-0.019812663164156696,-0.00934912664101362,0.02613670280768335,0.0021456526322048584,-0.017969830711964042,-0.09828386315736715,0.012153194575495295,-0.0013781717359468426,-0.07266013039949908,0.01968998816131873,0.061353097275905225,0.10201053009301034,-0.03412742277535893,-0.015079868792270322,-0.05692058385140088,0.07099321329679739,0.2566572822042962,-0.06634105000784386,-0.08933185955097467,-0.15947921320658917,0.0009926112722497202,0.09560603721532006,-0.06923312462821665,0.04775728995750782,0.07382517264584973,0.04950511720645537,0.026215217915715034,0.014356980818330565,-0.02645371497865555,-0.007342847166216703,0.042467832877907605,-0.007301158052650136,0.07540876012884842,-0.011941519553693977,0.06466022812373523,0.027662529803632846,0.011906837716088255,-0.075421027477187,0.02677426736786773,-0.02764297459850939,-0.020342607093570046,0.026467751866755054,0.03635345746530952,-0.0678014025515896,0.03915892362344842,0.00885553374741617,-0.10801576113618033,0.024006537451026898,0.06454668699834151,0.06454215418812514,0.632220362631053,-0.005016089269361415,0.2490622883135298,-0.6572514506239059,0.4238285586910823,-0.13984290388741774,0.16851694765520708,0.13824425420525063,0.03348253128988775,0.1490868767400585
179.22979736328125,0.9514007568359375,0.036226935953804384,-0.021332213248881307,0.20375300607836705,-0.02235596701971844,0.3652035176819513,0.060419051720029246,0.3772854455939175,0.23228362611929976,-0.04322938709046863,-0.20682958423269535,-0.09070665883047571,-0.2130803352391563,0.4516091296660026,0.14553409755021418,-0.04089899064522945,-0.17642927440689882,-0.09580288406642463,0.21040348702797335,-0.036124898131635164,-0.27274655665118047,0.2815904680909608,-0.3106516453533994,-0.1467099121364885,0.018639553624659695,-0.0736822454454861,-0.030745624185577834,0.0054894639791541935,0.024963373661230963,0.015585532186715802,0.005533610206888459,0.0004993936814015145,-0.11455583560383957,-0.030750605123887543,-0.05902663260979358,0.04560044785804586,-0.003148298540953331,-0.03494101079024016,-0.0037348877660355172,0.01399671921111005,0.012387044412786449,-0.011912496706799065,-0.04273073690941296,0.08540249809132909,-0.0562325279829919,0.01358669978965046,0.021343898416091293,0.11848722848488605,-0.05269855087956227,-0.016581026118237818,0.0743297485869303,-0.19422109960844217,0.00959256584792217,0.08319739440690509,-0.1289317936174408,-0.10894101815415919,-0.03618235968806877,-0.06632818170177499,-0.034557552698310776,0.03881326510298426,-0.03455297006421301,-0.19359382950228587,0.032134310049689634,0.1761974962327839,0.014587494574233743,-0.017927156196279676,-0.0053197859684460625,0.030075648919234785,0.028765996110750133,-0.03580794486894594,-0.00897188288873815,0.01634576515121914,-0.028727029680297708,-0.036823683876512275,-0.017029896780886112,-0.06072305617477915,0.013552817918054379,0.011265842647967927,0.024745628799174302,-0.03257831279130165,0.08577425092337232,-0.022423209339590508,0.2020004627135924,-0.037511074168145885,-0.0088636846002066,-0.027231295553068566,-0.055074588260611596,-0.05293496715605537,0.010976080915921964,-0.09199647775139708,-0.08576652038174559,-0.07363313750482793,0.0042925179797498325,0.45342302412192825,-0.5555788947221084,-0.477076377673492,-0.27007058216181,0.039240450297622784,-0.21904154079142732,-0.053199464828006804,-0.44257208362348455
180.1811981201172,0.9716033935546875,-0.5457419538110453,0.21789570149160264,-0.07671608272399977,-0.25587147120689036,-0.0013562131376403247,-0.07649345018944245,0.031200834598619206,0.16153300487847516,0.09565413020593891,0.052665561558387766,0.11405109169140402,-0.13653891679524033,-0.23568309970632337,0.08083522787103611,-0.23237280503687718,0.17790018974139538,0.1379416819950955,0.019612400574685412,0.10486495664946532,-0.03348359764845326,0.032028373609536184,0.05879798908736487,-0.06981438876109348,-0.2209541783925397,0.001473658493747398,-0.04413620026948285,-0.00161666200797331,-0.05203577927608872,0.05687595374308973,0.06214306273895685,0.005575116301262491,-0.08806141620112193,0.027701131662755226,-0.04170021646868989,0.04425241216423176,-0.024594097685904964,-0.009694052940249902,0.0010839304324219488,-0.029606055420279057,-0.024962948973205154,0.011670705706707998,0.09347840983694843,-0.0962332936546853,0.06294518145617438,0.08483225425334019,-0.033075927327634515,-0.10353683547141146,0.032470339544172104,-0.04050983591431974,-0.14854548283755958,-0.06348655522444828,-0.006667852985063107,-0.07096799160975122,-0.029750047595855464,-0.13665762325753292,-0.054217851318299704,-0.11577084580442676,0.15762437740180799,-0.22091893721474873,-0.17708561228390055,-0.053377207949338236,-0.06086242923162641,8.674929739063697e-05,-0.12063142056930762,-0.13304780149305756,0.07323663735035864,0.10636540598392982,0.022893975290773583,-5.310530531033725e-07,-0.04332602423388178,-0.10086714892131379,-0.033605906000941085,0.03164068999025599,0.04629597555094913,0.03625933007902452,-0.05201922808526572,0.010094223692466008,-0.0233281760732546,0.0480173042489873,0.03892897562667223,0.03969164538137712,-0.024248936871507833,-0.11602535956526264,0.29589226214919234,0.08408165879609927,0.08147149936110137,0.054737281274277405,0.02201735339883301,-0.5206523777380322,0.825998638485598,0.1621913376911554,-0.019237036308198036,0.10161579984590818,0.07173375367294481,-0.025566226770747477,0.1323236142634348,0.024211183601319144,0.01669780190584918,0.4390509453120995,0.05968510919335973
181.15280151367188,1.22149658203125,0.1818345963397267,-0.12202078152417323,0.049732608641594116,0.32182219631040665,0.08782155772424044,-0.4044173860672903,0.11643309792986957,-0.17599747438116933,0.11482396623063955,0.011232099236073222,0.0005561796233359713,0.03582375780979296,-0.05129989612112059,0.19526809190255007,-0.02144813502874984,0.0832255481850927,-0.096772796819161,-0.021955836043517064,-0.04284199875842041,0.27744138683595226,-0.07702338444229194,0.007507191320782376,0.09224405524535362,0.009333754058701732,-0.03035385056882174,0.008368784632739708,-0.0679718790809328,-0.027441125983659026,0.005545923074564285,0.025366887624291706,-0.045853495344227245,0.08790605279671632,0.012450769560367631,0.0377790478605422,-0.00572867068446414,-0.010540098950802998,0.054559691924628624,0.04712117341918941,0.018424209181261735,0.060739003113611786,0.02909167376504971,-0.0017584028260193283,0.01219225620151148,-0.01826768092145059,-0.05440187157597515,0.014988582272927849,0.0032701417171858154,0.009614033506521208,0.037423880435299386,-0.010887824193216374,-0.02974193214839776,0.0306549147931208,-0.07396688081102096,0.18028921541639287,0.0168778714607017,0.0604426698724598,-0.1523436947425888,0.025968073288629684,0.06956666203477359,-0.08859772694525016,0.006765902171779721,-0.0051174496387566635,0.10057955067202265,0.024576023008826844,-0.016279628993245043,0.1235422746074505,0.020328291646217023,0.05042223694958126,0.06929404994793757,-0.03674011522750903,-0.06132603890377088,0.017070199141999948,0.05416854964257649,-0.02226331360731741,-0.04833250288186191,0.055566280746174944,-0.009695854909361479,0.04559766799798605,0.01604790126396424,-0.004670371561485196,0.08636649593005953,0.011045874190141969,-0.016273284261739778,-0.1945473393974702,-0.14483479355578013,-0.0585847486559497,0.1465098611198278,0.043740163791855746,0.15076456029518115,-0.5635781682713263,0.006341231001708875,-0.03715582863793345,-0.01658573435792482,-0.013112902457049696,0.09917767324383506,0.15239762683992508,-0.12245521207170346,-0.0009145040276253777,-0.018685334577130307,0.02152223607349136
195.181396484375,0.9008026123046875,-0.1654954650789503,0.2897632559473889,0.06441740296934906,-0.211066934088806,0.21080157866912405,0.30207827123123654,0.11589734383777517,0.22094751124808448,-0.06535340063360895,-0.3539819187272529,0.025476776348149432,-0.060082895954100296,0.14053465916115537,-0.11326758934218399,-0.40944074442401235,-0.060716360363806204,-0.3970355153090027,0.5154219823812544,0.17021767800586585,-0.040564315344015715,-0.13612448338123376,0.08437505612513663,0.1152764389672048,-0.06676501407136992,-0.05027463462422583,0.16968957540432,0.5817245497322786,-0.07402632813613118,0.018342725661694932,-0.0688150605058104,-0.11221444130808741,-0.14897274986547845,-0.2117271183268535,-0.183507478654754,0.08125453798047294,0.030121864214442174,-0.07398262115846349,0.05790433176178021,0.12408526167710161,0.10934410302788768,-0.009511384495734935,-0.037490779808817334,-0.01305404117845158,-0.023824873622803056,-0.0259404215106737,0.1250542879898393,-0.07327808302151055,-0.008166630900281274,0.07721592289555344,-0.14680932144417885,0.049933185054269004,-0.17838585441682925,-0.009947535295012681,0.1314585026892327,0.039064753014903274,-0.1440594427157388,-0.05009137760156622,-0.09865926782785345,-0.057879575394101115,-0.174898161469608,-0.07575986865516733,0.07779685570801251,0.10489440814222203,-0.08539555285657341,-0.03912731063496701,-0.013232036630882047,0.058643450642650974,-0.008970936721318386,-0.06664758301370252,-0.09911343446396102,0.017665875569967817,0.06240713394418048,-0.08951130292146309,-0.0002573565900460908,-0.008924561228793,-0.01043833652547034,0.0407360119199709,0.08822202557056864,-0.045142118260085795,-0.06061130658302363,-0.2038951409464503,-0.05012263930852148,-0.09032296649754072,-0.07060621102525558,-0.15461171953367803,0.09526775660293844,-0.3854053030350365,0.4523133338777306,0.16275383950447875,0.4356263518705424,0.21483884467622294,0.0122965157589053,0.22392040783773745,0.024891532599417995,0.1648628653595868,-0.12346964223185733,-0.4528246476738017,-0.012078915609963166,0.12037933669299783,0.36271630055302667
196.0821990966797,0.941802978515625,0.4657568920939944,-0.016163131484476945,-0.029555375155325705,-0.30499243172318174,0.3330574419613052,0.15333255582522926,-0.028691271538986027,-0.010257112487750582,0.1838784397838967,-0.06133072098563347,0.2183637237319347,0.20449016810134432,0.33148325210458207,0.09431371176935102,0.23412741159086958,0.0639591774196393,0.13279261988683638,0.31102798813334803,-0.004944839824721103,0.0024141274335337942,-0.3320106367861927,0.28886760473439,-0.6600888588223733,0.04987393775974238,0.04064865596744692,0.13214692823160704,-0.01484165213394402,-0.15961244585516457,-0.12788919754022748,0.07828815390879681,0.058205530542315656,0.2232596623976007,0.006473297415264437,-0.07556717237161834,0.11186165387704469,-0.00105525812174113,0.2292618084594755,0.09247910683954742,-0.1864472717252066,0.02493619837977751,0.020224913887793884,0.08735731006680159,0.1304308204230561,0.11700433766872233,0.029074619668089843,-0.009030223459233745,0.013188191335165834,-0.016960699197728968,-0.010680409350198376,-0.02295682952518572,-0.003906726688146331,0.017639137473202234,0.023269866931521308,-0.05027521379294559,0.030170497060577714,-0.01569719856934599,-0.04368508433453259,0.0632586969212641,0.2402221745950779,-0.0515797229527432,0.09217133377324593,-0.10463579751597205,0.13208206973651307,0.11136836049619565,-0.20662709618179337,-0.21117555432202978,0.13025855738856734,-0.01968357993811952,0.08424298751267578,0.029903445596753342,0.056214225731632185,0.023271216873313107,-0.009202168711973914,0.05046288644789554,0.07282315596322725,-0.014935401899585888,-0.05099654124243455,-0.015097987891305557,-0.020713280366149785,0.005062487508449344,0.06789753275141958,0.040025870588877216,0.06197490120046053,-0.050489664876099224,-0.2127422299653798,-0.2225575475478944,-0.28869692406962233,-0.15201068948561564,-0.0701408424983882,0.06404878595253458,-0.4424713632840674,-0.04495613959323982,0.21751056009580688,0.4501579234326481,-0.10502422905548718,-0.1619217690457054,0.22942113050886942,-0.34005837890519014,-0.06384532020235043,0.032451477020618125
197.0240020751953,0.9311981201171875,0.04644602406096501,-0.0385360354211598,-0.28177003615050317,-0.07772226784229225,0.03145390651123303,0.11050126468679172,-0.16560703192025883,-0.182077722522757,0.11793108025638552,0.4882105065866747,-0.23720151572118592,0.1601815109187211,-0.4471842336893527,0.08803310100593666,0.32736461066226485,-0.024917627288675206,0.04839190212185389,-0.012386670742715045,0.16675002309413428,-0.22764243078906227,0.19899683853527003,-0.011630898749011936,-0.05901876915610604,0.09317745063828756,-0.14427460334645387,0.1930088249650894,-0.04621490073847579,0.12494320375405712,0.10702148002800707,0.25292992372625056,0.1764038976032634,-0.21329057657337847,-0.023336520299574115,0.08022547848500129,-0.025254938099188665,-0.10560148982945085,-0.05042200422309002,0.07197864068655879,-0.15120493044041783,0.095141985285773,0.0145590698534209,0.028377087299884234,0.0599707742329325,0.08705510168491949,-0.0938952389572001,0.054732219466341485,0.011034742205430647,0.11109731567863382,0.0594685555365543,-0.07142836857397222,-0.0015630800635129134,-0.026579959319595427,-0.0500676012785128,0.03650937304859236,-0.010093037381200199,0.03460684183476841,0.1281488326446737,0.07766842389837056,0.10755245115604463,0.0421382800644122,-0.11202610422840742,0.09072448639568888,-0.13583375058477198,-0.2073191450010626,0.16340709896905364,-0.046353605772306475,-0.015981149476236994,0.00044045096713776766,-0.004122010082192646,-0.003647681336300862,-0.03358447804105636,-0.018065750905958692,0.026111311122463312,-0.07262345950031354,-0.051029900803178166,-0.029868295099974303,0.021658838785930414,-0.009323133587880473,-0.015954041721515134,-0.0024889967690566086,0.0630774333377737,0.03191852034222323,0.1323659159450012,-0.08924558252002533,0.030554560954173082,0.3101664967253572,-0.07298688367886821,-0.08193128913342884,0.08558354242858844,-0.23413857188109277,0.00389663226469361,-0.003627603881697139,-0.07017192277035791,0.3128965368134444,0.3311162250269392,-0.006573427070273986,0.10712195676038476,0.6043203152697786,0.38803517730488396,-0.45845035089276237
197.9552001953125,0.9615020751953125,-0.5503065860901651,0.2550410102926825,0.09869911264256034,0.060041040152811725,-0.12445307399434634,-0.05232247504006067,0.2984241734381521,-0.10317078508211203,-0.20505587839779488,0.13179454181730652,-0.13261246599619703,-0.2901036368570423,-0.09871130998747646,0.16369676058696464,0.019226835195430322,-0.15933264595962443,-0.36132013853576317,0.09460791263107525,0.1163005790596329,-0.15188538446298333,0.47434994008761294,0.21091233423899874,0.036822115668308626,0.01926745625436798,0.09461025296329162,0.07069896365779381,0.0681144244444761,0.08919878075186397,0.04205296853958905,-0.13646740871299975,0.12815863565001637,-0.2072479102626154,0.021411500143012543,-0.004987773672499281,0.043464692279858906,-0.009913052258337107,-0.038648842308280536,0.0014348496240624928,-0.0326898053176829,-0.06314137139519785,-0.024340953376915733,4.873980860242537e-05,-0.0771042226483744,0.05145938303201005,0.03238702860182563,-0.023572405694231958,0.06694125228160377,-0.09604398058135269,-0.010783213279933371,-0.04842065324520076,0.027945943138283618,-0.012916259965916947,0.06167292630934046,-0.08616410652349314,0.030024967789659136,-0.1467023628504509,0.12217754547921372,-0.11479716812643136,0.07240815785654185,-0.09438909722901825,0.06448228457196863,0.033405279954501474,0.009151783378148433,-0.05456822226136543,0.01601437978245181,-1.6338819741282956e-06,-0.025577047031222478,-0.01903309708936688,-0.019109183656599367,0.00836173916461877,-0.02537929297477838,0.019973596434184213,0.030240493467818284,0.0022834756710800952,0.021849219679843532,-0.044596678914132236,-0.026235912073557494,0.02927251019362676,-0.015319223010874707,-0.08655728968592769,-0.1112159380788838,-0.10026679956551178,0.0031106234665775057,0.18797521341630477,0.2937125818979196,-0.17499267999094242,0.09056165170278313,-0.05353829304545786,0.13163340596285245,-0.02383066097387291,0.058047234478822866,0.243523546501939,0.053179643560697695,-0.20469593872841785,0.04581200289986657,-0.24513391091588965,0.15436643075871553,-0.028976912050325716,0.21661950708335007,-0.06246054494095217
198.9167022705078,0.9806976318359375,-0.08076706288575215,-0.01191889556526761,-0.20918866796476102,0.15927150265920312,-0.6216694000252605,-0.07921666390712137,-0.08048802843164568,0.5071325991882597,0.4598607846458421,-0.025224833482791024,-0.13050525711874217,0.05644295541193674,-0.1331472521399001,0.10851507305783366,0.36747894107899415,0.3184263363519066,-0.09433981388361963,0.08374646943204041,0.048182728777411865,0.07886791901983986,0.16258770442804243,0.0713694462283951,-0.00827719175476269,-0.04543331940647615,0.07687982352400091,-0.1601791887229382,-0.5694659138339482,0.11933429667356239,0.011851398491907708,0.07083193372323146,0.0563965898122114,-0.0799328855704493,0.01355272000901547,-0.007199789429462554,-0.006402219655519915,-0.005123940983062647,-0.015346382523458426,0.03019445223217003,0.032624009660302,0.023633999235073234,0.06942031887606975,-0.04072280098393999,-0.06718116236608983,0.036399909644282726,-0.08317052769591225,0.008494904163200034,-0.025694372749247164,0.024913299894827202,-0.028254470580256718,0.01261829303472816,-0.06709326987299102,0.06553406615800675,0.016257011586274267,0.018842125772234562,0.12398621963721525,0.07049873246608364,0.11775461105054436,-0.06684774276535389,0.02612676742104074,-0.010344998430676053,-0.027584809219627623,0.010102738910229331,0.01913514288317711,-0.012218031678459002,-0.010368466149214939,-0.04521510126709497,-0.05331163480302058,0.049328099346026916,-0.0308950985319751,-0.03177751680504879,0.0709453249376089,0.053356584934612095,0.05512626269351599,0.0010187643477121769,0.03780870762580689,-0.026742090344248536,-0.02223700815394093,0.028982170876572483,-0.039773326924052346,0.018902260107176605,-0.15774628640272906,0.1304707602793188,-0.2494911975335545,0.15938834817667272,-0.06658759765023782,0.037768104152342434,0.06752172510423257,-0.11744508698241297,0.17535597503135053,0.4849171671539181,0.6906964443193614,0.005131416540715166,-0.05921996926696951,-0.10327328383574677,0.042753360457141204,0.28791174076643855,0.29169459029604483,0.0018427692867432743,-0.02106512782560848,-0.19546158362139482
