start,duration,0,1,2,3,4,5,6,7,8,9,10,11,12,13,14,15,16,17,18,19,20,21,22,23,24,25,26,27,28,29,30,31,32,33,34,35,36,37,38,39,40,41,42,43,44,45,46,47,48,49,50,51,52,53,54,55,56,57,58,59,60,61,62,63,64,65,66,67,68,69,70,71,72,73,74,75,76,77,78,79,80,81,82,83,84,85,86,87,88,89,90,91,92,93,94,95,96,97,98,99
27.014699935913086,0.7898998260498047,-0.07807514188278829,-0.06426763458301389,-0.20545310405806283,0.07475604869001454,0.06494004447231633,0.04821487372726549,0.07399413142909883,0.06105495896096624,0.01939981839592006,0.06448086000040691,-0.11153240141446118,0.015406395368196489,-0.012975982949006617,0.11130399130355415,-0.1711464023209195,0.04903141165041176,0.2095827520898596,1.235713839523443,0.18701251031743704,-0.03115408594495442,0.23230983008778766,-0.4040644488893285,-0.09696827680818854,-0.005959001191244942,0.11349965533561278,0.025698205014551133,-0.012223117413792728,0.5289145470591343,0.2722822992537815,0.08097343887861982,-0.04120760328165954,-0.4814132275854194,-0.18010937600001187,-0.16410885775362052,0.12823480512352997,-0.4247485742058793,0.19821309816734337,-0.08473473213788035,-0.1458593222870797,0.03034085872615114,-0.5787362086786327,0.03730926612202262,0.49967154082176335,-0.2958437256345972,0.25348346341752015,0.25157829890883177,0.11284046709139373,0.05939331078348095,0.5437781188331131,0.7474597014373612,-0.2917522886028618,0.5031632994351506,-0.46448319729674153,0.13469711688278208,0.13799245393593723,0.16501454354028605,0.027734138872776155,-0.06889543096486724,0.03493192703574288,-0.18020077741659266,-0.0645267717885644,-0.21509738545819146,-0.04816767086665664,-0.02990856776374537,0.08816329690501086,-0.146916504497265,-0.038202144556937545,-0.013168877523173805,-0.00795768866475272,-0.11432422856206614,-0.006988105126271611,0.01630067000460035,0.07003365896735793,0.10528705819164474,0.2756288137417556,-0.09901012809209864,0.14764511043077272,0.07005345849751737,-0.05066697773498269,-0.00427302874317299,0.033954574265745587,0.07517993743846607,-0.022427700335143665,0.0311572848862339,-0.15390673679041034,-0.07113641870417166,0.10661013460605683,-0.10024639045693683,-0.012234860475223664,-7.157901317636148e-05,0.03086346848079101,-0.07344585625654929,0.1733844751802561,0.15146993716253446,-0.2647228125230244,0.30604498407715797,-0.005056784918265597,-0.061078324325087495,0.04293662086976721,-0.025183702805799263
27.80459976196289,0.7798995971679688,-0.17156065830784947,-0.03926325603062625,-0.11411802369064904,0.018956910921039072,0.07849731491214862,-0.036230580381947264,-0.09792476231254177,-0.09534817762431387,-0.1166797507837368,0.1187286794562019,-0.15135224775669856,-0.1586562600355465,0.09334126063721267,1.018241300000923,-0.21697255927448628,0.2473773124083604,-0.09038511239591966,-0.31099226543654923,0.04560720142425527,0.08112828803931911,0.22068044336530704,-0.07949023017218465,0.08832385255220784,0.6017452838095884,0.23693800773950335,-0.15122135914595336,0.7351878061662775,-0.2188139187947168,0.21585151343640213,-0.4798772777563072,1.0632194583871075,-0.9815206005778137,-0.2828485247814717,-0.5382278536258749,0.7916156275051441,-0.48432001264650665,-0.12059695410793009,-0.2352916446249229,-0.4388168205333331,0.060807713495196924,0.01751340056003675,-0.18536247272315912,-0.185305752720562,-0.007667528731339648,-0.15376831285982073,0.5946519791791297,0.07148947442788137,0.5596033768777586,0.3526985988388022,-0.3948765310424552,-0.1227529202960485,-0.4891883219676519,0.04469497465086633,-0.002377945249508212,0.003007230619552756,-0.1405362463900845,0.016460749120380334,-0.21927150708725596,-0.22244300930019298,0.0077958926116732455,0.08210879135698002,0.06748939768954364,-0.06735033416984726,-0.14816409775699357,0.07833992849235644,-0.019311158024924228,0.06034757720361858,-0.049305517074371474,0.0905359093905767,-0.0027092037338669267,0.14718477527182652,0.07789867687776554,-0.020875397629234325,-0.09782244901494858,-0.007396262653547375,0.12309370476110783,-0.09653673884782508,0.04545428648516372,0.02001599699397935,0.07775603288141111,-0.05736284153480907,-0.04518522354059334,-0.00855385661172031,-0.125360909839497,-0.1142371271115829,0.037912608603136604,0.08351059604414449,-0.09279580614729542,0.15097081107217378,0.10927513010777344,0.24169289678337008,0.053600000027776665,-0.1723771107449309,0.10803523044897315,0.029915417714485543,-0.06148039047997778,0.0394815430935843,-0.07487215608102185,0.23876835545336483,-0.20066632899568468
28.58449935913086,0.8199005126953125,-0.20371346573917687,-0.06284661493342322,-0.04960574775402333,-0.09224860156262966,0.030678688787549344,0.09053839968815477,0.023818585293937468,-0.05625614994292193,0.3415212968020744,-0.07713457776830245,-0.12339808051158964,-0.06520424672632429,0.41475940432734537,-0.5392794992846806,-0.19242307937709624,0.048907097004774025,-0.37064998045288855,0.6139066055401922,0.8894573117026031,-0.45845388724521985,0.08995214881363127,-0.09810251927381769,-0.6730703060236612,0.7300628809897488,-0.5642466485565644,0.4397975764746165,0.22415231364760246,0.014721129265842462,-0.30709025154617126,0.05607486885642349,-0.5592086699861114,-0.12020766494610836,-0.6261554369732946,0.6661457058286921,0.3464360036194782,-0.11542317030535507,-0.00971725267808446,-0.01597004544382119,0.19867442120245143,-0.2789450405167132,-0.17951007521187426,0.5496955191375181,-0.6007974015310809,0.5632566532060705,-0.9541410087442339,0.09422935475741823,0.0037487671085733275,0.5265133388886316,-0.3614397122432101,0.5885591110773873,-0.581378310232033,0.12946704622143185,-0.37771820479739415,-0.23999875696569173,-0.11256577233938837,0.07644444921749367,-0.02147387137446226,0.04145049902278701,-0.02687900174458626,0.2253038758807916,0.16658828745798593,0.017539768973040763,0.031128912756925517,-0.00981484972667128,-0.011787108137185268,-0.08906519259888161,0.09293283769042456,0.04286032636862286,0.05198223715145065,0.025804927555533354,0.021398440549414168,-0.06950602444548404,0.00891202794075159,-0.009829602682208435,-0.08452810404730422,0.05707832914663312,0.004105570119046293,-0.009029086149323793,0.050588951030101616,-0.21123866002910868,0.025515219734776554,0.06597483064729777,-0.0019323082500643518,-0.1680200457727434,-0.1368198151137741,-0.11811381955842598,-0.023093276259157382,0.15638874400978028,0.1617964801148262,0.20205701216810174,-0.049400033756691344,0.006004910017895285,-0.09945297552578419,0.14581837406844536,-0.07676186806400073,0.03118520191041996,-0.037825281129612434,-0.04710333432839667,-0.005044720710258693,-0.19346500120153345
29.404399871826172,0.9006996154785156,-0.20209396147877395,-0.08496554710017924,0.05346201798028238,0.03737497894866079,-0.03246441237720387,0.027992813344719016,-0.050001097562838354,0.04541246858525788,0.20389094765532545,-0.0371680160172464,0.13056399864747883,-0.10295318664681283,0.5137099605848201,0.5383612888304139,0.22483920874889035,-0.4194892571306437,-0.3003097722498343,-0.30017556437265436,0.11178487825736186,-0.11278479774749027,0.3705845878851714,-0.13258492842920996,-0.0004178611103905633,-0.31985012949907204,-0.04983236636102223,0.23164455957313418,0.3841840203666157,0.17106930698838954,0.2902066153511426,0.13139977033612624,0.016309975275941233,0.2064352441433044,0.32938439402996605,0.1756991722552965,-0.0014098774392916485,0.6026029771487521,0.051168971574388655,-0.6065385758794382,0.7992249386340269,-0.20335152124361233,0.402845357769025,-0.18893806299974314,-0.1503180928946157,0.429858312960337,-0.15763897709751348,0.09376093084302581,0.04902979916039152,-0.56463555636753,0.21964557524620495,-0.5701260154540696,-0.15521556636247463,-0.003770762523016514,-0.18494812644651976,0.37172487378433444,0.2278578657413268,-0.028625388796499937,0.04367481684175866,-0.13324632555286775,-0.028828762835739992,0.09400875923242384,0.05031246451704291,0.06153428767565079,0.017581974192628438,0.11070701009230013,-0.2950970094067485,0.08190718861161288,-0.15515317058807715,-0.014640339804297214,-0.07824758852331712,0.11120269517068712,-0.10017580976853295,-0.028536116967307706,0.021484924415820675,0.029196328611947958,-0.024329526142823854,0.046039363811627626,-0.026677192340473742,-0.02378337158804979,-0.043544214404018795,-0.01770886986991892,-0.028538185913733034,0.054313320799321774,-0.0342562058650221,0.0016042063919177079,-0.088215523078955,-0.012297251730659679,0.12153704745825301,-0.0061969273190894195,-0.13004103197602643,0.18130967126631173,-0.03157203075128187,0.20776979378677643,0.17193459601754257,0.04464192509347365,-0.20227092730796825,-0.023526112472670124,-0.1291682621624228,-0.06322735336535631,0.09102823009066013,-0.31869746681444255
30.305099487304688,1.1697998046875,-0.3318701236416095,0.00428421475102524,-0.05118395067363411,0.06551029018375522,0.04913617802704208,0.11781912525992416,0.0989684159400424,-0.07997080428216478,0.5574408662333539,-0.42931605866650085,-0.5913517001102382,-0.016830301467027218,-0.1262734875218283,0.09199796198407104,-0.02916896861119602,0.07445732005901445,-0.009013056333327427,0.19410717160826102,-0.5071813780708977,0.11964275400652982,-0.031949631998126664,-0.23285513875848862,0.26273202218033287,-0.14333213233567338,-0.28516403395474216,0.07545103930890208,-0.5205651401716184,0.1533727281025794,-0.0015088101456534608,-0.1927263828562527,-0.005390533566103306,-0.2624408580686842,0.033079147158088074,0.10857755896328616,-0.4692271390427416,-0.03497310043967916,0.6668053725043475,-0.4586016201889248,-0.30966153083173864,-0.047133003045598705,0.11408271382730353,-0.21194559357225962,-0.23925676954762226,0.15520747437398524,0.08493711548429754,-0.201887985160773,0.190286012067311,-0.6180439537469478,-0.03880416755612354,0.4484706248067446,-0.03766169541250014,0.02727090580363586,-0.03151821996987675,-0.07726417508277345,0.013162286025830333,-0.0069689301067577675,-0.018097844296742712,0.0757808275730841,0.1174044273438694,-0.035929626944223345,-0.050958988152664614,-0.010874049725502238,0.00384566372634988,-0.05992261349173555,-0.08523093383753709,0.01231193056827163,0.13341333508698008,-0.12129814765958458,0.006685566842350651,-0.03416059831761463,0.08428965491749961,0.04778722855129688,-0.003003239206765037,-0.012196967495622824,-0.04321187460464837,-0.04439921761835922,-0.10925644179490787,0.06617575610891069,-0.033058405802836026,0.04005314532734897,-0.06324136676697929,0.134201094475968,-0.0182354773927387,0.09610966892579915,0.12996973041614404,-0.04095126432516253,-0.09546651349981333,-0.07145326059306836,0.02721827132690923,0.017327126677566362,0.06330681897722808,-0.13984575924171272,-0.11405320405006189,0.16976998398313659,-0.04901472961656296,0.10113591581505699,0.10390794513931213,0.12348681451311713,-0.01286375496664316,0.008056912461077509
48.856201171875,0.7497978210449219,-0.08794805550722039,-0.053381043208428576,-0.03292616182109601,0.08323136484284184,-0.096279412098571,0.16040099033742206,-0.12574276525771585,0.0707369807558283,0.03268604380802157,-0.07882622168220493,0.033308083511801076,-0.09180370315550095,0.03993610808490923,0.3036386364117471,0.04777142757884432,0.0038392080579663355,-0.0510496176776572,-0.8308610650082678,0.6876862823582849,-0.26649188184595596,-0.009760640645209068,-0.3371786075197739,0.14454217491307436,0.0038417611846924687,-0.0596969599506051,0.04475030856910575,-0.22727772015840592,0.08900976750939935,-0.05268518508082027,0.06609129824853373,0.16042478160289156,0.1240804803259919,-0.16541388150062386,-0.9567446438872981,0.06555016218509338,-0.3401618071155181,0.355963377037809,0.06733315981157253,0.10700445284799723,-0.24659073847031204,-0.07386896415041956,0.1876932822893055,-0.19147949888973712,0.4184549747072935,0.08018837624952439,-0.2771709745372891,0.8675220989339943,-0.46209319341361715,0.2068681714411808,-0.10584820759487007,0.6569214480643273,-0.2568730512692048,0.12065843168219634,-0.17317354777002728,0.03619173274590204,-0.09087095654503786,0.0933023344649099,0.31659220808180166,0.07448499887633636,-0.0018152495226374417,-0.05925903335929707,0.024140833185641322,0.07912080359328273,0.07618588424533135,-0.10036980820403246,0.06437093502585645,-0.00828583956626327,-0.12092955251989175,0.02781485581058539,0.06738929822275218,0.07241358356123408,-0.04463307392435077,0.13305885859010214,0.12945968978630917,0.01919933127826387,-0.07531429038258353,0.03189131036374116,0.05263425432436378,-0.08019578153709854,0.03330383424646722,0.04963509687436993,-0.02085594674417812,0.1509827447857615,-0.14920693343234148,0.0071717996052261535,-0.003166664233018493,-0.069886051820974,-0.061834315034323586,0.036816082194132585,0.12011325861726296,0.10161138954165985,-0.19934025959649032,0.008285475881534063,0.009467083653090815,-0.1901743729231722,-0.17270198680004203,-0.14222868733918,-0.24021701373721352,-0.08310100322660795,0.01191499537622391
49.60599899291992,0.7904014587402344,0.009781211274051238,-0.036069127669107616,0.051944148473203125,-0.018315189563568555,-0.03616146663598513,-0.16884647894613472,0.03656256177316114,0.02209767573985326,0.0934735554803955,0.04846204810114298,-0.16726884140222517,-0.0451197395228214,0.2165365354881792,0.05055239580044661,-0.016855102563085395,-0.05695271559873301,-0.10436002036685761,0.05522104058003302,-0.1871569844464633,-0.5720345937411537,0.06973513694678152,-0.022811861626383823,0.15237033471762065,-0.09117121355989069,0.30882769636853846,-0.21821420500532382,0.31793008816145363,-0.3404704055764521,0.2962802133060977,-0.3119689724146826,0.24416973309138687,-0.1026215364940822,0.2605184699058122,0.014676598630470147,0.276595553604799,0.4926351781966388,0.512550093395414,0.6324329574487667,-0.15030466226971653,-0.024340885285981637,-0.5871146023797073,-0.023648958973287837,0.7147755105497569,-0.445296042418569,0.9793697637977005,-0.2584427942909367,0.24499289217252773,-0.16849959639943715,0.28556072733523463,-0.2657629804497412,0.4212576817721853,-0.03419159046840273,-0.16031024652190798,-0.1709190583980203,0.1756186360055414,0.03000985445384894,0.05109442559740632,-0.02901770895436152,-0.1608262049678238,0.0862795966847027,-0.025387429160619306,0.11644447874931421,0.1778727140981662,0.11451129355376459,-0.09102368604538533,0.08379190590266256,-0.0025867278570557845,0.055986835897620095,-0.2823293879184171,0.006594216783397392,0.08895566723859255,-0.07429781794334482,-0.13155269742673006,0.043404067178947806,0.10375707738980368,-0.019269619565557276,0.013301276030861932,-0.08475263666115934,-0.08902998886279419,-0.05684710936653681,-0.0703846668325834,0.01968470501161936,-0.014614341256113189,-0.014286379872047093,-0.028399564655808472,-0.07031810212988793,0.14532351260319015,0.19691847278787744,0.09415442842998693,-0.15909067177959157,0.0724700602190253,-0.21857565016550032,0.20086327782983876,-0.008335701008630632,0.06526086538336295,0.025908129760983063,-0.04032673508296376,0.09894115064696606,0.008791075201622797,-0.04901656943865856
50.396400451660156,0.8600997924804688,-0.18734805314528702,-0.22962354787441994,0.149514582093942,0.029449154739126966,0.09611143109437391,-0.08803558303080855,0.28706323008873497,-0.20855177048678877,0.37634198004824826,-0.1505345401937318,-0.18395807917315377,0.2345918307017627,-0.18214620260310938,0.09390791672289148,-0.10621415519969685,0.04200957683889202,0.552667223934717,0.17629072500345727,0.1953726879119414,-0.08053993275484805,0.022161088839000656,-0.08722722755637458,0.08127065561773025,-0.16795346159747843,0.21007659711927104,-0.036443022452214265,-0.2603432099045229,0.061258142865804555,0.47443547440378925,-0.016868786993816512,-0.08822974334377025,0.6659037501065661,-0.38921985938078574,-0.27806986393223343,0.17987953161796189,-0.5656084277226817,0.26388968285331815,0.0012781289440528532,0.07233068509921499,0.39791098907719696,0.5353461599275214,-0.5711671062363151,0.16356983380818188,0.17169256315291376,0.333797041831834,-0.2813756901700386,-0.05027630842592515,-0.5689373779228601,0.2469238839119427,-0.3411296278230967,0.12678512857582488,0.24185642275242691,-0.25147555754623924,-0.35184857431849326,0.056105555773008874,-0.008324553618517918,0.09524609912791993,-0.07576564435577768,0.1283155365954999,0.11604894145506865,0.028866509985497946,0.26995886216724885,0.11482308602987026,-0.022794040533647156,0.09099915049636531,-0.17028891742129898,-0.12739734316157925,0.023836495415545434,-0.05328996831603655,0.05760040426979107,-0.029846121361966082,-0.016155245913135836,0.12361643558204866,-0.2181135055451795,0.011779101718348839,-0.021176989678557828,0.026316484046139597,0.03573029204210126,-0.09816279690155749,-0.024071583082936047,0.1426417304162318,-0.010220843200053368,0.022525888619673938,0.016479274755971093,-0.12431561544328552,-0.08153079078428269,-0.05986696317761332,-0.05190723118903259,0.017737625995957965,0.10193245931074571,-0.1285831417029325,0.08040579050851453,-0.2571546236458506,0.08421670641445532,0.03819619204152919,-0.04360871056168659,-0.023330565879943192,0.0002632926409272009,0.10345507270962703,0.2657426155836823
51.256500244140625,1.0302009582519531,0.12319864594874841,-0.10255402250486034,-0.16026454590059766,0.08301246358317768,-0.12144772397173124,-0.16051748755125367,-0.11088760044274573,0.2504693513469732,-0.20477402468076644,0.9467879404726502,1.3057324463579754,-0.2751681535673234,0.1926835506676758,-0.20065303137314994,0.14770625934472892,-0.04944108275518868,0.012485494078317914,0.0264442702626001,0.09871262782253526,-0.19048680204975282,-0.14795727388510965,0.00631294808116188,-0.3215089394733083,-0.0595472552569703,-0.1578739880476712,0.046770327892985526,0.22322418086449325,-0.2256513539352902,0.18428932841330345,0.055484732938339,-0.27465464603834644,0.08212565658988939,0.15557087639922274,-0.037560536697834754,0.1592265091014587,0.1547614567111548,0.18883449734864738,0.1585305758058952,-0.08174163335943001,0.3669126722574459,-0.49212273791327277,-0.1109224081116508,-0.38929312568812907,-0.18814861943751077,-0.166065640242642,-0.4482761959954588,0.35403924231863415,-0.38513720586498773,0.31677579483295015,-0.833475888373386,-0.003097994239291666,-0.15001085719419968,0.18637589852137817,-0.07231119479309783,0.1319956578817544,0.11367257136892553,0.06997458344689308,0.06832171905533539,-0.19353247374851434,-0.0998588445164896,0.16490747628709296,-0.04068842357934831,-0.04980782017484941,-0.11433115672586751,0.06893891678249806,-0.012908185702694995,-0.04464061298626795,0.0970027546331535,-0.2352156242652637,0.06197832098256596,-0.04091966926139846,-0.03480896339797376,-0.017611076941149884,-0.02116860700166886,0.09899084537488331,-0.07753637266582818,-0.048952814280333476,0.10679444888976243,-0.06536338599078037,0.12267478114272232,0.032053755479346524,-0.05047683025242837,-0.07807830274763188,0.017819510767356404,-0.07368246125402877,-0.0033186263941638564,-0.07962575289656577,0.041614138791245925,0.08548537115279942,0.11335233130234248,-0.15843344234364898,-0.023019211914147488,-0.11366829556599889,0.07509514370808626,-0.2021300741387317,-0.03648666983977003,-0.01304002234068029,-0.058699476074319065,-0.020936062614719295,0.06742883512587297
