start,duration,0,1,2,3,4,5,6,7,8,9,10,11,12,13,14,15,16,17,18,19,20,21,22,23,24,25,26,27,28,29,30,31,32,33,34,35,36,37,38,39,40,41,42,43,44,45,46,47,48,49,50,51,52,53,54,55,56,57,58,59,60,61,62,63,64,65,66,67,68,69,70,71,72,73,74,75,76,77,78,79,80,81,82,83,84,85,86,87,88,89,90,91,92,93,94,95,96,97,98,99
84.74894714355469,2.201904296875,-0.9488859312070961,0.5362761141036008,17.54840123121496,-21.450430797558663,-41.31208043467119,29.73442976527137,-29.461683922662527,11.686667041684876,-1.7836229122087086,-9.403708369835448,2.0511209703640247,22.58863013323887,-5.869170328839646,-3.3836433061029068,13.157612733419704,42.19592306933763,16.808754785262224,-36.18524140854647,4.133949326969923,12.51304804553856,-22.5741204415244,-9.744203733486417,-44.408291683523444,61.33297905935784,21.919844635501683,-30.54556027543476,94.03219882950796,-40.27653624892352,39.23348972851569,5.939486454383723,0.36157863533109946,15.888756649225012,-10.141980766446936,-20.142694748257302,-47.70206513379203,-48.06449822815223,-15.157083511799527,14.475630395738873,-73.85313533882648,-35.604473812721004,21.142130854788185,-30.80642243511504,65.39255462338542,-39.551838156820594,-3.214065707710402,24.792431715637136,-12.891035778567542,63.619561132804535,33.85247633927149,42.536487492275185,-64.50323733512207,130.1076015179657,-29.986784789705137,3.108200883546635,44.11132448810612,-10.70891105493,-10.553688422985296,13.670453828300133,19.942591166491066,-32.88205766166221,9.297590530780905,12.901578536047294,22.881370528839845,24.72302193975105,3.435816932496182,-3.132097771342071,5.900984655307858,-7.678568782080051,-8.683472985252727,0.9264968434772657,2.5456892314809636,-5.034879264831815,-6.362155554503309,5.228254966079081,-7.924316879903633,-39.25443325399036,-13.780954794435194,-19.893659497918136,-20.97696217476832,-1.7346685847660872,10.2066372591003,20.847931851530785,2.85141778140209,-15.380508221427826,8.473349966071385,-5.737760495346947,-0.14540437374336085,9.819138289787356,2.9514078541831807,-8.601442365206024,30.552280439152895,2.3645458508086143,-3.7467734186742696,-8.184674554026605,0.19578833246532468,10.25647168578259,22.47465439284945,30.505370852838965,-1.156074838426182,-11.07124394781367
86.95085144042969,2.492095947265625,10.250902895634962,-17.859210454911164,-40.00187195601288,-25.304910570399493,8.568844351384548,86.6146863925816,-21.24774174210773,-8.085421702003945,-19.463388438991814,23.35724560641692,10.991019922563343,4.602698447994255,21.498959509088667,-6.515363573819543,20.920982477281484,-16.31791031774464,58.592801520613136,-28.08751931053754,20.348563365369156,35.06043608689093,17.834474324859542,15.371977635397254,45.150824106770784,-16.28957610524432,20.829059482974756,85.60615273407012,-20.246802355856854,-48.58073243313606,-12.748634790593947,31.827243322287835,-5.855301453731393,-68.73354789600855,24.24569056971719,28.701204920968905,81.79459087609747,-43.45980702658265,-44.59147928759927,-16.69769427698514,-7.346856770816084,-3.5513492119321333,1.2633057358100857,-46.79180409222035,-5.368142224850828,39.1065843776743,-10.263109538829859,-1.033529802684079,-3.650667399168303,39.85510904721801,32.57839995353091,-72.34590805071086,-2.5665075589338944,35.25139043839693,5.9369671777285005,-96.13170211488051,-48.259820884314685,-14.431943422944265,2.5649926826314915,-34.213797696309754,-37.38835024343403,1.051049657185791,-41.048071784722325,60.55321516506221,-9.138896851855218,22.391445682864337,-17.40066355668507,13.276728980150349,14.38082590151225,-19.82756916323364,23.12203509034194,0.21062735391567397,16.431024124301,-17.513874322743742,19.008650978609857,10.612343434483616,1.1873435872285034,-13.578436310005454,-29.913249793713966,13.792515296798609,-1.7059221619566107,-8.666937506438375,51.565510031152655,-0.4424824935869962,-13.665717484782796,5.762984847138688,-11.338232078195187,31.549251915545323,-8.230774069575224,11.189370921526415,8.332632672119857,-4.008685004767435,-7.281110730480593,1.1879468806750855,9.103596799579003,-8.017338594492571,-0.22409589652425765,17.457849442551073,-20.37356208093017,-13.993894409609949,2.8803138000958963,2.3571864238864544
89.44294738769531,2.451904296875,-4.366572133328173,-15.998870891961666,26.666596889301857,2.8735083804943677,10.684127522639113,-2.6013115810150893,38.95837462772865,79.70028577013036,-20.123844378521802,-2.541231988967226,58.65545512460642,1.5889913415385117,61.74272267566283,-3.2922602774001364,0.2929956942983285,30.387717449503633,0.869613518034577,-39.02783833513109,-59.70510155404084,-31.76737734604629,-29.14448888029483,-11.345104751772693,-17.00978795801583,1.4946727433977585,-82.06872600826894,17.496842415878966,-44.58350028115654,56.57383505217119,-20.08440424064695,-119.25214699709647,-2.8367474317786154,-19.29734381330627,62.171987217191884,17.778564102701807,53.35496736725635,-56.811932420535996,30.60235729704367,2.4411841740012648,47.47226669541517,24.34857706469586,17.372347491786964,16.495591221306736,91.21786576957071,-54.26167108678037,8.0910275568245,-67.52381238097561,19.6610611605088,20.318704159545653,-3.3571324466685972,-40.50113536133027,32.69104363313175,-40.70806306222561,46.88501450235543,-36.12981718734958,-49.23740921705538,43.617644030470736,3.4660103269786573,-36.48529490880915,36.167828386405304,72.07638716697504,9.397743951681505,-6.3783719900640605,-4.618422731684988,-7.457767785368175,14.962578028553068,0.8097449270375258,8.638804184894635,-18.734135137900022,-30.20652051033657,-15.004476494534641,4.984112008979425,-24.184305084021286,-5.4005803168622295,0.5665657129620267,23.012382171823837,55.184110481601785,0.009422567982171892,5.876647981312561,8.399933990700422,-1.9579298866691168,-9.873510022183575,-3.5466808217534407,-11.793657310766989,4.639971065098239,6.084510450876992,10.140480283339247,19.193995104433974,-9.033153831362556,-11.792301880777181,-4.502576865490459,1.2370882744745353,-3.7684155219916153,-5.273161087104755,-24.051836856538173,-2.259105817736992,-28.46650851542076,39.13538502194571,-5.399113246195844,-4.685596984620659,21.63774951828238
91.89485168457031,2.3824005126953125,-1.858696740625863,-26.211454873267048,21.724975790624825,73.44834840447164,30.199010335955162,-24.549409228239455,-21.76748631904863,-3.519851238041376,-5.4183756871898625,19.058033683459257,-51.95838446971269,-0.6064985074070695,-44.730692078434274,4.39586163704335,25.496094971315195,40.383549035355465,-78.89883887478472,-25.478193991945954,4.759861209499348,6.350507043094192,7.016533161309289,69.3412742089387,-17.214608260062807,-97.12290157987556,-19.822325432748087,-11.137297484813036,53.732022077391704,-14.051862632140272,99.78485057712126,-23.359538214261743,45.06519131559471,-9.133002138497574,-17.092956978851657,-24.616592483078286,23.519308289807462,-11.254445035012289,-76.11006910761864,53.43258363119043,17.3775214495794,-12.884672824857581,-12.194850425323196,-21.378712397387883,84.90958522113112,16.294264274931052,-20.908283186408056,-11.115293163320983,-33.71054267139872,93.7052641754787,-10.87808548076446,-13.195575303270608,124.98123990627133,-9.531439175234397,-76.63003394962317,-0.5776477491809815,1.2115443220404014,-14.317620529801077,4.179336478213328,1.3682802134387548,56.9702722761184,-7.2305661964090415,25.096872485303717,92.28667900846622,17.564185619721613,-29.429751963696482,9.11299869073189,25.780939699223385,-5.613202085229276,14.345976598073834,-4.626416755656299,-7.770378267794004,21.592261514946934,-10.032308114378589,-8.555975676142573,-2.406996677061259,4.72277084031569,0.028475656146067507,15.387194129876551,-11.225323309218572,7.4822769200414765,-20.078009731040652,-3.0320049012578334,5.6770533539508286,7.789051284303161,28.4756847834382,-16.52945596839928,3.126054140519834,1.6827927872798634,-1.3509781023387997,-7.35594075021841,8.458937122755865,0.9755333676658076,-5.598822627293949,-8.049002890161763,-5.723448094798423,-8.250292455422292,7.743572177871931,15.66450108043074,4.584374394810411,16.485419360007775,82.70484712164807
94.27725219726562,2.6722946166992188,84.53161793995432,-14.018206378572108,-26.10666297452851,26.87368474605112,26.337544399432964,-0.2605672975251685,-2.576439693998644,-16.241034052275758,20.644360952270137,-0.6617448429847892,-36.14519568830436,29.33341740465278,-25.03968206485677,3.153437920843192,-13.281858858512283,-21.410390214594123,-7.543722318487617,64.60287012582009,4.272935003792682,19.40287690365061,70.10308715533597,-61.410717051952304,63.57137161919266,31.08042174597633,54.73970364875165,135.49952774649182,-55.34139176830889,58.34572614616347,-28.103432313995683,35.15062105906802,-25.782419734298262,0.13757689337646317,39.67419266135092,-14.547047442906921,39.528265124849106,-75.595950938703,37.23454305302803,-47.37279251432438,97.1985734899789,2.148845033054746,-81.45810660855518,48.4643861925326,-33.142859583070674,48.33266163971047,-55.94978738370176,-3.3721994967009117,16.26971381613176,-115.44137402049599,12.90096191451111,-15.63691528069187,-12.51508541855199,12.258506734479095,21.71875825129684,4.9076640721163685,-7.148131853142635,37.452665078282614,27.939700345949362,1.011249874158838,34.859017964948,-2.470170699545246,-37.997724184568376,22.81592322656838,38.063318648931585,5.309766269668433,5.310722278228499,-5.569811069825902,13.225589175637335,20.57310861298559,-4.9407709043623935,-2.396839808466189,13.484175057749493,-2.98320390919886,-7.047576887418079,11.699124732714374,-1.8057957178114818,4.843304177672153,2.7978651510784607,-5.374226375693298,-6.491239041285896,3.463295027091177,15.994800966080518,-10.014718453015117,8.310085855587193,6.1541850401695575,1.8504806525860498,-1.6511493152326049,24.704439022754997,-2.224604426435701,-1.5377102079302603,1.3227493097084633,-16.706743430820477,-9.818654731682686,-0.3916286477206502,-0.7194535815470093,-12.340048527574876,-12.866454733567146,-12.113027372928064,32.94777717177026,6.27153260428417,-6.86354520081882
96.94954681396484,2.6125030517578125,-12.819794863424832,-8.238276218668437,13.355833936917184,-30.482200127526824,2.6430279383564237,-2.501880088756554,33.80422995395185,53.01503613008053,11.600910444073058,0.7277642584719034,0.30629401954557967,5.585101243958693,8.578238631577383,-15.848965421099187,-35.44724173135648,-11.1823252714067,64.84373513978599,7.733367025930942,-31.825855426469893,6.372695214002589,33.70364388427684,44.640760208322355,6.09368023218701,45.00794838779189,12.071073229447174,-39.55083952185238,-33.50441734639642,-43.17341765480983,41.37555005557254,-29.25027284548259,-11.953703583552397,52.68579404802813,-3.597232740823017,-22.701586510774412,27.98667448329696,17.33049653812669,-4.058219791016162,50.191333770491184,-30.606439565399548,24.2534717514219,20.829969759761127,-58.82083033196402,-66.97486743014512,61.962793016439306,-28.66084121939514,13.2344409087304,-8.977859707561551,-14.61991671491475,-42.26563968623202,-13.180562594118129,5.8775668914900585,-7.492976590025783,12.49562972369941,-21.677487772806554,29.26021383508762,-38.613398839867926,28.920084711564492,-8.291984126155622,-11.148089742252191,58.19451823005527,7.972267601281471,-23.711540813983355,46.647220044613555,-4.511014545831562,-6.808115386617845,-8.104687657188665,6.922570845979244,-33.6590813552069,-1.1034312585306174,-26.442993960732277,1.4693947638330043,8.106458793451319,-4.286517076867187,-12.42217390014711,4.029103336583811,1.4329487941749233,-30.192905710517813,14.6258338231841,-14.367338754575735,-3.5527777878584477,-21.673777718499366,33.733351871690914,5.514308774930914,23.695182536819452,13.962160756879909,-6.585984996722207,-4.106854406032149,-18.99227136342188,4.268510183967128,-6.325748057574378,7.2112924455970635,4.013588968678747,-1.6302282493845859,-5.348440709087777,-1.2566502652231644,9.676726077757836,-10.840117986996201,-11.028436966436665,-1.0574111358614207,-12.252089763312679
99.56204986572266,2.2719039916992188,-19.713653944992416,0.5443678702028718,40.424867870974296,-12.784363269992674,27.837640503399705,5.226830912219121,47.08291824639883,-5.489150617561008,-17.682358648745858,36.11999167209975,1.061923087412504,34.40395567875291,92.34424382349478,39.56990141827849,-44.361580164199125,51.014871502737975,-3.325771007062098,-28.567038590325254,-5.27219684525387,74.4373437253818,-0.7881820430235269,-4.31424337738727,30.50566342536445,28.202146410087032,-37.161084326045795,20.62659186579914,39.36008228419493,-15.1541005399267,4.640822256294957,57.406164790945866,-51.61729223427897,10.790046918931704,30.785539972669568,-21.237807657541907,29.877061920467344,-39.09875043707681,25.523667466430197,108.74400433778654,18.736143611425668,15.121304310662353,-53.436027251975254,41.23235673357039,-41.306512600690276,-13.136220427145835,-11.271241376593519,-10.485963964875674,10.28205837936418,15.80236546172104,-53.76459014847264,-71.28107590463827,8.062185025299074,-42.20068739478346,-6.734800149867082,49.81244217578146,-9.853482061222346,-82.37512503853065,13.64719416313043,18.31851479858842,71.25732593959067,-27.47632826738338,-0.947312394764428,-21.737126262920473,-25.470876935318728,36.22188436585827,61.01853280304652,-27.00792046177947,-21.799782077429896,26.256295595578134,-17.228588723340707,22.601360787816983,5.664498083919023,-19.935501097240365,-1.470784729168084,21.636427921382953,28.770510740126568,7.206647635317505,10.568077680031134,10.427274940346205,34.039617466746336,4.463359660463098,-5.973005785732316,4.08578667246055,-30.2956071997091,8.330933337204112,-5.586677623371976,-0.3566284075214021,-1.0020945126975012,14.884803254102604,2.91583253423528,2.8873802396290307,3.800366732372542,12.799332018273669,14.800115667189527,-15.316408671917774,-34.40798106077891,-7.754961097542584,-1.0015395024924567,-3.714427043205076,-14.126425848781322,-17.77909178013784
101.83395385742188,2.0518951416015625,-10.551419811791021,62.65353002961786,10.328024963016968,7.070236256907581,15.492965162412132,2.4665931629256015,-4.258844823771014,-29.647261689385807,-31.51446824522341,-58.22334331431614,-4.698845695368686,-24.373420671880254,13.618984778429866,-12.289263244600988,23.736896963648988,58.77253105704211,20.404538659006732,-21.62967504950205,30.706974848918996,-30.819659192199133,-49.4175348494293,13.051985951781829,19.095511723676672,6.590977591873731,32.62260917163582,-11.431462826688119,30.952672901612985,59.14902630652359,3.417564286977436,-5.15917283572877,-23.058419637308408,21.69159068918955,22.111569224257543,41.62903656955034,-32.52414618114648,-65.71509135035997,-69.56327187713693,0.22908784062332366,-38.35886375486202,12.547232407032908,-52.42891881961276,10.280450660433722,2.4124899227130134,63.104610005885775,15.10048848114193,37.93052499569672,-12.50219653517911,-15.328891076679305,-4.674682315290498,48.82179643064,-66.76318970944729,0.6721415643941171,53.62923605303975,52.508333868897935,13.564581170763057,90.56592044704803,22.16290516882329,10.903607455076713,-34.688904052253626,-52.8544717508229,-15.910800595836818,1.0399389891978394,17.696058229107173,27.887340227449222,10.710405623877799,4.8135495304063065,18.112077661714174,-21.5186636074451,9.182651612009707,4.46992153011138,-12.33351906337673,2.9874604747475226,-13.070557628250988,-9.610338843639406,-14.56792799257426,-1.2679575651550152,-9.368337391387664,20.146728626864626,-6.3133764965572645,-6.154405091452675,-9.360198529648489,2.7246999216969887,18.962728557701457,5.978239542389499,-6.5775134829190165,7.435752753041083,-5.266849125876988,3.5537781504195207,-1.8177036676508371,0.6841237268502784,-7.633682433686472,6.766540485496076,8.42749636059171,14.037775000949093,1.5139124427270365,5.945997500910343,3.884934688182137,10.955778361094367,6.898111647460953,9.46756791533392
103.88584899902344,2.272003173828125,-21.275647679641537,4.86776111566824,25.50439635574124,5.408298960501446,-8.363193744761645,17.574165394571402,13.404441516649364,-0.29927247533836066,-12.93786967336258,33.784862028156184,48.2169166076618,57.38000696416752,4.864361957905126,-14.100255942123937,34.01192721305104,14.418419708948104,19.295820550242436,56.03320401036548,-87.69546336304886,-36.99323643356738,-4.674383997817553,26.62111208920312,63.848072701375465,-63.87880965128942,11.032190805231007,11.349825594629015,154.309588055381,-82.80705412469521,17.41751137466418,6.195137582122509,0.7125568044254842,-41.37131798357634,5.603367440370869,-11.80063970560014,98.09978586361177,66.86285549977885,17.345709405672228,47.23019932881571,48.81984933910986,63.32615218244313,-36.29416016725733,58.7802366488757,25.761471587969886,-47.55808362417045,11.650034878248754,5.5673812878698365,-24.000752804684517,44.981635734701804,-34.99953640436263,13.177304942798225,-88.76746801505598,21.07783549284552,47.52272918850878,-20.71406836467304,-11.800858986950399,28.52279695067643,-44.163172159929445,-0.9777111096031765,-3.746252139558621,-22.375201783827208,-9.248888626587952,-14.865567188233213,-6.7175041195629,20.58866037090203,-12.989424037287103,-20.263841817932597,-4.828049875691415,-3.3447960088087108,40.51710002182982,-5.794436483532094,9.227347326330989,-2.6667467536291873,-10.442000428067944,21.98324745553225,17.466655084902474,7.4669620922778766,-15.889512055860008,7.042089677642844,-14.53400828885212,-10.722102594768618,-2.022761758652069,1.0195928609722587,-4.172429997365121,3.7885119960209592,-14.791837636588516,5.470588990306449,0.3012847799476168,-13.248745491904895,6.890285606992419,-2.208699286442638,3.0010133734781848,10.2864452124322,-34.35943803742547,4.240509319046378,1.5326925181075897,-1.7194664236618964,6.237864944971726,61.8028021272435,15.961320439862458,1.6149052549749499
106.15785217285156,2.371795654296875,2.6056256523436776,-2.7625007561354007,-4.908849959980806,8.233272017187964,-2.6478003833565795,29.60847960649644,-11.082644568799218,-6.914689336428607,-23.525696963717994,31.438236799001714,-16.709782394396182,-19.841960727112163,4.803642893922661,-22.0182192181534,0.8743094286507971,-3.0016033809943736,3.239648053880985,23.331268128069983,14.771626033801244,-25.367877615313603,23.49426739693784,-0.8864103769191924,120.32299980316203,17.392421358362334,50.176279510305875,9.049891148273018,2.276910115308024,-27.532168335999422,-25.395738590288374,-79.0489902053524,-43.96520253869734,-11.050532748378224,-35.05512417397003,63.89726764774469,12.253229264588434,-16.249518901168894,39.868705013083506,-31.614074210659016,-1.527468524259787,-24.379831245144544,-0.26413737806636384,-19.6937847869008,31.483769888824227,20.725842036065664,-21.30871331893946,-25.04110128110702,2.8260252265460615,-38.31475067775273,9.322871439504345,11.521813542390774,-23.362842237150893,30.61729679550853,-113.03081639206611,0.5163434455541598,-3.8671687078224695,61.00099361636297,45.14759938404532,51.79385179725211,5.041737392436897,-8.87646309290048,16.411732034644096,-70.31953906789398,-2.471809421226791,11.679321136489534,11.587762464084674,5.504180975205898,9.825804144132604,-15.492605277231025,-1.7599626718550532,-7.578473315954463,-12.635481765180453,9.394452536481836,0.9693608649936643,-6.908739553091994,2.6056822986942008,65.8071632518272,7.403302949555363,-35.093272775083896,0.03347761357085499,-7.696618202523764,0.9400324823767117,13.206659149503475,4.523489505766846,6.995113337053766,5.553272001220366,10.207405630915193,18.24088579238609,-18.817792902476423,-1.119039304424787,20.671037376558566,-3.755342494684211,5.680195567829536,12.533391851591446,10.397132389147515,-17.389055646254832,8.679348640169357,8.972013384420238,-35.24764443753276,-27.586949230262398,-2.371464060908308
108.52964782714844,2.5224990844726562,3.5903120372269544,-28.37211126656166,-29.223565810390863,-25.268010007326176,-19.435572027747828,2.4526299833681784,18.640263940269964,-31.73709302228807,51.75397318787738,-17.193207047277173,52.704892687487586,-62.720425556819315,25.26314444166821,37.81175588937363,11.364176333562423,11.383857177065774,20.785467931349224,64.36105385532262,-40.06124123202957,-7.337374025911679,-75.03399975826716,-33.94571643154603,44.46127150679755,-4.731344485509807,30.978883324645654,-14.530562917278516,15.475121235788302,54.701842791319656,63.01341860382161,-17.346901914099757,-5.8992978369097875,-52.488907321345074,14.981096031304897,-18.838537075726155,20.17279909375347,-12.62245069597818,70.31289067149194,43.50202858962785,-44.750651012671945,-9.497654378685144,-59.842667028684346,-42.17855965831182,16.837599874558833,36.965374369287716,-25.056874961355447,39.98952451378479,-24.858398767133952,-0.5383896088437519,-28.509129021456957,-47.400261793397405,-3.56028665019668,-87.27323723350626,8.894162767910672,22.093454266715398,29.927255452948565,66.40488362734031,8.37461941924199,19.714469147065763,6.657299993410978,18.06984551768906,2.5120147296611695,5.328320347125953,37.8192930658842,-5.7527864784358504,-3.30867105430955,20.24249208934203,-1.0841013529710004,12.762191581922131,-0.9367772892259433,-0.22042653473398624,10.207314362080611,0.21779015545847935,-27.37491750740876,9.51020836582309,-16.348714784056476,6.699953349313422,-12.037764285992024,7.28343413291131,2.2842130822876805,-4.703119704230354,-12.061674470311724,3.446307306512842,-2.6377566791371816,3.563798037572308,4.313704831074403,24.67033330055274,2.5936076395104704,8.080392872807062,-0.6701898236112266,-2.3012840331207283,14.56563551704864,20.06400534753316,2.931790330769873,1.6524832352656982,33.03607136743034,12.951166136733264,0.36081591979694494,-0.4954236241044818,3.9879034829953617,27.712362948001157
