start,duration,0,1,2,3,4,5,6,7,8,9,10,11,12,13,14,15,16,17,18,19,20,21,22,23,24,25,26,27,28,29,30,31,32,33,34,35,36,37,38,39,40,41,42,43,44,45,46,47,48,49,50,51,52,53,54,55,56,57,58,59,60,61,62,63,64,65,66,67,68,69,70,71,72,73,74,75,76,77,78,79,80,81,82,83,84,85,86,87,88,89,90,91,92,93,94,95,96,97,98,99
40.66510009765625,1.2527999877929688,16.786569917674342,-19.383183656208764,-12.67017271850003,26.809298598856437,13.839565214767823,-24.26708118457855,7.704729259948128,-20.138623011079105,-87.62603298027989,-44.47426187137894,40.061640761768345,11.85430166066318,9.217462780576284,-1.4384214415264622,12.044016175476251,-9.002567801805977,65.1565064224201,-22.634845969577718,0.3277330058390149,-11.207397908887154,14.789702373957894,43.36764957310211,-24.234326255732178,-19.649084745707217,0.27181419587093303,-1.1550850885927901,36.906344425063196,14.561211006191904,-17.325177060059996,-55.02506963441678,-4.429130400898503,-3.6516904993544728,20.588291113445955,8.624998236607695,5.308326517137864,39.74627697982102,43.971034365523586,8.681993850609292,-16.089729566024484,4.476681180963628,26.347615967898655,19.90739108377613,16.65998611654117,17.374060910280463,-46.15130948534394,-44.34989766191566,61.91193794594457,35.055595664654035,-16.77597353731138,-82.55476844602941,-58.45752278205936,-48.863372298260735,-98.58491675917551,-46.85486608322849,-41.144251687670696,-44.00339921964801,37.98487972678891,51.450866981197485,9.34411900580177,-13.399221649464065,-35.016902279203464,16.125402649590725,-1.7257941722434886,-25.436273064977144,-12.949632900623532,-2.3012010328320747,-1.9785495935566946,1.0306769093212473,-21.242060432113202,19.144365631630475,13.145895395902402,-10.101022587227499,-2.9371089982821776,26.3563957037251,21.126222395372718,-3.3133013975411165,-29.487093530311647,-20.158167506621457,-8.359507484680282,-6.549864034537799,26.39741244024022,-42.27556297154094,-14.631008195694436,-18.741100943174033,-16.11511194597731,-14.32796553128889,3.756591699457358,-3.27256422818278,6.668443727131806,-8.785855935117135,-18.0023662619709,3.8583712420275473,-5.973166703650078,-9.220006156658476,8.50941736260189,34.70603107760332,-20.686274361671018,-6.224150321587098,46.171981359038035,31.193719222775815
41.91790008544922,1.1730003356933594,19.976214619437222,8.362430182990154,-2.2167696380312734,-0.5473200146581658,16.53745082354687,-22.324881089890187,-19.990836783064413,31.99472718586055,29.26427626523823,-41.66695900518292,-6.768966807818672,-2.9204975340010906,4.011802646384126,27.30082006403999,-11.776888298407433,9.114337356120576,21.187626785009613,-2.0186634604331193,-2.2987426520438383,-19.758557916484946,0.6583449705534363,-29.91828125449766,1.996986519511398,-64.62412804973009,-0.01795755452207415,-11.749398147899702,12.964650027439765,9.877478239248017,-1.311816632949292,-11.671157118288459,1.1965027878169177,21.662330386451067,54.998701918919764,-11.830668592784189,73.2103426594491,4.553352050099012,28.621716458438186,30.942636919902924,0.3902288993117058,-15.932468152716345,-3.0586570015058405,-23.280782483041875,-38.78057472384837,12.958345182660794,47.484772307296076,4.033359891559271,27.07164851974187,2.6892568382006394,48.943055874332714,20.029998131078667,-96.46526258503793,-45.7372493099049,-62.742187263282496,-21.986071942344616,-7.077631581398883,103.79652524797224,-3.239731383964237,50.02833903289207,21.004194978070743,-18.167410387227324,35.39937176493925,-7.605772921351617,-3.720633303490563,6.739404873573213,2.147173462097911,-3.732872130910297,-4.428331449041315,3.7164573698792442,-0.03165286371793208,-4.583288030439924,-5.257329659965026,12.336976683016195,25.260221867790758,-2.735323799836319,-25.745785070647674,11.862212870355245,-19.096959210287512,-2.5725856038339563,-5.12711218705766,10.654325427023362,-9.438618692721079,-67.83030345074475,39.722950053161966,10.015395722042912,12.70111012757477,-2.427506828633928,10.111353344546664,-6.936329748652899,-17.102442287837803,3.5446086139715476,-7.495284347533907,-8.376976879726964,-12.370798430213686,2.187295634406585,19.583802690531858,-5.8096769925360014,-16.325243970798624,-55.048592367336596,-66.73670292434484,5.3644987297078295
43.09090042114258,1.2728996276855469,-8.780413609226464,-2.174698312012257,12.125552300418683,76.38389509725604,0.7578927271527975,42.390894185406715,2.397874101975871,-131.73334018913047,-33.912888136465604,-10.230308676178275,32.65123475496236,9.422957982983604,24.711872972094177,-4.259748473314845,-27.461754262753765,93.05717459105216,28.440872137857465,-42.41851277093307,-18.586799620760917,-14.154352071832907,15.765222943591347,-1.473615910360147,43.73775725058694,54.22558793855043,-9.713570340110877,-22.831501774042724,6.670310772512497,29.815650795499945,-0.3082110905472968,19.760935946486413,24.2248955626428,-2.933821161502557,9.554362619593103,-26.067245420207573,-50.83957263689665,10.280445323329227,-25.03732075394921,18.265359436871996,-21.002680849329586,36.59394722631121,57.878969770486194,12.743912136527868,-3.5155334175399906,19.243147794746804,-43.18216343165778,-41.17892063055627,16.162532008528327,9.074433326417612,109.87928001963522,3.6533527360763762,10.00510858982004,6.160385122262858,24.368215362738006,-29.099035364494384,-48.672544594973864,4.276171577614308,-75.19128794042494,-11.612074459476004,-7.164547381589565,6.6106133932864175,4.781682336013283,-7.254594605783533,24.029512141728105,-4.200241099476146,-3.9290650207488476,14.243974745751487,-10.393924545297482,-9.05562575513598,2.98174186280637,3.155644214561361,5.669815894216794,12.280599929295409,18.330359884395417,1.6047932207999538,18.71981035949827,19.751035673674686,-22.634902816150827,-3.034324256996584,21.65469129340822,14.039439681142992,36.19167362734639,-7.711691813449122,4.421129232522429,-31.537284749386043,7.70098207246193,26.985129179512395,-4.049242537573198,-0.2289414919218249,-0.31389224217804657,3.988374187692658,-4.750104318631548,0.32075022978424617,0.9796650389534939,4.254103116940044,3.314334672069837,-1.1342491967982031,-17.867450319287602,6.110143308593237,16.722678387800794,-0.43672553655652235
44.363800048828125,1.2130012512207031,-0.5148956675929441,-0.5522493056990012,-24.36164863644641,5.855470826285076,-8.729951946181082,-5.298655628249392,-17.789646769973114,-24.817831643564247,-19.258378530734806,-55.048923662649635,34.26918060626359,6.678577695082523,-26.075121459491516,7.291580876842271,0.9522521299607103,-11.183301833201323,-3.220473874026661,7.241127378321773,-10.291227363863115,-28.917862657650886,30.91001133992077,7.640408476213522,-24.767406708627348,7.523471685700649,-10.012428595140953,-12.144594606137012,-12.145725126232627,10.729139491066682,39.10532579671381,1.7620096474378275,-9.85317103312606,-17.630844058628867,5.169750237802153,22.654691873891522,4.574876438309515,-33.684159312382405,-20.9467369325226,-15.399079051952256,0.2622085028407535,12.525895505685906,24.90470266257214,21.814965398781503,1.3747727828686211,29.63949797024132,25.906688952821824,9.500734788912295,-12.216166407270547,3.159749859827544,42.89819235872733,-0.791137158888036,-36.46413425049191,1.649302272093525,16.79870052495309,-29.14486966996798,-14.104086255469252,-68.67507431455596,-36.273376655575255,61.335203421092,39.9291819506189,22.380084898301426,5.718824622502444,-13.443201189236433,15.75270004863324,-12.634431998414897,-9.397527596039104,25.93782701465695,7.907634658275356,8.110904853203275,2.7298283943461774,-7.510311223129933,-8.520396513380643,10.30863027059739,7.663915306289308,4.008494326945774,-30.307439315026894,-14.782207333209328,-1.5840760261643725,-6.380533104122781,-8.832545990901126,-0.7121301042917254,-44.07058048339654,18.422219298977375,28.91234771340803,9.907368959396374,3.1299560422073163,-0.8534513365541507,2.134726777279196,0.9059401036222501,-1.1353507549389064,-2.7304525987451105,-4.4144149510858455,7.786536802771286,1.7639221252851984,5.694477140711786,21.376711955549403,-0.304743122050096,-23.53139942212169,3.022737417938706,7.629658738092071,-8.175693094345554
45.57680130004883,1.2533988952636719,-4.383461099336107,-0.6528799891646164,8.545135462206959,12.196800807493467,2.8290309697442844,-23.715141547968656,48.11204418873689,-21.618417186957984,-10.417076821011953,27.822790351290504,7.9733117552498225,12.209306515061083,-13.636938030706618,-0.9205224787127664,12.0917545229116,9.63175021894466,57.37931892218618,5.742867322793928,-19.68782992341772,-33.790308228270916,5.546577330944981,-4.258414504794788,4.2232649418760495,-42.91663394737538,-11.534759399219812,-23.07397468956123,26.53731738874267,62.00396089672998,-4.656807237256667,12.17318280339649,39.128968095121294,-22.60448813041007,-1.170543081535853,19.138819593052045,-44.84515396806059,-27.017858199388538,-11.394913427306747,14.539929257149762,-41.759927139550875,-18.35184546019827,0.25965063372117014,23.91098204134763,-4.572746650877824,27.496899821784435,6.133434707815984,28.176628095543045,-4.400925790258723,57.08832475757664,19.62378830578942,-0.7690456527639835,23.73596271815038,-10.642801524088197,17.054722484577447,-5.435374207828614,-18.00020656561512,-56.761324339028256,-2.711120088628647,2.1868233587482413,-3.116656185235163,7.047517184535885,-11.89375638766812,-1.0478572842751686,-4.324749242191901,0.7831589896636626,8.77245256139995,-4.526496339144536,0.5214700631689243,30.341415110522412,1.893076215322802,-21.99333454997567,-14.34402793365797,-4.37936268898755,12.719633626624942,3.330682420992377,-17.291444435133574,0.10276366613101402,17.143904200529676,0.638366564723952,10.165303235460668,7.4788308437627204,4.449029352364375,0.7906510012917798,-11.476003576245013,-1.8558133060714792,-2.610386193176838,-4.077708326903711,-3.089582789663786,-2.592538408407554,-3.329566426749513,-4.839930915393203,-0.10337213622046537,2.521747743978649,-1.3087207569240762,-6.967330704060248,9.318393103319835,4.06783460867562,-11.321947007595249,-11.651810384116047,9.830286421056405,7.594871898160912
46.8302001953125,1.3232994079589844,-2.3029515383599004,-2.6620207263192435,-3.957720043427529,4.534259834833663,-0.5418761644303949,0.18021940802603353,-6.227199660966487,4.039714961679717,-32.34782361288214,48.79949956303574,50.576608246799154,46.87799129449142,-17.42776724187539,-12.276790725966267,15.046987398571968,-4.748130282334207,15.507835699059141,-19.903458229134163,-11.880382301051593,-5.510973232451793,-14.012977548418856,-48.28387154091985,-42.96808108240239,-35.32636711266725,-12.315712897515812,-10.021986745527315,7.315487597422003,-15.96447564404603,-4.86204279046782,-0.9356839149901868,-5.948809402143284,6.417592472561084,5.101965325898766,6.861473762411434,17.863320557480588,2.38053622083205,-4.707156041376983,-10.263803850709884,-5.98449475396575,-0.6157176025549997,4.983749382776053,21.410480503344008,-32.580261250672976,16.32045410368298,-10.062323972810564,67.16743458751743,7.7063527760415855,-23.026456400375565,-51.82833246613413,-6.585554868688861,-30.747207313715776,17.034581125491112,2.8043705461243373,52.08733135682458,14.073074706285121,51.05249573625839,16.444426279955707,15.251259047781396,12.466272758449406,4.567652350167981,35.3175657515535,-6.471689903092853,4.459178484797251,14.102043990004107,-0.45848068489900484,-13.347040062639543,1.8155334077883731,-12.121444302608452,21.146126998040618,-26.497328760581656,-9.63984022576347,-5.203734651183116,-15.086553851546931,-38.96054788902793,-13.633117875978073,-0.5491727428073641,4.474185143494787,-2.468519313385291,7.406421754908031,0.28813157084660723,-17.390175032273543,1.9784035506221846,4.2221205741057775,-15.052016847225987,-11.250689359266246,-22.20813590562529,5.949527172934342,-2.5148491092187952,1.4433140805540692,0.4716665870960007,-6.287248269505163,-4.896594997272608,10.74481282533045,7.046527376149729,-5.961392963306657,-10.887628374538664,-11.72724409641811,9.097583396109858,-12.107687396902225,-29.149813585683482
54.16790008544922,1.2425994873046875,6.917907759697879,-0.22586702532417124,0.36785317521766636,21.08506891364993,1.0323413123315985,29.49158673033497,-8.251920810595939,40.064894452371774,34.15015919868808,-14.242742988257476,-6.292251346234737,-10.92485404600576,-7.600524485410645,-5.077441289109579,31.64093099831482,-6.751554538886125,-12.882143836584852,-7.061633082494707,9.798198411607263,0.0115507007619291,-10.868857437995846,-2.20434853291223,14.153831766243716,-6.121819248763629,0.1705982718509746,-13.358695341811025,0.9094672173440017,-7.216885427685584,-2.7126413571318633,3.98280385334798,18.291289169956062,16.501919872796513,32.6910349940765,5.272301354358365,0.32214185813954943,7.228530161750324,-1.5684696240463478,20.182464292749277,7.431285469107804,1.2688315622083213,-15.833434711703354,4.63373701324019,16.771545893724223,-30.92171263633891,-19.362088505472105,-8.021054012971828,-13.159081530967152,4.982882361534477,40.90289555382514,-45.50130266559399,9.82133957422337,22.81010810930957,37.81206626165235,-3.7750666412299214,10.104675058753388,-1.4179633724988472,-55.493776287662875,11.656255125186476,-0.05077292476858286,13.418078014290156,-13.980510048246558,-33.834806757681235,-11.759319772918998,-5.833328345724466,10.12553054348167,21.35423449506211,1.8896991408293875,-18.863455685185485,-9.754335022255903,6.018366244706928,0.31173541788189274,-8.15732833638614,7.365341745928709,-4.0540125165438035,16.652462718673185,17.74540107227884,-9.225397734603646,-6.38854632430527,15.101340277363999,22.07669046470873,-7.006140386120423,-0.1980442729753732,-13.355111077773495,24.654091975969,18.975276942973114,46.257078615668505,22.259077071997822,2.722485290101656,20.043639611126665,-0.2768296759823947,-16.86521302700207,-7.278208805444491,8.360769387171661,-2.5557925384797544,20.333279713979564,33.36423133957831,-7.469044392510112,-9.89208280871849,2.183644171056131,0.3669606571840869
55.410499572753906,1.2028999328613281,14.211986659910593,-12.372297808649142,15.87603996144613,17.174528904290877,-52.516208394608874,11.883638039499878,-3.684646515668129,37.77150521365792,-36.393973563181646,20.72281628846206,-7.209053032139408,-18.451303920211096,-0.6695792651587118,8.512290928296874,-0.8394026620620436,-45.70058507143209,-9.010843990306508,6.0975899197598675,11.090378928662,11.528219952024457,-7.194401919517905,7.334623051282365,19.889413144702438,18.895939046291492,29.562942707719394,2.5103441643289828,0.7634556048220893,2.7834509322544414,2.1355111006902296,-9.16681193219082,11.350985433724418,41.193900130317004,-1.1389098954681396,-3.451492704501801,-2.075515312956501,27.11357861344175,29.14337588900108,16.99510253333105,31.102446622210245,14.67782488390695,1.462601310075406,1.0317773834905999,-7.207772126099567,-28.859321943285295,-47.749232540365526,34.93727715161686,58.87984829642786,-16.78143714031856,9.987495398615698,17.973847762370518,-11.980604118463553,26.579121329773685,22.152582716702238,-45.332854273511515,15.487507984389929,9.157830816591982,13.435603749506871,-12.515221165385826,-15.494112203272303,9.438225338113067,44.24481337313166,10.247742638151774,0.4696239204523289,-1.5729144863371038,5.077632416775355,6.146049321693167,6.6075099809678,-2.916081278197873,-20.8213309746343,10.002850055972853,-2.365622657023768,2.722158670389452,25.781550499505904,13.96976338543929,-0.5906311106165028,-26.715676202543992,-20.93121002046262,-41.640971686368154,-3.6969203787982683,2.9337773331821415,-15.811451291904634,0.13153870365314013,14.656911671871288,23.36169724401286,-2.1223022150175925,-1.8545912883900177,2.950733403173137,14.435480329255245,-15.576238473122096,-24.23966553464476,8.601311162300403,7.514594184678455,8.014799911657061,-18.872821305675334,-4.0788420871480655,1.7063287148421975,-12.250329920442462,-2.364495211112512,-18.250511138025253,1.6067338607253046
56.613399505615234,1.293701171875,-4.469472983361509,4.973987220964791,-10.92861035485816,3.832297578563347,11.083446929282848,4.157090642456783,7.690853097466253,-32.4636368842245,-1.2015352502550343,0.25821748968297054,7.7455807361938085,-13.741342484776165,-9.816121995078852,7.658081212701781,34.726794557613026,18.066509122288917,86.86900650890517,16.294015114895682,-11.862163587289437,-14.188841073586701,15.493483565557746,-13.777874338019593,-5.568134827017624,5.3146559578780765,5.101798440611016,14.188418024054306,37.88584007352878,15.36559921090004,-12.446565452118396,-1.9542524042843934,79.57442918542685,2.1836237654729658,-39.513237605267676,31.68690846260421,-16.396410032723956,-9.362112084299397,-1.623210306257915,9.869863478832443,9.707396690305519,-5.396070780337592,-7.821863800199777,-11.462802189925887,-0.7340588924322629,-23.780913894654553,2.3338520659737494,84.18906090988575,17.569850907832524,-7.407882914101751,31.465583573652335,4.496045402155939,11.18878900480468,8.032687563421927,42.77839507564681,1.507393050149589,26.116763182363705,-33.88216667108506,7.814499673784811,32.38832163265847,-3.6722670353387814,-17.599421863201933,1.194550716481737,2.0219081033707567,13.299055891737456,-1.5203679343822771,-21.05576200323472,-3.0323420359619018,0.26129145678844745,17.227710324215177,1.3165342556834818,-26.175640838440383,27.37483442898212,5.6151500547799476,-8.421345231753213,12.854343898943263,12.429259350266534,-20.745324523648332,-5.190010698484334,-4.769705632622655,-8.67431008022691,20.084028664408173,-3.657768110522713,-31.649950212511992,3.86085031422365,5.809656241651885,-3.1899293682731007,4.2197537117662645,-15.489304588578912,5.005123853690209,1.4225541635078978,2.493956669523355,-1.4668863948612016,-19.04413312510279,-9.978497341459413,-1.3783932950674154,1.7219784441793484,-2.760626126371005,3.2748408151116113,-1.3641757434579758,-0.5562675827322359,-5.109613577209544
57.907100677490234,1.3429985046386719,0.813296033407271,2.396187601683181,4.790044065114683,-3.2773871515377238,14.54031912477764,7.588558745961121,-0.46035554996230843,39.523597730776835,35.100919889592305,12.422929973131836,3.3519466980310115,-4.259776774997852,-2.893149374378898,0.10228701726583034,7.95638224222016,34.479589579753124,-14.160980309461156,-6.757540286381472,-8.435450417826628,-3.16026027106585,-9.807401799149758,-1.4829230320256022,-13.308708114714442,3.2631547872937805,-28.392618739472518,-7.455814424884794,12.191436342122945,0.23268958288823072,-7.836370692132284,0.4170508751502786,9.71580410690022,-5.033611213075249,-4.996305826076817,-26.656229310283273,-7.785605677003358,6.289309438881096,-12.839549355391384,15.735139752932922,-10.923209846896889,-18.323637312298327,-13.86202193639539,14.042648847036826,7.719345209300869,-6.921899714333774,-1.5423703232086101,14.64872403347158,-6.349373941901016,-30.575204171480593,3.817934730906456,-13.587740025831549,0.0627494179322648,-28.543978264062797,6.694894329908646,-15.394783205414354,19.71093083445281,-2.4764006512556422,6.442911800701815,14.887937123367749,-9.755325517143998,3.446464246216152,3.2580633032725497,-19.63069160086844,-3.6627938912418165,0.07467595484794476,-1.804932175176153,-15.157477210798286,-4.873218824429493,2.780427429894649,-4.795392553855416,9.89966922211863,24.035267372643645,-22.78318716793223,-17.763108098474905,4.054232981427058,2.253392355310692,7.747249067324172,-14.474961251270564,-6.330169998070719,-8.761273928004481,22.673307623394397,24.886891513915636,-8.744948114649947,-8.427638835416548,24.848246459917938,12.641375654178486,-10.173225311828226,-1.5005419347132583,1.8552902529268884,-4.997834914471629,-2.5089347909795277,-3.62038361478214,-5.18752175915652,2.661839723206036,-0.598400824961715,-2.1508375304617093,-2.718254877790753,5.270834414066229,-1.6488994630097888,-2.964729639555877,-4.3556006993715215
59.250099182128906,1.4938011169433594,3.1599579493803773,-0.2987305039192235,-1.7601533126753304,-5.8253535279701465,-3.6957814839864063,-17.82346787104262,-2.0966291350891115,28.906487005776317,-7.926656175776781,-6.849938882494638,-21.991748933694893,-1.561459798273041,3.8023057675866747,14.156111558249307,-7.395460675470739,6.838309910655071,0.20307595623385,-13.09633036440466,2.72764814204369,14.295308356569347,26.34979454175148,18.75271567839283,-34.7316481195279,-25.567805550786176,-19.426324769259843,9.059691473109654,-5.307674418694578,-6.551569729532159,2.2340741905347006,16.381502902015608,3.0459794126555337,8.570847813372723,10.293698845614166,8.964613661355807,4.459379876886009,-6.72060995303408,-2.2402118937344513,-0.16466494546649413,-1.8449509811079552,45.121606750650926,19.271004493523385,-17.30156629095834,-8.852404837669711,-10.017661129337363,0.6960873749433307,-3.321907906594941,7.8013389105112925,24.412702789463612,-16.689323575062904,-1.8644063798642145,-8.871352392148586,3.771905007461232,-17.904187755978736,-6.079721770453212,19.74616348841786,9.317055484312313,23.53903990039558,14.985038777728917,-5.615375853266364,-1.4877169830666452,7.49319309787272,-7.860632046911621,-5.074106664521562,-8.489513860440486,6.274905022646995,-4.416027392674729,-2.456893534061108,-2.319568402782701,-18.692724094858335,-6.832345288031481,-4.265447144552986,3.637073355822582,-10.667674672307363,5.189740838791235,20.36705936073178,17.607673688203793,-2.091671285543009,-16.304276049329335,27.735400351246508,4.668150823353736,6.983320577560281,-9.865153383548332,-27.787872735212076,-19.484864306005278,0.21202405511669342,-1.6605548728019213,-1.1695556638606333,0.7387267996798208,1.036702627901883,8.791490762573465,-5.995470879732331,-5.62628396518225,1.2908794558130108,1.3257883593305155,-2.7754312151385605,-6.139996207455745,-3.0164133943379206,-3.7457656585996943,-1.6687296844524928,-4.85471555484756
60.743900299072266,1.4132003784179688,1.8117236327814403,-4.119184581795411,2.263554948954974,0.7356686587795893,12.001704950936217,18.52527866303616,-10.561485659383033,-17.308745658101166,5.777793045799834,10.98014964277291,10.84508896748488,13.727890008177514,-10.249558387114643,13.467846321324282,24.559587937081808,-5.160866231521,-5.953863965159554,-4.295858959222217,-26.56884683544269,-12.94757113313982,-11.022960641664794,27.194287331087512,-12.619313575838145,-6.03466947457029,-11.504098405046822,0.02472495254620387,4.256464389846558,-8.167563049011793,11.289374617817254,2.398441272663468,14.583694438052689,12.088292795539902,7.6161241452087705,13.68594473805608,-0.7313935767671733,2.5470461821133066,2.596594416596783,-20.34279711092293,-2.224386972086002,4.596519125309639,-5.147241974792088,6.765543545355831,9.305814033217787,-15.615714243391448,5.199512667463722,-8.89795432346359,2.8127790710836984,9.650528071371674,9.700354582947508,-1.2972947236790198,11.322840993446176,-10.002218636280576,12.510454088077228,13.862323207874576,-7.998582271764931,-8.408245249292891,-16.252393264706264,-6.848137450476824,1.708995853269232,-4.2083655113991405,-2.5254190712322924,0.442355322577082,16.420141121564278,-1.8473966446982546,2.21656831599691,9.830897460636237,2.778721718575626,-4.233826730133863,0.6958827488135277,5.11704392208197,5.359703908021842,4.292303231004588,23.144775956633104,34.536838845542995,-7.508290714703029,-3.300112822057389,-9.62356287274681,-3.4581551264447947,-11.710953313215203,7.148170545716043,-4.511463145921638,4.094327372815005,0.7233065299055788,1.3231260344084292,-12.879966709090192,0.12858819593381465,-7.354757350525455,-1.211226562183526,1.1917346014832122,1.008346658012173,-6.774048199629544,1.6236774571835566,-6.103046678623224,1.2395595906687848,-9.131961697446648,3.3312885001918495,-3.694879788502194,9.965097473222947,2.846531099258968,-2.51847818842519
