start,duration,0,1,2,3,4,5,6,7,8,9,10,11,12,13,14,15,16,17,18,19,20,21,22,23,24,25,26,27,28,29,30,31,32,33,34,35,36,37,38,39,40,41,42,43,44,45,46,47,48,49,50,51,52,53,54,55,56,57,58,59,60,61,62,63,64,65,66,67,68,69,70,71,72,73,74,75,76,77,78,79,80,81,82,83,84,85,86,87,88,89,90,91,92,93,94,95,96,97,98,99
38.774051666259766,1.12969970703125,-0.05749097771036826,-0.07688311067938322,0.20810971293912398,-0.126082317703649,0.04332438907151748,-0.03307163341705069,0.04871840695830019,0.17905428912580573,0.21624881490089992,0.09941289010726925,0.04405837383117717,-0.07450670780454807,0.03151929511266047,0.0021392940912626553,-0.15651829673281287,-0.05249206112369408,0.13411207742641912,0.2681873739145548,0.10012165103377021,-0.0063174579383470115,0.018802405165537328,-0.010151106982629636,0.005033475035364297,-0.011226585864490164,0.00013796589204467802,-0.00596083123572503,0.06492536458104246,0.10101675628158681,0.09228810509999258,-0.10569682419527941,-0.08445083317975446,0.06429192548838221,-0.010222447729869143,0.11318509022021347,0.06540369107358339,-0.07058574441861531,0.01856963417308007,0.08590380558172062,0.05242724661145563,0.00888529089403409,0.057872460489869416,0.032208807702641,0.1205090010165587,0.019810935953122187,-0.022254360195304735,-0.009721647695589863,-0.14225851440051834,0.02296069053908628,-0.007279293352582414,0.06798894340359149,0.08249966894901564,0.059859508098536005,0.08755403714246274,-0.08822524448419049,-0.023567622631827056,0.07972142551132928,-0.0646004707710936,0.042672212707632634,-0.024719784330078435,0.008859345277474796,0.02174711159501061,0.04957107328315147,0.059644530989637796,-0.06460488364260646,-0.025200169721659664,0.028255988771665425,0.037044209761027666,0.008595196883343401,-0.051238132077715035,-0.06326853554615995,-0.27796262928406457,0.03883160563592983,-0.009777691205126539,0.021779992023592397,0.07870905350276437,0.026130758115972878,-0.07372960979587054,-0.03921568122050684,-0.05739457516338389,-0.042700792782110836,0.05249725954344184,-0.04536191726812991,-0.01499384432480828,0.09145734226572615,-0.02104694588295227,0.07323874959937049,-0.007721918783013363,-0.07674223226232345,-0.0039184528732061335,-0.09804561180684472,0.07344877933281836,-0.11893902648712411,0.021180575603903996,0.09762477551733376,0.03756837137914204,0.17525332566806548,0.10556951962120004,0.22110131931235277,0.023110319700003188,-0.10058621215683222
39.903751373291016,1.079498291015625,0.030689414236390378,-0.026730964430665576,0.18424594452121956,0.11544920273151052,-0.11945427708881654,-0.04960085191117751,-0.020629395870640048,0.18014815793253947,-0.07168635702320028,-0.04057031186585565,0.1583546025293301,0.008181061000996775,0.1142082652646554,-0.13078367892969422,0.04232039571566856,0.11770589640409201,0.14310750029139876,-0.07522282235186711,-0.08082432375738066,-0.08772000032093195,0.12325462581435365,0.017851304166479648,-0.04589840017042414,0.18619019607052947,-0.09305358995534946,0.1592919227061226,-0.03904240467524647,0.06261207727846448,-0.16034473566594165,-0.13078787569292125,0.00882598133769947,0.044290130838829725,0.03421419470557601,0.13021929979923497,0.10902682014099441,-0.011433898100526982,-0.08941927180496025,0.11296154164533977,0.02815996841328522,-0.03066504942147018,0.14579547088453532,0.04058384076301034,0.019739136591274936,-0.0014968584517363187,0.08345917757497953,-0.07180352471528238,-0.11367378491163382,0.07322837112962752,-0.12783890469505352,-0.006043243750369411,-0.050197959952467876,-0.09578883937037021,0.03658372287695659,0.03613773144772013,0.053137489579495184,0.06334535420832502,0.008026133599084639,0.06807582735766579,0.014371672734498561,-0.03975712622677344,0.05095791454622822,0.053161981260791656,-0.04736394002514381,-0.07378072951567036,-0.02600397639397621,0.035939973421622556,-0.1649268216065575,0.10461745297864634,0.11127426077043281,-0.1492601705837077,-0.02352072021318203,-0.033783356777722255,-0.09057173183071345,-0.002382424252723239,-0.15345423875415157,-0.10517660655277462,-0.0025237579569187957,-0.012768744220554181,-0.06427150312686081,-0.06852111384397432,-0.06748500301153547,-0.015378803913228135,0.04205524402705932,0.08114706021093043,0.02784778398924056,-0.04917815151105603,-0.05221979476778496,0.04431018463765472,-0.032949205903350126,-0.04067990147287684,0.03985756418085865,-0.05767917753146089,0.09077712158984344,-0.026565071520519856,-0.051417253992214,0.16285025064607944,0.23477478280715722,0.2053577659796496,0.03490355444440365,-0.07873087773213798
40.98324966430664,1.090301513671875,-0.2191481261564596,0.055196819280720316,0.14448391599478538,0.2974829968148208,-0.08914691921268694,0.0552902097413847,0.05531404280345187,0.07279703027836064,0.26408871296451586,-0.1913301664574396,0.08959896898402848,0.34928165543971923,-0.10112012782894515,0.02364834447443743,-0.07582813034845634,0.2851267670966529,0.21385028027408617,-0.12568575378258362,0.09310678080521069,0.2959199484852274,0.0865392191571941,0.09275825838933739,0.1701468189208569,0.09356028927182938,-0.1324655935804414,-0.03954936186679908,-0.13882825846508873,-0.06692881473328482,0.03152433731401311,-0.09815502168671567,0.06389606501979711,-0.04438151094818386,0.10448833983782468,-0.020582910914077893,0.02076275499414811,0.041855970402840864,0.1373902289521805,-0.01304741876188879,0.03905187859802218,-0.020308042837451752,0.12664851542208624,0.01993928300154993,0.058816393489261654,-0.04975005278726102,0.029610837067371006,-0.037830781943887705,0.033880705857547655,0.02231821520386388,-0.04160048102044103,-0.02782963256128682,0.052811378806803956,0.08815624995564778,-0.01972235631153467,-0.09821167113652529,0.05509195627918507,0.029365961682350054,-0.06369501763786721,0.06021087948067315,0.10761837328272145,0.0018754008074543527,0.04448646484604097,-0.04128887259740656,-0.06544295053600449,-0.022238986469662467,-0.04940445302178198,0.0848521417942309,0.054634365079958475,-0.10775274898145573,-0.04013729245052525,0.12719028725240397,0.03172040925587502,0.015548002328614172,-0.049569436313922646,-0.045329912687263475,-0.04133619729727096,0.04839692658483312,0.05900957288652808,0.041965901139131304,0.08434657734840592,0.05508485050451448,0.008578123088825641,0.025615957064616897,0.11537169614032448,0.06486424250209903,0.019056750222894367,-0.037848724602226075,-0.09176424650419486,-0.12012613907176156,0.05843849022784853,-0.025246514577437637,0.006762512038359415,0.02341396036807404,0.04327839952797051,0.0161953262158639,-0.061936607872270726,0.10028381375037178,0.0882508720345726,0.06479180794327132,0.008300598891501905,-0.10980189268484493
42.073551177978516,1.1096992492675781,0.023512963574573498,0.14901554844289328,-0.06218301783475602,-0.06767576231821641,-0.032735854678161834,0.09628066710815146,-0.05662900776452116,-0.1404987309199747,-0.12740159609039473,0.2975634284860063,0.05957045512758386,-0.04765741236396264,-0.23455722141440902,0.02217936072840537,-0.15889035997042822,0.2040475925233404,0.16012324459821828,0.18973518989621252,0.10472183920548644,-0.0809622956973708,-0.14489761071011606,0.028952858136771776,0.020032066429642753,-0.017964316791154726,-0.0267998151943652,0.11773483837375387,-0.014118039564215604,-0.18308912827856363,-0.3119139161455167,0.17038088206495822,0.05210582192211928,0.0018210980492877754,0.14530661618665208,0.06455710787226489,0.098263895772172,-0.0341157669622983,-0.0031260371807997414,-0.005738854916926598,-0.08574065578620393,-0.10771089945294854,0.02468151359332004,-0.06930800382936113,-0.08687920889521476,0.002105454407383439,0.059467951466870665,0.007887963047135925,-0.051307217940330496,-0.06753022157220501,-0.1799688687232802,0.009398544863543641,0.01538316539633073,-0.052353327265086916,-0.07340081166052269,0.006993646692403337,-0.04783879913748257,-0.11370561820798103,-0.007254404528947142,-0.008407192259717915,0.003193088093205232,0.05992018455987416,0.04212820723927073,0.011603480960572168,-0.05432433552298278,-0.07365194268607461,-0.14107115120465624,0.03207263923763285,0.04572540658544078,0.09798794127660475,0.011319301162711487,-0.027821775932764622,-0.017019773715548216,-0.06282968063931768,0.07479858526304542,0.008633682284493571,0.03800893889741611,0.013954711919582896,0.08251577568047028,-0.052231535955899626,0.010106224209801631,0.016768914867606472,-0.08052587640429151,0.13314984557179782,0.016092173975101428,-0.0010108253719008642,-0.05808964300881705,-0.013130480090303001,-0.08887721875022814,-0.09498139134964459,-0.12023095967652866,0.04747594019774273,0.01971078863467947,0.054152949152943254,0.06138725926892246,0.017951870096887586,0.20712181329864968,0.1677094664954464,-0.022120905655542866,0.12160954033061648,0.2347522639483735,-0.15487234910823927
43.183250427246094,1.1300010681152344,-0.014910021864202566,-0.023767015768339,0.059164476598852316,0.2593658710437916,0.11304109790448845,-0.05301567434603942,-0.17471539621024448,-0.10931768646671693,0.102052720837372,-0.11215266617663966,0.1959614282047286,0.06699011361700428,-0.03300398100142128,-0.19806946513652662,-0.017581835439560795,0.010993110647705303,-0.009928398693263608,0.3305936268479408,0.1877914284683181,-0.11399756313500771,-0.06896278338036366,-0.12778464884182783,0.2157989733203963,-0.06372463999093667,0.1475791092617816,0.12213208220302668,0.056750026450578674,0.1241142566164917,-0.014188634615701785,-0.19517811140207775,-0.06313224014977187,-0.002655550866820296,0.04529759281212945,0.03583163368598601,-0.09038190811872872,0.031761174902814354,0.10424250764894748,0.02440735259801051,0.00982288373234433,-0.05215194537367437,-0.01499454535567654,-0.0269260643296083,0.01771177708809117,-0.029458165249386298,-0.07129743965716726,0.014697803362307452,-0.16895665157287645,-0.08517427131003286,0.022050701514447,0.03795194596034971,0.03597572741857695,-0.0013160882657255704,-0.013841789013795583,0.03934955323301437,0.010696555385059162,0.0029320070988177443,-0.04406775431636922,-0.024189402084768233,0.04358031667287329,0.015001742792034093,0.08142926158375484,0.04890929764044156,0.008543702652168583,0.009346364798257673,-0.03294064289437823,0.1040640472080359,0.09068029841965476,0.04026777312699109,-0.045841135422936656,0.0012325000152508293,0.01757242308462765,0.007916276381970894,0.048203857788211006,0.011872004248874093,-0.06862087971504174,0.011559828876225826,-0.07712406875026198,-0.07606883629129017,-0.019366621735083172,-0.01844940240022686,0.003699345713099585,-0.0021565103011770936,0.0076660707169468574,0.019173934564250025,0.01000796995731216,0.05498134673697294,0.04248485766476524,-0.11832970812396088,0.07750039736867698,-0.17022681681550847,0.02788631902366239,-0.02052305446529855,0.06675212887056552,-0.09858407196090534,0.11286938282012517,-0.034397414353268235,-0.0367462895687246,0.0007154218062038267,0.09869534429498254,-0.1669690600125855
44.31325149536133,1.1394004821777344,-0.0393737313756059,0.006015182044261699,-0.10943107217816495,0.03948932431047261,-0.18068652353177525,-0.1408093917940219,0.08353993069767207,-0.23366963313712333,0.21500062167518652,0.14244232364160972,-0.1962029133301391,-0.08395909774214888,-0.10584283164813228,-0.036636512832392484,-0.03958367167088231,0.06360666218803507,0.03825103340161019,0.11239251876708975,-0.08603056726806353,-0.25218694633165845,0.09711996289410751,-0.1717080387933726,-0.24213384085730408,0.09983384124727106,0.015198631805244153,0.016816232326140143,0.04625308379908461,-0.02535051084855388,0.06808970697159343,-0.09680292588027473,0.13979377427999615,-0.020264469940615884,-0.05590359925631799,-0.1814153215043043,-0.020402432344602896,-0.13798642594604513,0.09959339788120125,0.007467354195915571,-0.1791551797091187,-0.07267367284372468,-0.04784528101400133,-0.04263490079645879,0.038730127867497896,0.05185442651274017,-0.05914057735339556,-0.025427235931173686,-0.03358420534730545,-0.03858561097083537,-0.03758429060788659,0.008922231666852035,-0.078467458103402,0.022395125088745336,0.0727222886034362,0.08133029553942016,0.004965554290941996,-0.0051723374822531965,-0.013727893823166849,0.018882954042956073,-0.004997132707221824,0.045975734330713926,0.018990496811901708,-0.004056365904910229,-0.03947225835470657,0.007017464543397062,-0.026090957069959092,0.12008780930164926,0.010546184672539887,0.056578207579333115,0.035430807033257704,0.13092736524069948,0.07065549284504152,0.025537583535582616,0.011173301666075986,-0.15741740398444407,-0.07944953021306794,-0.043296118918959015,-0.018492929603763635,-0.059973460367123574,0.03150620895455136,-0.0238738184264117,0.029048875643143977,-0.023336881183218396,-0.011293762830324404,-0.003789320994259466,0.05849212052041982,-0.043712887466370774,-0.05993960374164283,-0.01442075981016871,0.0861452550610564,-0.10835615281088652,-0.08995453750105449,-0.009103208491601091,-0.05941542913055338,0.03801125566686411,-0.04938355240833109,-0.025078014232848327,-0.1264773824891405,0.0657141180489716,0.17729041883742594,0.11679240403736052
45.45265197753906,1.110198974609375,0.10794840805998626,0.2632820765960503,0.1756830177183332,-0.12069525206559117,0.06831341641430344,0.007635595738839034,0.2395315413449971,0.05689535397939005,-0.0894141416365167,0.019644527709556943,-0.27006124340560894,0.0740288252931603,0.1870240877392479,-0.07257500567221911,0.04483679539762487,0.11831435625895076,0.013818279518426554,0.04230814383905498,0.11069627973068788,-0.02213567336034572,0.2011464353338677,-0.013124391668459696,-0.19687005087749104,-0.10037119068892729,-0.02762524445812098,-0.21317815578610158,-0.006748053903176343,-0.06737657305787553,-0.11297769696269826,-0.051951462852896486,-0.053915812293374804,0.0044142059143545895,0.03635603965024588,-0.10602524031679723,0.04928532850931229,-0.0030810995476970907,-0.2075313218737608,0.04130721964124125,-0.1694509435383637,0.016942469017237283,-0.004930537657268311,-0.016952377719184154,0.134314519403805,0.06957987737011205,-0.08831449672116815,0.06664885890703845,-0.058275397925850604,0.05351560613000811,0.011004545574962422,-0.021396200107976278,0.137143671546866,-0.00823614241091953,-0.12075044422040321,0.021083910431682333,0.0014646192696879702,-0.01853864329253887,0.06368865063023584,0.026527542462631094,0.00888392323800014,-0.012267048323286858,0.012209275751080058,-0.06086986265168368,0.004294388005969661,-0.05886072298935322,0.011639117762016926,0.1163848921147487,0.011089234672471734,-0.27528651568862467,-0.0797371883055597,0.009796077301425336,0.12111067718973398,-0.12972324608895536,-0.014465299960882347,0.05515292819918545,-0.001224859743028689,0.02275410535977996,0.011321953083415822,0.00447244692466716,-0.010040173236188157,-0.08567766378505957,0.0017785986282615185,-0.09302179692550977,-0.009453975958025575,-0.09537937739415597,-0.06737274251899059,0.005254406693543597,0.0717791486234681,-0.07614796047886149,-0.009840758580481765,0.002301944609117988,0.02144816827021791,-0.04899627075016412,-0.10261536053810773,-0.28031046363527096,-0.03652374590642641,-0.10488597199012353,0.011742248888254758,-0.17177035060627238,0.05858138907908903,0.32161067259981035
46.56285095214844,1.1294975280761719,0.3165479288550314,0.2560691420719462,0.20902878210769482,0.04994481835351817,-0.03621770558889327,0.01009793857449205,-0.2462613152979787,0.17859276870611432,0.08008025849648497,0.07606355816541525,-0.19473736488078502,0.11619516694239458,0.03589050071345315,-0.03899235442593894,0.052869290588904175,0.10980520795729633,0.02118144758933686,0.060055190208870526,-0.06507471039716484,0.0445402705720889,-0.03611225740523713,0.13950018302088993,0.13206042708964652,-0.06469311588659185,-0.005041755910531423,0.009390789299255898,0.15392708742305317,-0.007368006260682097,0.03335056272776056,0.032524923491507055,-0.07629171798693865,0.009322656601857951,-0.021807691893751376,-0.14769468060677984,0.08728421692994279,-0.05621982758494999,-0.06050298259961356,0.05005403240482397,0.18742036856298808,0.06320128274398039,-0.12418478868532114,-0.019566550420227806,0.09199052496924502,0.14265435776658345,0.035863162382002545,-0.023554705960200463,0.006968560537027987,0.019212424632067064,0.05326681292469511,0.007137066836771136,0.061406622262588424,0.11058098708907312,0.05897900048858037,0.041371352468410186,-0.1259725132963247,-0.1634941365335577,0.028308473071923662,-0.05087692064809472,0.010649034634492903,-0.03891286709883225,0.021086144865782263,0.02313328982681692,0.016952384916939327,-0.008506278306053161,-0.03078489844981254,0.020395061894053212,0.08872407252452173,0.12329232129133245,0.015934656026196377,0.09727363393576444,-0.006382482343960262,-0.011920886189504667,0.011776532049029087,0.031475602697955976,-0.05212590270430536,0.020440620222039838,0.040738573807713806,-0.005955827317117283,0.023959778832297857,-0.044045494392164826,0.022766666552186433,0.015990777585698127,-0.12873581443533028,0.0379821781738918,-0.036621049956736054,0.016726924032481764,-0.005972916367442346,-0.06204792327445035,0.09746749470058204,-0.031028334700952308,0.08973396241618367,-0.04046292359247965,-0.15582639382461505,-0.08629580374605364,0.03998575556379891,-0.0712126467958828,-0.06762823233283322,0.10367402988921473,-0.15729925903203612,-0.30892086598894974
47.69234848022461,1.1302032470703125,-0.19577431512234214,-0.06349206402338375,-0.15556849887076982,-0.003239634780881989,-0.19731760279853572,-0.21345022514519477,0.2991790259416698,-0.008735060680911,-0.03921565875804394,0.053368765701668826,0.011033477182584895,-0.28349849189120546,-0.23866165387479632,0.05083746075708316,0.017537662331820737,0.009324063490725926,-0.08690965159422159,0.009929930817569268,0.16088551857427308,-0.031991285176386,0.17485662889618508,-0.06248882311807066,-0.1021018481242986,0.11955213903814163,0.09157907659435895,-0.26231753496973587,-0.04412334706407241,-0.16611447673676527,0.12021734140467252,0.10846989793099848,-0.04757424605331409,-0.1766898392657631,0.007474962499019516,-0.07543536789187638,-0.029603223774876116,0.09525399705571409,0.156127375823646,0.07174819960093175,-0.07892719626397098,-0.003731113289303247,0.005899789950931719,-0.0001514465698194828,0.07257899191255168,0.044645130836527165,0.007960985976638253,0.044523537187457635,0.0009925113480971463,-0.11025852241435538,-0.0881857455856482,-0.04888908378057873,0.0075656416930032465,0.02318309725138637,-0.06699299843384895,-0.1220572527256429,-0.02603338791633636,0.009692879866817999,-0.022661034999716223,0.014645188427679433,0.0031242673461639135,-0.0032228476620331926,0.02812442984370182,0.01710375136651271,-0.06085338873591094,0.009500071308829685,0.04970035522798088,-0.016206672866275508,-0.07667266628294263,0.029624658877620384,-0.018142912256544727,0.07050496280767811,0.00865225105614692,0.0010131290435551913,-0.05622817984972441,0.005804382070764329,0.027218664662247285,-0.05814145392981393,-0.023792076422973936,0.04780553226996655,0.012104968195168748,-0.059633955465968,0.006483824121957121,-0.022142933806862414,0.020941985615700962,-0.050686762961440604,0.023111350156024328,0.06602296637972026,-0.009376389791699018,0.07068793236297316,0.048356750610245886,0.046512722966023205,0.12883031229625608,-0.023076839283982763,-0.1779552503060734,-0.1158929095594687,-0.111899049451802,-0.0639177639989388,-0.17134607364876744,0.10553590954659645,0.01295231296769933,-0.00109997305021714
48.82255172729492,1.1094970703125,-0.00916217775817725,-0.015138012644059746,-0.0019702348055509328,-0.03808033033714425,-0.058776933362300506,-0.12655151352131483,0.04291617408495746,0.29890585651727264,0.042557628984408714,0.039519198799825,-0.09696311566993143,0.003910558947610103,-0.03666893373623033,-0.012541530857865567,-0.11816056056800317,-0.1028298957991828,0.03961230984521174,0.24916108711182433,0.08209260556402104,0.018032956282006324,0.04174852531029252,0.04079418133511682,0.10293507387516515,0.02147579032541956,-0.07060028178783782,-0.15966188285663754,0.09009221547434149,-0.08439711006421195,0.049953919804048216,-0.009774029474750985,-0.019631549288102998,-0.06136804088812145,0.06750639439409604,-0.0885852671651477,0.06619870068350686,0.027710954029722075,0.13397998291676705,-0.01626392585491612,-0.12145748892672883,0.021028504220368314,0.06301552740629199,0.006732564015413101,-0.00896165433974696,-0.004876043582616119,0.15028129942651264,0.0018602916925892603,-0.056611904488873536,-0.08317357457328813,0.043110660614072135,-0.05635974731042371,-0.02806852645030191,0.01770604186019975,0.004544602703609523,0.020295972825754446,0.03633801756889575,-0.015547252554205686,0.013754975412752213,0.06628063577741695,-0.03259189672338386,0.004864402673408714,-0.030098345332430505,-0.008725709089408347,-0.003847163199963332,0.0009847967407162058,0.024689169610943775,-0.06849182612855874,0.11650924054304765,-0.039440110873583525,0.022241737660242275,0.08068281737312558,0.04449642078947545,-0.08179098922302463,-0.030396673947681866,0.1020998612381338,0.012365302615383135,-0.07173754627345237,-0.038931156397937504,-0.0013860887763078502,0.017349509720107962,0.09468506147971142,-0.035519323816038076,0.024942425534264217,-0.03305162608164428,-0.023659747126391344,-0.01964159342021106,-0.007020757479600969,-0.0786217689207292,0.014776252337960689,0.006288563983669934,-0.05533762227155853,0.018065581322191982,0.008446858651217345,-0.07431701322409652,-0.07214194623858017,-0.001203847234460792,0.02757981130517756,0.045879257007522545,0.13436724769842012,-0.09817405510300581,-0.051395341812075584
49.93204879760742,1.1202011108398438,-0.05924766086914386,-0.0867414538494672,0.23806740634561563,0.224533528674975,0.27744291497216006,0.10068805720159898,-0.15267980133212275,-0.12062484552767987,-0.02217935940033084,0.14896467694845256,-0.21223256765995122,0.25817848651965597,0.06217027522851247,-0.0529543824463972,-0.24078699373547827,-0.19575514179759654,-0.016172955126496073,0.28970699423796886,0.10767121924459698,-0.11134263515337335,0.24091709000370587,-0.18930842170405993,-0.16987133185415976,-0.1598741391823675,-0.046255926330066574,0.036389749437498925,-5.335565909569083e-05,0.15419581846628216,0.05435226531206571,0.16406201409110602,0.18090210126936643,-0.11357405907739022,-0.07056097939373789,0.00981512208228259,-0.04534993184240339,-0.09578497486973389,-0.01315349612948695,0.014420496573544434,-0.06579746390273378,0.10289141533263713,0.05194951014158006,0.04996761873530112,0.02006919857746697,-0.017720344470438368,-0.03223088875408248,0.07508237194917002,0.010453364391676155,-0.06754226039485399,-0.0047797531765022385,0.09011035722373076,0.05126126965193058,-0.06432506063962351,0.00046953214567430307,-0.05238503301881187,-0.039666133992543644,0.0015546831443497226,0.06429439996484396,-0.022033406891479704,0.05052786336164944,-0.02565885043129055,-0.05042493883953544,0.07128059209862496,0.0053041034667803705,-0.06702214308448204,0.008194717463919358,-0.005087252991602963,0.0425247827077466,0.05743279127900067,-0.07547405724534098,0.10767200801534486,0.041339538325298186,0.09045211159001793,0.021280147484314664,-0.10250220217989518,0.03725761491324351,0.0352722534394663,0.09640360963096722,0.06731898376175424,-0.011754914875327413,-0.07394779104277936,0.028681616369167023,0.012264693484457901,0.04504100178800168,0.008842727741385139,0.013332072383281697,-0.007779381152710254,-0.0791305843096744,-0.0017493269051653659,-0.01415193951299723,-0.017360711031375712,-0.0408717890991599,-0.14079008384685243,-0.08231274137859503,0.07055817763555904,0.0792568897872315,-0.13833607034073123,0.1421061707306779,-0.10672652408520444,0.03624666320482417,0.0021409755311397882
51.052249908447266,1.199798583984375,-0.00842405401325036,0.052835757743661296,0.021024072741994228,-0.09997319206655787,0.07168623053536527,-0.16716886480115692,-0.054865730290035226,-0.02359851256893531,-0.10054658433126007,-0.05265143005843163,0.08965383288758388,0.04055870259708076,-0.18200669387628207,-0.15326758204269345,-0.15695855335985065,0.22640101646644026,0.0405878335690415,-0.0914296736221402,0.03933863717404952,0.025343033280017892,-0.3851495175652043,-0.10911153109976665,-0.02234722922445201,-0.04614786099238946,-0.01356095254108267,-0.01608372457600224,-0.043517434887535955,0.05856406901312299,0.16190317587880912,-0.028353501347584287,0.02478972796579657,0.1624294485470912,-0.022212827546644345,0.05697825537434998,0.011713823338973233,-0.0704810343055239,-0.02410345170659101,-0.06983159869816927,-0.008711356550497725,-0.009708521145138902,-0.1755508560168475,-0.0108681681403724,-0.07130323100614397,-0.08639017523998602,-0.06011016557042225,0.031937714564986334,0.04483380068392299,-0.049751019683751556,-0.004189316227116702,0.06164382705911325,-0.02815957177361698,0.031371030846028415,0.012753230331048013,-0.011077281741650503,0.0480414374599471,0.03525176890427367,0.011478400351923691,0.08144648783300797,0.010664870565000865,0.02034035579476813,-0.016643787158347953,-0.06741053628641554,0.014675697822995964,-0.004506527889387594,0.055440597507346215,0.026742133321458722,-0.048392001200256086,0.02284727187726107,0.00985268910224769,-0.04995042911408979,-0.038556334587602076,-0.07304617075940888,0.021437164618785084,-0.05244989992424198,0.03290792583186072,0.04172462535335242,0.041446842123854445,0.05148246621791693,0.0303053540206802,-0.009853222367670562,-0.005927750043462798,0.0010654839358262298,0.0384512232660825,0.0019619593198165024,0.01650453917987948,0.006597627345295025,-0.054411074002890816,0.024836814366545557,0.06614266135401287,-0.005277281166801102,0.021053962914228862,-0.03438524397553474,0.025600498835102972,0.11388096167806837,0.09742505339272589,-0.028469256939429352,-0.01592068830667887,0.10675483508173343,0.12492283173346119,0.19949073400892903
52.25204849243164,1.1798019409179688,0.1960363139443226,0.25542215832556675,-0.019430867340030633,0.2306288141178387,0.09585377839424215,-0.09019338782644042,0.01832560013790942,0.020770943836389652,-0.08835544603291132,-0.1741288343952018,0.002672407341965711,0.15890241108352327,0.028295813464444958,-0.1483166448053199,-0.10017744358392613,0.004256408454428996,0.06826415784570505,-0.21733475670962699,0.2224109438892107,-0.03437132723966671,0.16402243461504146,-0.03916388113871176,-0.16448826707913514,0.07459159494705005,0.07047080219660054,-0.06721529880896035,0.03967959730711217,0.05343150615713027,-0.09975830181811189,0.059850408904053305,-0.1477494698221285,0.05729290485933151,0.02472807054827309,-0.05387936914252736,-0.04707339847401912,-0.09212666858648859,0.05241536942669258,0.01519885468713289,0.012435213364415491,0.053987838921240976,-0.020801430828991017,0.01276927475862008,0.008407808870984256,0.026665875054437065,-0.05972118951537173,-0.04221933829329334,0.09930081970843999,-0.03290728765812474,0.019424926090032987,-0.02955264280660361,0.08701564334515344,0.020004903364174553,-0.058063470471447824,0.019243333339509314,-0.006280627844568468,-0.02760734839841943,-0.03921671424543302,0.055271927057579905,0.04979044796974747,-0.0050997769379119845,0.07736308252086121,0.034183503293509096,0.02652054422712875,-0.020314647906348522,-0.04400861083175851,0.011957787396500594,-0.03599099785806368,-0.07537552264000102,0.138882432521568,0.027037691956312115,-0.04029812826200801,0.0924984207604198,0.03416922332840256,0.03503759474720037,0.02505452374030513,0.012239704528457938,0.1217848743659842,-0.03421002167452721,-0.0581525786413289,-0.004217614709127199,0.011683935109609675,-0.11264391956440543,0.0006309963408374503,-0.0016586295054768843,-0.005964704707039831,-0.06909341943593147,-0.013332551776833401,0.010143249457080013,0.022926085570447716,-0.06118793310083661,-0.09671844564983878,0.022492489474780258,0.009385083725281504,0.09165956558866084,0.0227150015123309,-0.1348122336235972,0.004345848674045097,0.1132389155417802,0.12621696757285567,-0.13654164016137332
53.43185043334961,1.1599006652832031,-0.001094238954949464,-0.0067259744770102325,0.07892723064737481,-0.037003314687335136,0.16598109718413287,0.1410799469128229,0.21077901915600733,-0.08511235620641372,0.10943732546900672,0.23841304335486965,-0.06422123395324086,-0.04742772517371893,-0.23060225602758083,-0.24004196238168807,-0.03335954528592065,0.17018418191342116,0.07945096132821147,-0.11276844826463553,-0.051495469412375094,-0.10375279939254484,0.14731869701152545,0.1614444693449312,0.06731627055473959,0.0040644320223552,0.008015110147645436,-0.19578492567455694,0.04826383772514585,-0.03588543204327461,-0.16355184472657908,0.030286313235669104,-0.013389438812927916,-0.052659084555791616,0.10550999994544813,0.025914351790311017,0.14306330252257232,0.03260815803036139,0.11942538526717886,0.015900781963309803,0.05533180006638254,0.0615096251165037,0.021940234853854844,0.13421899011239105,-0.00042282181984105034,0.08232427025041943,-0.05488438876170159,0.025864281028380648,0.04216321727731229,0.03488453273663759,0.08994205841135318,0.07542227285596509,-0.05225041817263937,0.028190970567881318,-0.017946221756684356,0.019692137137063696,-0.059389015512511786,0.03161580462145613,-0.02225779491447608,0.009877016794358625,0.06329416148614089,-0.05495873986951848,0.022306681067975148,-0.006909779151297493,0.06540113372338832,0.04875768600122437,0.011461524022661462,0.02034846852713168,0.04622075255898206,-0.08475094272517412,0.12916702358817697,0.008016444480823604,-0.01153889503341166,-0.01872291075915073,-0.10085632115347593,-0.010700288418750693,0.004124743688318375,0.07974877782204448,0.06333051381514351,0.046968983177265486,0.006142697799307186,0.0033134136496570637,-0.0152979468092299,-0.037515869745555305,-0.06723988577059967,-0.045513567677317714,0.09118348476112934,-0.021211937325847686,0.01867870624297953,-0.006021649482283621,0.0287056008892886,0.09151816384338492,0.0004802340040343713,-0.00876026340871805,0.11588018699244675,-0.0782639381644438,0.04681989806634636,0.02655001479344072,-0.029412274736784566,0.15573598311286596,-0.031750866502244075,0.08694855028489144
54.59175109863281,1.1396980285644531,0.22675463920004754,0.08559840587093824,-0.044424720785185556,-0.11565889487885783,-0.3901464793496897,0.07549184967399222,0.3239103579733825,0.009407796585337393,-0.14386701116821787,0.08777024208931206,-0.052812269721757295,-0.17476022960197357,-0.029791884988209602,-0.14571740721074578,-0.27292267312310037,-0.008299570496949567,-0.3323330790674927,-0.2513824083082145,0.1890040113654735,0.013479195607212884,-0.0643358948174386,0.027018018603279674,-0.010533890270646289,0.06013368824112651,0.10887726809132019,-0.0631359953135549,0.07690084767247894,0.21090698277836883,-0.07315422301972337,0.0428810889670389,0.024358151496490798,-0.03980807886047519,-0.032100755894101364,-0.09072055882272496,-0.07779839776644257,0.10597665687319212,0.0033748773361029585,0.1159852053630462,0.017149011177121108,0.11902714477688864,0.03533113529534503,0.09856179915275605,0.0884247875771432,-0.014782948515704117,0.06601535818628015,0.17399454123838065,-0.0034047502650912356,0.007307624606799987,-0.005705611461512557,0.03259451715505573,-0.035339052732498,0.047265468623810925,0.05513975722398381,0.09031290810262357,-0.0533277171340441,0.0667181034969927,-0.018263440196664642,0.022293440376540054,0.01708707047730208,0.0003488077915349578,0.07569003085931056,-0.0141186083251187,-0.0034243186961829403,0.03467380228866196,-0.006872301900862984,-0.015270687105368481,0.13483947187989065,0.027968809244223403,-0.06642776331411188,-0.028952891708824143,-0.020562829147697144,-0.13095317410414883,0.007322103593425881,-0.03781514644466722,0.0375432714347706,0.012124792489727745,-0.03618811913969757,-0.02871089080097735,0.0466602546354597,-0.021012139169741283,0.11209392253857695,0.0030122387975442992,-0.013760688556042844,0.034194908211242964,0.04028157792375299,0.05078337764580633,-0.01911173219242135,-0.050543986548942134,-0.07119262267293432,-0.02855246549093647,-0.15019365585620809,-0.09054047670168312,0.05562881042659111,-0.13850455147358184,0.0892333743043813,0.02476580582754623,-0.12479812572753954,-0.287278902088216,-0.18302311235141738,-0.21771015745990258
60.390350341796875,1.1403007507324219,0.10401602180586197,-0.09598984292586701,-0.20889294727351962,-0.2000644080767822,0.06632196923977514,0.2755436242485373,-0.06460742685420838,-0.14951835359077276,-0.02393991614598288,-0.003442685310088456,0.10283278442835982,0.04396656136225583,0.1275212921852232,-0.01620442151718826,0.014967228214870414,0.3458878931154867,-0.018101217508482755,-0.0903606823677132,-0.12087436564359164,-0.17738663236072347,-0.12920990236452254,-0.09025382712519889,0.11660248794466994,0.03391739291332939,-0.026671410185275055,0.07367464235470854,-0.029278196747928958,-0.08691825349351545,-0.1750046136676076,0.05308949827116716,-0.058344212439958014,0.05829531017883908,-0.01993331910816959,0.02107742134780667,0.12590770432793144,0.02316800901692913,0.02832458437059397,0.015312984421439944,0.034580709630543424,0.08152363556100077,0.029048870368317683,-0.05174730087270428,-0.032612978322559716,-0.09424403007244296,0.061808456044544255,0.008257111309643742,0.03659460602896764,-0.030092933485491233,-0.04557076494585917,0.19555562522219305,-0.004849797834427256,-0.04990166878949066,0.012744955039282654,-0.0963295569900508,-0.0032464137838847293,-0.10857800346644991,0.005881527840683738,-0.0635807624362114,-0.023978980598853533,0.08866232955467489,-0.11573799439726253,-0.002050528407582801,0.03342742805427067,0.04593639905237841,-0.05197601390944291,0.05386928127103892,-0.058143679406006815,-0.10239274404747975,0.04182702870946522,0.10633166842357719,-0.11632652966925322,-0.059540334151332454,-0.054667313591769594,-0.018169206530871507,0.08437263771851294,0.07219530409105349,-0.022157042171667904,-0.08938872910809151,-0.1572095350198997,-0.010598772653740835,0.03263256648333144,0.031382306770562224,0.02174802388481269,0.039548351471889086,0.019500228396277908,-0.0928863510266839,0.0017697731853006026,0.057210241266112925,0.10602266574803967,-0.10924449677098301,-0.08060366773844023,-0.11433427589621978,0.14472698369581272,0.08641682265082451,0.23910442504990606,0.0755037396760253,0.07219168486050156,-0.11909364826671895,0.17843480127599518,-0.12532470571644633
61.5306510925293,1.1996002197265625,-0.1303412992550736,-0.40937972748076645,-0.07366167814141762,0.047936503158951024,-0.18506436980728136,-0.2262204837806926,-0.1989769490601213,-0.15399268617769807,-0.37965932764490923,-0.02744387118264481,0.1822579186960023,0.062359560792490325,-0.06466637177212077,-0.04671665681654944,-0.09630187920826874,0.03908030064553026,0.0040887411577661585,0.2167070713202938,0.09455748670151785,-0.04125237407115582,-0.0751717655302982,0.2472136574160605,-0.2065504963627217,-0.11644535749399251,0.11904135159399315,0.04218889801169669,0.18796674516616668,0.006779722492136083,-0.04871824831315173,-0.033590792106861785,-0.015207438567449582,0.015156720447345298,0.013407721825335395,-0.04424247685570925,0.0005768806190305296,-0.04809086067947217,0.05065233103939465,0.0652698157004835,0.13442042174556912,-0.01831609177089484,-0.09372813341513399,-0.033838760674693824,-0.123061061414042,0.012090547594076876,0.008776467631047159,-0.04485314448737078,-0.04705565621128889,0.007556214045888026,0.05015685599551,-0.020605769120112305,-0.1858224714333882,-0.007471765786404144,-0.043693202711113086,0.08981102014652717,-0.018323465048108677,-0.11412674093363145,0.006611176084926152,-0.056902863302599124,0.030725524398192407,-0.004075924191524752,-0.004723018700736742,0.030068734597263468,-0.06687751809987402,-0.04931755531201021,0.13848088527859592,-0.00011042624382974486,0.23877933386251504,0.062494332765575526,0.08220661677605451,0.019456650310860447,0.0007265369485885409,-0.05475781100962222,0.04175138098854477,0.017105829372066932,0.0391106023740297,-0.02259711701785272,0.05076104586623965,0.047338013242507894,0.09966211355883187,0.010420721640008087,0.02675353277669505,-0.035347084403481055,-0.00927070903303796,0.05606022475124352,-0.08019673551897898,-0.005464154479194978,0.056967445756827405,-0.024941012426814894,0.09365316437882962,-0.027117974393940234,0.0038228484454296916,0.007434502944443824,-0.02286815696957264,-0.0015944919196427664,-0.18956690329371068,0.2414980456994422,0.08278008479019855,-0.049428262573895654,-0.21053077475648244,0.14557514911497504
62.73025131225586,1.1298980712890625,-0.0037605032370613273,-0.006397371851244347,-0.04795264184737653,-0.1923000391311662,-0.07680394989529368,-0.0810018201437212,0.09524909278552424,0.1255920495114007,-0.11434029449612809,0.10583362090577078,-0.028381362083380535,0.044666090473810316,-0.2650826111842849,-0.12754462725728893,-0.028596948907815174,0.08350800852803669,0.02345699332430952,0.007158536946485647,-0.10948588336197505,-0.047073671722767066,-0.11265129810167503,0.06858773819910272,-0.03286893432574832,-0.049495882436662544,-0.1498895406489074,0.04405352690172822,-0.0009608959553131236,-0.0696221332073152,-0.06580951117904904,0.1395822970744158,-0.022842966958678584,0.03307738080450835,0.04616086711129502,0.07495287434636598,-0.008979249215916741,-0.022894718444650634,-0.0028586033382572867,-0.012366727291344217,-0.0574588584876266,0.047207263833764085,0.04574330671714026,-0.06679913360743676,-0.01955219215923441,0.012222148312722959,0.01334387602037684,0.030009969682720114,-0.11251417586970555,0.07201505168693763,0.0672152104550362,0.06382654067323539,-0.09268868814796637,-0.05291834785252093,-0.06479439927207964,-0.13100326557799233,0.013166395888477159,-0.014561806205522772,-0.05275124072079353,-0.09439104134229709,-0.029007478118490714,0.07302150786751022,0.020462096885648096,-0.017817203702903663,-0.06799078171257869,0.022128752440432414,-0.07090821019687557,0.08011034033517414,-0.03191013049566524,-0.06929451378027626,-0.16176123692579394,-0.13655390144637208,-0.02710996814974928,-0.030749429612267933,-0.02194857571239714,-0.023720853494329695,-0.09757126116994455,0.014520701114204004,0.029705268905387164,0.00584113161119268,-0.022382743201203634,-0.021448160516554127,0.006577064587524873,-0.06368224453578006,-0.010013301998843746,-0.014136792351601729,-0.01650705126157967,0.012573585595593807,0.020176692509260224,0.00030242298212862723,-0.06416050286412701,-0.07739990447282571,-0.08740714678964309,0.07466151954000184,0.006435791703093448,-0.1212052423127492,-0.15560091616887195,-0.0621725944696669,0.014151811488616812,0.04796167732536101,0.23665691940110606,0.08502284533333122
63.86014938354492,1.0694999694824219,0.057267220856059314,0.12537953678334798,0.05241234929912551,0.08368198036087518,-0.04705761807998046,-0.010046989804970291,-0.17049636689653622,0.1528250166930381,-0.07804916428623071,0.007464902238138588,-0.11772904093492087,0.2096778442469254,0.18824046781539508,0.1771249479441119,0.10666716404483922,0.1001467916422677,0.15420520438132468,0.049502867574567996,-0.0718296618401374,0.08048043047468861,-0.01599911077567846,-0.27330193312231643,-0.010509347378140146,-0.08587133202174711,0.07394430922282406,-0.08176003251779801,-0.032757149614085906,-0.02636406666546383,-0.050019791384101016,0.05778826362287431,0.06541158561410555,-0.08053426964516604,-0.046677876012618066,-0.08707674800878235,-0.19749934504427866,-0.022824687264409917,0.015722315561998615,0.08843782547567708,0.10053242531624848,0.07400846976815065,-0.11732071319458476,0.06243051794188415,0.09364149418989554,-0.026719484932670196,-0.01029187169522864,0.10483549236262668,0.03101093177807087,-0.06200999944247665,-0.05014220150774118,0.022276969772297286,0.07225238522012703,0.03878456259891348,-0.09812233048997679,-0.06980074441890768,-0.06732180312601878,0.030406228009359625,-0.0056439066486857845,-0.029231600296732455,-0.005138602127652455,-0.012222324849636923,-0.02864880460722015,0.020727739752385135,-0.01608721393195698,-0.013712586896164275,-0.034220867499349286,0.09015959288771659,0.013546970373194148,0.009448794442359356,0.051174036961151546,0.03578032572262426,-0.050668274041235285,0.02538308951499484,-0.011020293182634831,-0.02836777114692317,-0.09176014971307295,0.0355107354932848,0.05684382091087575,0.03170944841575008,0.010657025601845048,0.14027158825966493,0.13318239674321466,0.008262321450028396,0.026497764986941875,-0.02024578952109779,-0.11710351193576783,-0.004392074695139926,0.05491074608352044,-0.034389360800088614,0.06896486556130133,-0.0539885627338327,0.0818163709025399,0.03492813995651028,0.08980533033834334,-0.04112342420862562,-0.0374950648920671,-0.0476916653942161,0.07338970893731536,0.05829997489763415,0.13453102148239837,0.07690278349818318
64.92964935302734,1.1202011108398438,0.05806580163509646,-0.1090179441732982,0.21808226940074477,0.10476359944623971,-0.06891888785356225,-0.05342552142834503,-0.0548235461356151,0.22983542107623092,0.3100897087921916,0.32800681397250325,-0.24199146845210434,-0.0235350500949065,-0.17865237592880162,0.12979349911978721,-0.1196497862310605,-0.07363883399407484,-0.25715893724852923,-0.13612392646886892,0.30503390544001957,0.15299347845321792,-0.09212388361573559,-0.197257590326344,0.02458431797509053,-0.05804453483295472,0.05888425207360476,-0.24942494793537254,-0.18966527677201434,0.15349585307707453,0.10572775508360426,0.07505932531439961,-0.22629045542544735,-0.009617303543184097,-0.09245232276617463,-0.07342759146683285,0.04109126840886848,-0.09259401189999722,0.04146619807074763,0.0030961323076616216,0.017890039113205407,-0.08658976832521992,0.020531893809469202,0.061883468365190326,-0.21050213451006092,-0.07760268654276106,-0.03781863761411097,-0.061091915814636265,-0.006920422353310116,0.014537427934469986,-0.04940747788453314,-0.053665390598334646,0.0022160179171344316,-0.02533219147244128,-0.02969524839708304,0.053080475815974346,-0.0017765394295689296,0.0031060621942023935,-0.036113620842835384,0.005524851302846799,-0.028918355301947897,-0.02366865799346345,0.02589438490075105,-0.015082979061161628,-0.027801279750097826,-0.03913929441112926,0.0529089277758271,-0.0015033261268371139,-0.010119464499607943,0.08029633140984327,0.004478421942583133,0.0024182292453445997,0.08765430791243412,0.01653787884777268,-0.14672218043303623,0.0075993620153125,0.012383088598093719,-0.07080971053672296,-0.020174345696622936,-0.012117761725534141,-0.013841131256465983,-0.05061227901646646,-0.013460584645021787,-0.09547358189399156,-0.09637089835715891,0.005323350627605151,-0.07380824908474418,0.07922854202048432,0.09272017709453273,0.11001741302899218,0.09999215442650189,0.10704634120280344,-0.003859427006761379,0.0697284257657787,-0.049282077768483736,-0.0500231775776345,-0.2270685065764243,0.19606173617083028,-0.09295969415191958,-0.2787761889407374,0.06029987682395095,-0.030172740560896777
66.04985046386719,1.1396026611328125,0.10385304435323361,0.0643202276798161,0.09585641954227046,0.029645312900274206,0.11775847750799928,-0.12563913700359053,-0.14472441762706675,-0.07552405984377972,-0.0015814142476308357,0.13029884115563253,-0.08467438511982231,0.20410586215820115,0.16078752017519374,-0.16107391565230691,-0.0028995438647124775,0.1083277467823046,-0.11990691518063537,-0.1633072827883536,0.05889732868680861,0.06873279864248533,0.23507781522291898,0.2874521225791715,-0.09152349066489987,-0.13055749177094683,0.04823431686866339,-0.20749652097929594,-0.03138886930339686,-0.038018190520691594,-0.05907611964270698,0.016207776329763474,0.11263571628523335,0.14324353711502463,0.0756833879789196,-0.10034589410457877,0.008229498093221141,0.09085671458123797,-0.08460180238277258,-0.048759715140686555,0.17401154176587366,-0.0006630171735551686,-0.1134484658967648,0.022476738288874774,-0.010056559681893439,-0.0012442581564790865,-0.004093815348695615,-0.00902862527434024,0.06705585052483726,0.02639670338946868,0.03131843290338298,0.09944006251261156,0.065617837894332,-0.08296657023020199,0.024910746651370823,0.06038457482064615,0.05336466022197633,-0.031364241492612,0.03463209692759826,0.12465625312914533,0.03839952182253041,-0.021044779843429715,-0.038970662358774874,0.022571846651088114,-0.0027291255970932123,-0.04458574344279158,0.026266468458218423,-0.13138303117901654,-0.06905109931116765,0.06334151443898936,-0.048372264242822156,0.08450165825844684,0.10198536937281914,0.06262184552724936,0.00575429987654931,-0.009284141468523112,-0.008827473099125727,-0.044105397161813116,0.02036736446495636,0.00991452518780081,0.0021148899412248485,0.009729882224981862,0.0024831512030062397,-0.04380834160590757,0.008968185556303434,0.011456606259687113,-0.07195028321710223,0.045187100232484234,0.05581736994972703,-0.0011416356083241985,0.010205041836630721,-0.021109578635462672,-0.008041738256065325,0.03800127519663254,-0.009728689569572714,-0.1328459603800067,-0.11106473927261187,-0.15153503746869865,-0.1621964862683713,-0.1666643166551384,0.05338534476433523,-0.07957032977181529
67.189453125,1.130096435546875,-0.08248308692318967,0.03313759437135509,0.002310321922438137,0.01423289859219887,-0.2013145676480121,-0.16856662371200973,-0.23232730676450633,0.08268768315060565,-0.022809690867438143,0.04203912423571989,0.029139651770208806,0.010688968892905756,0.05924147413073778,-0.07693447695209574,0.19466872322082399,-0.19250644898380972,0.07433626268291413,0.06597579630861095,0.1312822500908114,0.12954410293820334,0.395696283381549,0.09794062227463604,-0.0986031059064432,-0.038442922628343604,0.16985286417194012,0.09976235945146725,-0.055387694666918445,-0.14767688988292663,-0.08097488549718837,0.003074586136410609,-0.07662410114005447,-0.009555028999446156,-0.07851501128876995,-0.1577837937289412,-0.017007429470941825,-0.024197498438582807,-0.12116042656689974,0.014035649935817747,-0.05362022687802687,-0.05165304478286285,0.1279399240060122,-0.28693289891727836,0.07960294571978677,0.05823652219764615,0.08965558572598233,-0.04282259843043201,-0.07948178867676774,-0.12663367417591026,-0.06697304249170752,-0.018332472209009257,-0.008083734087564326,-0.017737801831520905,0.019440015364496105,-0.08099888964216094,-0.0004097160259212418,-0.03507094303999603,0.030279115296347043,-0.03386447928812082,0.029731652765698266,-0.040447314018318824,0.04084633303991114,-0.03944533533673785,0.03162813808966572,0.01754114039922385,-0.053724383142632184,-0.07026877845247752,0.08968646141539587,0.053582369038376154,0.01658209502147511,-0.06824047602891313,0.03449456534075165,-0.024123523794498617,-0.11341249370033689,-0.02414976969603737,0.190323721495985,0.04852545776683294,0.0331372135783992,-0.02828411086025416,-0.007780020956534985,0.004820755945873287,-0.005084925976826401,0.00953737767295834,0.03323155728937978,0.082138120471941,-0.03021746519362245,0.10549188669067641,0.053843039215682224,-0.0032169012628004115,-0.0065961655607642,0.15237297922409565,0.10959188805995335,0.0506603472010084,-0.0277488644662045,0.11819414619602554,0.0569617791976624,-0.057055101438170844,-0.12330250781532272,-0.0196031366625041,0.3972428037583872,-0.04459014650863696
68.31954956054688,1.1194992065429688,0.08890780263651601,-0.22841546621263922,0.05772786704900904,0.16353630048434242,0.13198991248768757,0.059307217572416235,-0.33549003410191963,-0.09553357165864523,0.35643753952763213,-0.06124002762052455,-0.02059353233780573,0.057095038763954005,0.1028404084490935,0.11025462402753346,0.1901953912111473,0.15791760666642193,-0.0013063024862024,-0.1071696896388675,0.09544536342224616,0.14085198074716762,-0.13695514170431683,0.03765060833360111,0.08033661762904472,0.12222867631544956,-0.021777837309606106,-0.1433942355494774,0.030426449997651425,0.09139530262718198,0.03640115916246607,-0.020071914537590097,0.04521879390140465,-0.12997686591481108,0.0156226411032473,0.00452890873106134,-0.04277526881989341,-0.020358511778366128,0.0012235296753788784,0.06608361454246425,-0.038038102929368905,-0.00851144734194167,-0.028186766390325864,0.025453882267035842,0.04946705794402255,-0.06355991658044954,-0.05105556888141917,-0.0448838680903614,-0.11386530326047876,-0.049250434143908395,-0.00218761484067421,-0.0194511164623673,-0.045996286709496785,0.07422496403801096,-0.10028650825836494,0.01950182691063323,-0.06616591855666698,0.0956316012482174,-0.03355474403974498,-0.02872159154543076,0.006673125845195763,0.01654332982355585,-0.008738255311309964,0.01863194844433491,-0.017431764210916332,-0.07608075711993356,0.040879125170264055,-0.13913190068302436,-0.008917095458312284,0.036960866867506555,-0.031007153750792868,-0.0026666269373915663,-0.06131977977011727,-0.10568364619672019,-0.05416068829012132,-0.021600994522687572,-0.012458783149368241,0.010091747353982786,0.05418175575575856,0.0789721938249419,-0.006072057237628426,-0.08322994514885756,-0.0020084204942967658,0.07243812278427014,-0.0013012596279581247,-0.005418268388463531,0.008128854629675455,-0.00038490967453009813,-0.011512628575502544,0.003970336155477983,0.10112436383390189,0.05131387658897959,-0.005977207253486522,-0.1410655002801906,-0.09379010072973924,-0.04240681077445381,-0.08228847296673018,0.13882104674384704,-0.08045769734518018,0.11677976648899305,-0.03376368492528541,-0.23982444321570506
69.43904876708984,1.1002044677734375,-0.09724628022959476,-0.06470211986739356,0.10721949062289016,-0.028211147388000013,0.0226924449889592,0.335215364898815,0.014128450815253797,-0.11885032415346966,0.008254750817481438,0.10192091327669504,0.014141732311439628,0.07288849337547029,0.04993427795292178,0.07271065067088653,-0.0373014872972244,-0.1147084217609718,-0.1125961822072536,0.09594508388134537,0.21302528204627622,0.2711779363223499,-0.020502989226589052,0.17947923842356406,-0.1484524281253086,0.24588928945342645,0.1735883312822841,0.06628637269040837,0.12350338138740584,0.08029435075477417,0.07634791278562902,0.0699297457209913,-0.21696149659130262,-0.03980677686494138,-0.054525423875842374,0.04889620748983662,-0.006883605374358806,-0.012741797654179791,-0.03415324437428182,0.08597293549732288,0.01740400187122786,-0.027633448807746788,-0.0052071287222727,0.060813615131640464,0.055741818468104526,-0.04568566042323728,0.05505250418717845,-0.104635498820718,0.017405948917865625,0.0041052076465852546,0.026237710172833495,0.010611352178076138,-0.08888181640490724,0.023141928161648298,-0.018796490240596098,0.07173188703860162,-0.02680688781445391,0.013510028627092727,0.012856677002036028,0.013136240776532245,0.032001032540146516,0.034488662687561955,-0.057648396797850374,-0.03947788812714927,-0.006875079458955126,0.032293974403161785,-0.06176133094040452,0.011591635273541125,-0.05609745247293381,-0.07076676478468162,0.042334182826770844,-0.07819573447048489,-0.06370300957799492,-0.041959793916225195,0.014709635140936556,0.06934442212273706,-0.04853345414474828,0.08267862571171128,0.003226386251893837,0.03328188069350706,-0.006760154048191164,0.012989045671807663,-0.014270761399781534,-0.013873783575213426,-0.005731472626285662,-0.005461454044804647,-0.031925815573089926,0.08792242017528798,-0.04352599920920427,0.05998478674824745,0.02075888512128199,-0.03760147656300435,0.11409010934975315,0.17998561598380647,0.14207765553545793,-0.005697782796302495,0.12618087222741203,0.07907648066354286,-0.143735792555187,-0.10833796851253835,0.07457284248120312,0.06623160742045425
70.53925323486328,1.1493988037109375,0.2102437808130726,-0.1622053856394249,-0.017196637801458158,0.2308400333728413,-0.07706922342157947,0.17984590028255204,-0.21555770431961918,0.04749272680732472,0.3011837459803274,0.3293932871350218,-0.19918563836910863,0.025523629034551628,-0.3268207208621295,-0.013280137935985247,-0.06766931338413687,0.060865242127990556,-0.19111770043436843,-0.3721853072466261,-0.25267852272192914,-0.18826589423060472,-0.22089869982221333,0.03145802897296095,-0.21683703813158323,-0.19147840644226355,0.08056464858375376,0.10731111020678721,-0.01216781350994909,-0.006740495422712697,-0.12829817901186077,-0.010064198289072561,-0.12348613470564299,-0.057722841376188556,-0.15427163588282966,-0.04399829316412508,-0.05095278357154354,-0.023705693937609913,0.0038863119477445945,-0.09477301151384758,-0.0035877141267018162,0.047404602043048305,-0.009147382084318074,0.016691562839334963,0.045335699757069386,0.09473187932263208,-0.03340122016585933,0.023379763496270415,-0.03266697372338735,0.06063925396499398,-0.05622443986913327,-0.06304468241780005,0.06886151324312398,-0.10335095957359078,-0.0379874398573548,0.025364273398960108,0.07317742265877202,-0.050057128526458994,0.06164161591903072,-0.0511888294423555,0.05608058078057648,0.0024759642799808274,0.03026097088808876,-0.04788768576239978,0.035724524417794404,0.051231895608331676,-0.04400368042472784,0.04369422136756665,0.050142387418140685,-0.07414779251637595,-0.08714282948434891,0.029710483954339312,0.06867169706184868,-0.05274507923407162,0.02373329660051287,-0.06774878507720122,-0.11833500703859484,-0.18506388791055167,-0.022109528949055022,0.062392528293983535,0.00635551973967069,-0.0034320702972068205,0.016291644039586686,-0.027579218029695457,0.025888437966395873,0.012739662424396595,0.03960686303163713,-0.004040349036056571,-0.04262490466344888,-0.029023425714328987,-0.14787615318989064,0.09983259968864423,-0.0255509544330534,0.04999452453272219,-0.06131749469943455,0.07601153825696419,-0.006406680271721019,-0.1523846612751476,0.08765565923920748,-0.15913494123491012,-0.13247132663848535,-0.1868193935606962
71.68865203857422,1.1102981567382812,-0.052319186539857065,-0.1668078811567163,-0.029976890286377043,-0.08035738299274708,-0.222371610253342,0.21297747899023017,-0.15262628451705898,-0.34468930663468983,-0.09673689492729279,-0.1119186086396751,-0.09286628112196038,0.07072418505683176,0.004099932783205805,-0.060297126604982314,-0.14677743245650962,0.09578602390526836,0.12482025487711673,0.11428589894017536,0.15185803181972612,0.20168811442480733,-0.16645199079707362,-0.0559792555086045,0.09757989639842911,0.028535482255639233,-0.07731686083171475,-0.009735946653305946,0.11788158302409035,0.009628608403187348,-0.020759175899401225,0.0025070167705857865,-0.026985578866883568,-0.08989571501547441,0.03659174045829267,0.1486387077916913,-0.02055391024400095,0.05814668826592219,0.0850194858652311,-0.1827456932523823,0.07444669951076135,0.08611805523269157,-0.025952083385093822,0.0625980042873466,-0.09675395804901205,-0.030257792898969935,0.008020092949622944,0.0009140201030262975,0.011079760236696797,0.007533580958289558,-0.07512382198590448,-0.03773223965829764,0.03831977733970471,-0.06255436138190312,0.04776914215651294,0.01764426963612478,0.07382996292401828,-0.02060550464020995,-0.015676710261309366,0.06319710473983559,0.033924165413964855,0.04210050717137784,0.0167863902681602,0.039468065793049054,-0.030785532185846114,0.04527478244642345,-0.08691824134344953,0.040157440339063835,0.07386222659893654,-0.11351979240705057,-0.045156275065145565,-0.028091816120450107,0.02835814376416551,-0.042886261987939864,0.11133721537929896,0.07733416538553307,-0.04299899319082536,0.03982788376903295,0.022102097189109004,0.003767361647477485,-0.013254543971416522,0.005846284709639339,-0.07724638434457748,-0.016133350061554006,0.0031024130748909667,0.02312399346173054,0.041560344652019104,-0.004844439321771305,-0.02830130290108993,0.0172655102733051,0.04382003777621944,-0.115883730684241,0.024437241590271875,0.0038689128849993815,-0.024524905416457125,-0.07176005811003718,0.09371389151346501,0.10922955756460612,-0.020620087674846924,-0.18558691521915585,0.12823112397952713,0.15456679055508593
72.7989501953125,1.199798583984375,0.129307150008785,-0.04520472354042578,-0.17388543599066864,-0.036977761887853886,0.19448207467005887,0.04934272976700453,-0.13104981706320215,-0.11681851721332707,0.3323104179605365,0.18485602646986557,0.14252206027717682,0.00020120151995813539,0.02045693683285498,0.0678758037080172,-0.16145169620785657,0.03597029392545479,0.22000687978098,0.05594230490113403,0.09996894205101362,0.46687511488238154,0.13221383551935978,-0.2930179756761422,0.06362513932613338,0.02305177471168958,-0.34338318809924256,-0.08576470982085528,-0.04934006757207531,-0.21709747535159848,-0.09835424940728595,-0.03152525571971959,-0.16165626032371946,0.09006512337186968,0.0209598636599422,0.27697887708344904,0.03365365372711243,-0.05405820265312758,-0.10242884465063111,-0.12645176550062875,0.15989363361775508,-0.03506571817999504,-0.007584758532498431,-0.08538971604779616,0.001467380135714299,0.09343649122253583,0.0289074502780422,0.06750130934947075,0.13133967834002974,0.05483564410368458,-0.015720650400656656,-0.1044332737222753,-0.08609115726109844,-0.04189470408848294,-0.013662330964451725,0.04978365522381573,-0.03668246004818075,0.085332605834357,-0.03073386948757735,0.03926333469852546,0.03786235505321639,0.010006080967133887,-0.01221372814335938,-0.012779021089755649,-0.013892127652128891,-0.002530697474638549,0.012683073778153867,0.09152895615581241,0.004586133464351146,0.05432181186628733,0.016097477357880027,0.06910738936551411,-0.026032721331305075,-0.014600600179656392,0.0505484514402156,0.022286819009206826,0.0074672929867693385,-0.12577324187795913,0.009439953435672882,0.0735751199511858,0.005595705570840345,0.04145316148757557,0.05611030517395188,0.005537873031907109,-0.0007831222483128701,0.015906953168350925,0.034878144244633036,0.08155941422565882,-0.0022886374499219188,-0.0814313859365661,-0.0006542145675523066,0.06899230834618532,0.015946516154157268,-0.0022913076730720246,0.16260847308914333,-0.11007540600450386,0.06568353048707602,-0.09667128854177998,-0.13265815410228537,0.14152682964317936,-0.009587220971729439,-0.19195542647522648
73.99874877929688,1.1091995239257812,-0.06396573572634773,-0.001142168738208663,0.026762647846830676,-0.03404729376258159,0.24882804877293474,0.1808308993159812,0.05201176119737124,0.056887934993311025,0.1112198856955237,0.02797002008001176,-0.07806546604352811,0.06721380532538772,-0.004885885962060523,0.18809129579798062,-0.18713640172441134,0.006915885706680051,-0.058221074043757134,0.07230429590797194,-0.029119713273080397,-0.017272738658207762,0.1698341140702917,-0.013408250282691722,0.0020075712489883643,-0.002180446346463763,0.10518466849663234,0.16516478696897174,-0.08702354958697234,0.23174342771675902,0.08156729010091407,0.09508764083882489,0.02922883929011969,-0.03134591363228376,0.14654309068645066,-0.06921962209864443,0.02598175141311935,0.04233238435938587,0.06220107873994703,-0.02000132338535577,-0.0009691397335379182,-0.07485807556603681,-0.049968002636590264,0.09108877617294586,0.17428621820417253,-0.01577623539219604,-0.011299777026666888,-0.05765777523470667,-0.025813054468696042,-0.1294647402174177,0.05200808536913728,0.0739216922372035,0.06788495722885375,0.02093757091688979,-0.011964732529496057,0.07364930083977282,-0.047320122803837246,0.04609209453732235,-0.005615354777025239,-0.013098696036285171,0.0025673123356041334,-0.012183510478703924,-0.055904178495175524,-0.014313024717265033,0.04537619909149185,-0.007548740021385749,0.000841679265878208,-0.04504093587113815,-0.04062116026011231,0.022440675915992293,-0.09711408954513166,-0.044325686934464696,0.025599231906402398,-0.03677487427446333,-0.0026037798703296595,0.11727298710182449,0.1155085871937683,-0.02159536474741388,0.020928492194148825,0.04686178762526045,0.0024614124352201725,0.0015890338139456772,0.0866751915547536,0.04268647567131927,0.014015502469539951,-0.004539281042235383,-0.013688825894339621,0.0034486796492337445,-0.11339332280081862,0.08233055564370324,0.049723673878514736,0.03331373074812744,-0.0140630582749586,-0.08702807895410554,-0.024623595055508055,-0.007678798293411598,0.04006236441400557,0.09743150291354485,0.1332523301425473,0.06499252615071474,0.22688942265990023,-0.03777437792167515
75.10794830322266,1.1501998901367188,-0.03219218099135056,-0.07092593831289926,0.01883635655485479,0.0009714825345558695,-0.0810426294546527,-0.029587542894757124,0.08527648093948122,0.10922958421706347,0.05027927942070451,-0.05924865959957401,0.04778309523011516,0.05430861851140502,0.18683473756761157,0.004383688018545384,0.023606624052379118,0.1448265672087701,-0.05431188549217962,-0.002788070378611892,-0.008079451031518352,-0.16702548713732143,0.196970266250953,-0.003671039865242085,0.09019286219073884,-0.010533901361666835,0.03834341321404068,0.021597956982956697,-0.054956310970509806,0.15139522509707384,0.18067886423979154,-0.035919326444471614,-0.014110939070433207,0.0777889444851799,0.1229646155543436,-0.04474262806146037,-0.13266491701896646,-0.012038848183683837,0.03456481648394433,0.05773638580972169,-0.028772028423698852,-0.029806875987647155,-0.009235546769333275,0.005989081624414969,0.04234851028423657,0.02069064927093988,0.034853270453335285,-0.0023261921880361053,-0.04956207603962081,-0.04669672788226158,-0.008860624086863642,-0.04409329271054534,0.008859977594140558,0.021572167633665262,0.014784954830332857,0.009165546080838008,0.1251116073514862,0.006645191946796239,-0.037765287896100605,-0.02065304844228084,-0.04913619236543111,-0.04396866212600764,0.012100473991682882,0.06011838541040897,-0.007962182046757683,0.016073260515508704,-0.04320115108496457,0.17750680243307837,0.07103676642806978,0.1607374495233271,-0.05194435318252586,0.0589521185877817,-0.01280331995919469,-0.01959345774883872,-0.02625137180631807,0.0006783800735518726,-0.0632452094242387,0.06286479722241428,-0.09022173193866645,0.02518074099106149,0.004141574562908998,-0.01267004259485212,0.048849473471485265,-0.0020960456763469454,-0.054614667584458626,0.05409494090607118,-0.023715300542885776,0.05216595059254686,-0.05852590899932165,0.016700662136455477,-0.02260853206096305,0.02538190679030078,-0.09452064038511893,0.011327708502455116,0.016315126372988778,-0.02097277314034133,-0.14893197887317072,-0.15915486980073168,-0.04340834694349675,0.22067258003717194,0.021004155565785818,0.007083518335177376
76.25814819335938,1.2501983642578125,0.00668567764731489,-0.16917203077321777,-0.007392451549313783,0.3265470674692665,0.13418043887172337,-0.27813676304401247,-0.2593942827545031,0.11106127078508632,0.09992371334563087,0.2053588886044632,0.06514683745553519,0.12041136740098621,0.11219655921400708,0.051623924702934906,0.16749375789342333,-0.038066159086706075,-0.2119491829625861,-0.04638541247537645,-0.004495152120793574,-0.07223870427516207,0.05662881854857984,0.14040023288077522,-0.014335132246432078,-0.03207015875326205,-0.008900314207711917,-0.05132639551978115,-0.20545849002191835,-0.10062536820065643,0.06255996411697852,-0.07733858179902381,-0.05555049004364523,-0.05955955380062655,0.018433667938938945,0.17440669746935913,-0.033151124700360246,0.16343581363036397,0.026980922793617065,-0.10092377621089679,-0.056869051743356346,0.08565535873681973,0.0426361479587759,0.018271985654353493,-0.026921795423710655,0.028985769461206155,0.037544980277533634,-0.11516540310468122,-0.009856079319907719,-0.018399186792384756,-0.01111336681845532,0.03248516436773375,-0.021901947198733715,-0.012132081870451592,0.0969056179081474,-0.04078146460131881,0.044624600885844315,-0.0007180475375710288,0.003326325731254392,0.026153720758770923,-0.04877463372872149,-0.07917645727316136,0.01655378872455452,-0.029013203506273705,0.05653898031886724,0.017497615640475413,-0.029306066898380827,-0.08151755016014728,-0.017787184780665394,-0.06476772238036309,-0.12762677807556982,-0.00010225984824227844,0.007430592517742167,0.0845602263117991,0.07163727064865308,0.07744808048580382,0.07788312975023773,0.007711970390429477,0.0026665471529851766,-0.024003688166872702,-0.0006911690916859281,0.07689750085913075,-0.09403590654561333,-0.030907815933797125,-0.02909678092485153,-0.009681498410440978,-0.07988036392369069,0.024350095001504465,-0.009870418773936487,0.004919960438671723,0.016525066612807837,-0.10577188285994793,0.0447476834177209,0.1459236064771663,0.17202970266437118,0.07218389230450739,0.12447818093305875,0.07960842981973441,0.06943592001108399,0.1825447455274167,0.10328611503084052,0.05415327044039392
77.50834655761719,1.1198043823242188,-0.09215531079017177,0.03283495547050115,-0.008248013669871442,-0.026222058523644235,-0.057739393131923764,-0.2054981168789505,0.010665309434407182,0.1647398103033747,0.05400604820751171,0.03701971374872406,-0.04753412751998351,0.16477678557788344,0.08738034655724342,-0.02907463426948207,0.01666901939284864,0.2326451241373161,0.35827668457268114,0.31893833193126697,0.08615416853997278,-0.06015810311941133,-0.15253336378233506,-0.05103318290406847,0.03621872297078396,0.023695093097959773,0.10247271242983413,0.11666952803856283,0.017965553289188134,0.03604377971435087,0.0344744592733459,0.049496462785185984,0.15392612960625623,-0.09703026698107868,-0.040307599133687665,0.0756536317517365,-0.0941146181351806,0.028125534890153528,0.02087146606867562,0.027578640906352547,-0.0747190765952266,0.032530570995114076,-0.09837144802452363,-0.010566043493220953,0.04297221188899417,-0.007689408657316077,-0.14783427781588934,-0.1128134601348975,0.05506026436569341,0.020054521000278054,-0.06646047488573262,-0.030247102885359464,-0.04183829843196624,0.037732816395890156,0.07859839977357516,-0.0833299759839575,-0.009598621150455428,-0.030677968869860336,0.056007597555474485,0.037263736382027596,-0.0005444853424575562,0.04305682779511766,0.03256860487853111,-0.04657438282589413,0.043660364629183775,-0.015476259915249285,-0.01826020073649558,-0.07676379047359637,0.048913787713284806,0.05916061281957906,-0.08051529130861029,-0.005532117832123176,-0.004530859990920226,0.025497022114661903,-0.04419552624721711,-0.013749936114442233,0.08776538053617226,0.014078196927741014,0.03455727548017676,-0.0369024595329423,-0.04944876340131234,0.006558575427279661,-0.002638390735811698,0.02062652746555995,-0.10101517676196078,0.0060512316253784155,-0.009613679643082133,0.0043592323531472235,0.1510590925081955,0.005391405092199042,0.04312600284871969,-0.07067321773215193,-0.028076042769902297,-0.12301988676670415,0.11044755660227833,-0.07136561492806168,-0.050847076106462906,0.05161300765970416,0.0729683814806132,0.0015979385362196927,0.0876177774659431,0.0653781200140392
78.6281509399414,1.10980224609375,-0.07462370319473866,0.09022422680408482,-0.2105637648883916,-0.05076056559111078,0.09538166695166576,-0.14957543189070294,-0.16176236411032793,-0.16635615817865476,0.0912505609415852,0.04089551953368255,-0.03336975210295767,0.02149144199659428,0.17085217971048602,0.0067636245002488694,-0.03402690885371736,-0.02928755455650195,-0.12597921792649067,0.03715192914213475,-0.022306538395000006,0.05562796303815089,0.06952115294515836,0.12796636458096577,-0.10979403841538615,-0.20360052729655506,-0.08400956725636823,0.08734041085187634,0.0037471552081014613,0.21565099151568604,-0.08379998796482545,0.004774638501339988,-0.1611719231514808,-0.13872125960122034,0.13082702085968465,0.14087256259021777,0.02381761415759344,-0.0713653071107524,-0.0992345996536511,0.060342384708156144,-0.08591460513440842,0.09175751249090597,0.07480987650100908,0.036251907473164556,0.08102040981134127,0.010683912435916931,-0.054056195378941685,0.08360912356228903,0.046557512540111236,0.08337857492610896,0.001402534969812956,0.03750878732773874,-0.013109085978177906,0.0009078236562866061,0.0009376626894954145,-0.004639941942441256,0.0009071318321888042,-0.0013640112993770384,0.012931772799537245,0.10094602967774592,0.01384695773342252,0.049835882446271046,-0.00385870302214248,-0.0036419829600962115,0.0033040240539795487,0.023139581892858183,-0.011862772915935718,0.047911953799301826,-0.03377195242469829,-0.014549026188061712,-0.19390084497242926,-0.033084728810152286,0.041481614526671026,-0.031133018074849417,-0.042399464002034884,0.011934599018840652,-0.015272637849053524,-0.13410122062794438,-0.13934596377042865,-0.032276582586287184,-0.028846053119597256,0.03004699236386034,-0.04784156841244337,-0.06868291075415413,0.05545932229689913,0.0372275117899499,-0.014769934147747205,-0.03221810265510279,0.09952337484530943,0.010609269082925595,0.08423693986391818,0.28892696530409717,0.14746146711146985,-0.1460620033375425,-0.2032293516304549,0.10066619640991345,0.07378870192913156,-0.09312357561251863,-0.21719068545948997,-0.03448073486851441,0.1852730143328965,-0.06919724949452982
83.49725341796875,1.109893798828125,-0.04076215682692194,0.060041557417186274,0.09488399937427763,0.3068808546693755,0.30032353140130663,-0.011420477113676348,-0.09775447275105727,0.01846988877699488,-0.23928737069945413,-0.177335353551289,0.0042533532672948526,0.07937218972135224,-0.040818966800556016,-0.03518744553704409,-0.1454978025417979,-0.21190138393883384,0.1760691233473839,0.16009151353047976,0.29801060970775467,0.08686526104333919,0.020635848947050832,0.12046036333670633,-0.039295074209557246,0.07808574310128322,0.04053265986338651,0.006625638415730849,-0.1546062200829262,-0.056631091774894254,-0.17098568388894714,-0.17236726350277543,0.006551051728103059,-0.05018806699654994,-0.021028826397881003,0.007601197980679646,-0.05309539476791441,0.07862495968663394,0.013175025270979461,-0.002661132755769851,0.19591644140569703,-0.013870155477357217,0.07763221045888,-0.025001446129676662,0.02273837736162636,-0.039058388375115,-0.03233248654791752,-0.038611931296976626,0.0017646603659335625,-0.07996178284641105,-0.009822213330474963,-0.002148746919182468,0.018150513851966327,0.06342786594411144,-0.012381401782846482,0.012526035848795233,-0.045821334800988066,-0.025963275518944076,0.016723428039702143,0.007856039637226898,-0.01878892792091444,0.06250199718723179,0.02330815245448835,0.005840478656942365,0.05793077504500385,0.04140563119622659,0.040534624992269196,0.08870926271114687,-0.13084088134529773,0.0901842542740592,0.13077697244272632,0.06429969607319115,-0.028202160469150153,0.09851222184908165,-0.04481082551212123,0.046088389133317614,0.04194823408865511,0.09860383725455026,0.07250234204460107,-0.04018302929010434,-0.0378835821009353,0.05089092402903146,0.02801679416066441,0.057367246866639396,-0.09338281003177375,-0.10968401637403037,-0.03541896319042899,0.07336633166182008,0.023840912472345252,0.017970881470074786,0.08421282500899778,-0.04436766982870244,0.1311047742726144,0.1059254254525368,-0.07228522672469592,-0.06483394234071228,0.07661351591826722,0.04524188397273793,-0.14625405197659253,-0.2397778565433288,-0.14214210758684376,-0.04358661111613721
84.60714721679688,1.10980224609375,-0.04911935935736751,0.07428892468976733,-0.10072895364440052,0.09445516010955998,-0.07306409249780586,-0.007855120781802175,0.12434142293126348,-0.02350914764736861,0.15950278847582935,0.014968201521268487,-0.05336478160350247,-0.2208043211305327,-0.0019933446638769475,0.050150060816428824,-0.23571069881950454,0.07103791978517304,-0.025069157906887685,-0.04769460014922605,-0.08807033118811701,-0.06681746801315992,0.22656061833914315,0.17455784870821334,-0.0975788279889731,-0.266579357556498,0.04714063581543005,-0.10824197960145657,-0.06558129556837378,-0.014169238859464712,0.047975532694707286,0.13311501576344734,0.12330012139994298,0.04579709560405097,-0.06443335630648811,0.03324196480012625,-0.08164027878778851,0.07989187578561809,-0.02077767892087541,0.026484430137447976,0.03210691527612776,-0.04938055756765023,0.027155921766665495,0.013051735779383553,0.05043782548207901,-0.008748282182066393,0.09262288158609028,-0.06193650243359554,-0.1364204035747964,0.03790543527496447,-0.0316856649842616,-0.006364085983466078,0.03747748317396429,-0.02883193463956491,0.029516517520269906,0.09303655793891238,0.10180128064931457,0.06504240721782972,-0.09566065504161159,0.048008197042019723,-0.05003020936746255,0.025416439284448165,0.053193414482486864,-0.016057747321590213,-0.008459226312629308,0.0113263287273664,-0.06187675411980731,0.07696856109788608,-0.03061660179203423,-0.059895474718711934,0.06549842515108233,-0.021628002835141477,0.03754321692149816,0.028518362902187865,0.05657113929423254,0.14532027072818077,0.10652635936218535,0.0007834768008909837,0.05078911048641339,-0.053390557043840096,-0.005184090332311907,0.049849008303624216,-0.058529674684243624,-0.045071986558073505,-0.056070029077836814,0.010144283940802676,0.05827880075943372,0.0541611416417208,-0.1336892587734214,0.052926852795182396,-0.11932286456316547,-0.24520766872505287,-0.04923816731904104,0.035009217279145174,-0.11684761020689713,-0.07241737305092777,0.04337012572984171,0.13714904143278864,-0.068626339102864,-0.12530072758862493,-0.03310765097530481,-0.24250924124019796
85.71694946289062,1.1196975708007812,-0.24306528267856892,0.04994726119055838,-0.16880874290959313,-0.23318024771986912,0.22930367517063227,-0.18669922397713082,0.07491652707819546,0.05841126932723037,-0.037303439584271805,0.011788530636044521,-0.010516216815420632,0.13418531378678183,-0.03896602075485832,-0.15589476460604254,-0.19969222673689974,-0.023553413287316142,-0.10879994927021397,-0.11120549806748395,0.11200493203743875,0.07420672254387223,0.053572112906251274,-0.08948287797498773,0.14901908287063279,0.09393965431600965,-0.033801000989823644,-0.005974416029734644,-0.14559353826082208,0.008096046567129683,0.07267780174597477,0.09805821744538071,-0.13540426066523173,0.003490463916626515,-0.03429817806648319,-0.031753123483658684,0.003864815895233445,-0.04963126340192709,0.043445173357933894,-0.008650746593631548,0.08680800524748555,0.03950073663722953,-0.07751318121151504,-0.03507424677962422,0.012115749284469138,0.051034270817455964,-0.05802226009113578,0.021029999560971135,0.039845524001715926,0.04097926789401336,0.08141604997432206,-0.048083553319238706,-0.04279338938154584,-0.0325669985276687,-0.04632071844853167,0.019989342572450906,-0.023293230492332482,0.017000304240775064,-0.07113936819407206,0.03160650369526699,0.020475158367572546,-0.005585147711224158,-0.08870899459033636,-0.00956645680009443,-0.040225724434096555,0.06763377040126277,-0.014054866477165359,-0.10173853532765931,-0.024155253874249487,-0.03436210092404334,-0.061485651130998485,-0.1286172536127538,-0.004183277873191926,0.01828158923472318,-0.12552076500628612,0.03228762377554879,0.01398507100882382,0.008416315053656951,-0.0505926519606851,-0.003486194815650207,0.005770795821335881,0.00933682859498009,-0.028483752714627365,0.015001782745514808,-0.013407637000203351,-0.017542120147027437,-0.02762325942239617,0.03194069536434532,0.057951852460756056,-0.008977752509637164,-0.04779648172766556,0.06979722327029407,0.05402283196673676,-0.08721723888737493,0.041072763173674344,-0.13094895503470377,0.04376566778588019,0.018157537189710634,0.13725927785766517,-0.0006176471152095709,-0.09520504980780135,0.07408718917229562
86.8366470336914,1.089599609375,-0.06888795508089207,-0.07387671363015011,-0.2355276571171367,-0.17229601754894233,0.10148752657330849,0.10582949156780516,0.2326910618533128,-0.05246831706945822,0.0812861948293451,0.002890488581763039,0.06921491924639571,0.20478453537160624,0.17251011843464695,-0.16767407066608886,-0.028764223399461067,0.03727818593442559,-0.12151138644696628,0.12536349982027792,-0.03618006676265599,-0.19136830280835015,0.24896992254720518,0.13555202373295833,-0.01088404877974977,-0.11109938297409588,0.0494296045984874,-0.03680376708353483,0.04949349241243953,-0.05633692779703051,0.05779576760858082,0.08252995638743141,0.04922404004049607,-0.014014338366139703,-0.001736161520759229,0.045412016962826186,0.053185027915017544,0.04971369981099023,-0.06637699319904036,-0.018501903568691056,0.1130358546459411,-0.050920261338572866,0.026765795240676255,0.014395937178676706,-0.057060369143918474,0.030465548793577317,-0.05200007348642144,-0.04298000815021559,-0.025280222512979574,0.05821687181615081,0.006034499337417222,-0.054489854760002183,-0.11346387539220548,-0.00846376044817957,0.05680207518655675,-0.0005188370911607988,0.03467713908381783,-0.07824113995868243,0.017383838353015144,-0.09422013690018641,-0.04312033158321589,0.054198956824338534,-0.02167040107181068,-0.008200059892520956,0.0815848621024206,0.06747002471939148,-0.08293104360785959,0.01411405728004767,0.10908159292235536,-0.24653993336222066,0.06323968260117221,0.0212266343239597,-0.08260609944171234,-0.061059534837456075,-0.10573688284323748,-0.017055624344315918,0.02015996474541145,0.025446341224806348,0.036954858846058196,0.01527641086193833,-0.023498598528935866,0.007896614577935807,0.029877028959498432,-0.008064167624379323,0.007644929670422415,0.0032324568585461017,-0.013085222536825125,-0.005565202807096116,0.028673499212593226,0.010175575844261571,-0.011955801788574775,0.052309307591329464,-0.09236372141639806,-0.0036999340797484364,0.021648893814599952,0.05049334538366734,-0.11904917346035417,-0.1684923761372451,0.00045104812028430325,-0.06075656044317001,0.11550980343980605,0.09046688353719731
87.9262466430664,1.059906005859375,0.0730854459634648,0.08827720813588097,-0.3264761653350141,0.058296683427169205,0.06860745010373365,-0.06983262399612628,0.10448709987701382,-0.23496168326820713,0.29924981551016405,0.15582611095052115,-0.16984825106811136,0.17169795798672594,-0.46135773121800217,0.06660638365326225,0.09523847259229547,-0.19059603431672756,0.17595555932833476,0.23536809326164992,-0.07856230850219685,-0.043071997492993286,-0.06506729183311184,0.25624426162022484,0.1706183259002123,-0.009163678597946237,-0.1969251716614508,0.02003520398556255,0.02591759116517396,0.06674390793294925,-0.015583343477980714,0.03475149506014587,-0.014559145612085229,-0.1134185349312173,-0.0865137621033312,0.06232799801544902,0.14934781569936492,-0.056144133220575335,0.07196115822370076,0.062108394629982265,0.11428015209357373,-0.02019677546791758,0.1040620183737778,0.05954561693127982,-0.10951863653234636,0.041373180355838604,0.04136303180810125,0.01118555236972369,0.03998107467377442,-0.013589841765280794,-0.0992061740320373,0.0015231935659298771,0.017280878961534366,0.025103033998534204,-0.07253497352514911,0.010334429827771545,-0.0442280258372255,0.028394937085451585,0.026234844972699192,-0.03369726013528108,0.05173376244354545,0.011724166200260407,0.020703475734166865,0.002060231467908227,0.01024773047886193,0.027939736640971043,-0.02571316950728822,0.05831632219492771,-0.16514712247116287,-0.0837385016008206,0.1346952706962245,0.09612539517899518,-0.054931652935861726,-0.020726232536302066,0.015211947835215373,0.03678609001802511,-0.04789876216506699,0.0026841315249763052,-0.07129665294391213,0.0055037002055215835,-0.0123384389859238,-0.05846851149592634,0.03283008959915096,0.0450973422958408,0.03562060055441789,-0.031819584522384356,-0.002781193927912696,0.006181461190048735,-0.00038105494783190365,-0.0346461072272793,0.08659588514919957,0.06971934386917326,0.1043047191167576,-0.10764374573227213,-0.09227497298296947,0.1281492739714491,0.07551557909837073,0.018996634918192916,0.08061430208176551,0.34452020381014775,0.004904463756069642,-0.09025751592986536
88.98615264892578,1.0699005126953125,-0.24700922411081366,-0.05197272037310776,0.05976346431811031,0.17625260519325736,-0.23403418613688542,-0.2800570696594442,-0.3838953653817295,-0.10855335640439681,0.11009896706507868,-0.07757200619439623,-0.014079955285184968,0.0891894200047712,0.25385817374821396,0.040781307481042514,-0.20017640181677043,-0.0850776725415453,-0.13687201534819776,0.07438624262932161,-0.004403908891065178,-0.22462323225618758,0.17621630332702667,-0.14475076243325086,0.042551906523741446,0.040068548330286335,0.01809448853859277,0.0816134880906974,-0.020831637354362626,-0.01632105775754961,0.025748109669466848,-0.0717173795442919,0.06738356395182211,0.06910585290449761,0.052769417771187925,0.13183745619426782,0.09676585216277969,-0.11653355222853344,-0.052157709354157714,0.15972802292917787,-0.08716022863625729,-0.011190804652582126,-0.04665298663714735,0.05509881818830055,0.026925780938062503,0.07512242983022618,0.0611938997129919,0.004766083844708262,-0.04447757072902948,0.044433639761185376,-0.012105720789781383,0.08559286263338911,-0.0024729903692640933,0.027221880574397776,0.0673773216422835,-0.07430000636517019,-0.035139175346109275,-0.13344855495620636,-0.06235274476192457,-0.019378454662314637,-0.0006887391916794655,-0.015761581129506326,0.022881766526233534,-0.014470737777612024,-0.03892915044384531,0.006073591099094194,-0.0010439773130527519,0.010994742952008451,0.1080300302294763,-0.054699482328759694,-0.04721165681670453,-0.022472634395562602,-0.021062578832514306,-0.07961739396485976,-0.02886350381189648,0.05304882691944998,-0.04272499767932649,-0.04968713316068531,-0.02380308379711305,-0.04989113065233141,0.17240314928073885,0.023541715850255922,-0.057829371217141406,-0.0325083439504838,-0.09386703754629049,-0.18629355492052932,0.027824083842506078,0.10040371994499533,-0.04107402407297935,-0.039318899651404005,-0.007856848112824416,-0.10388665438757155,-0.05715073884480214,0.01438459217536538,-0.16450977870014669,0.0009155518537707877,0.05007363459167644,0.12834504359761106,-0.1319615308439799,-0.06135178336027666,-0.06691809693523555,-0.11953346214353842
90.0560531616211,1.1400985717773438,0.01336545526291491,-0.0894979115835465,0.16644455464215735,0.05274414547826121,-0.018808283534302805,0.040869479698841124,0.0058858591983214316,0.12111315557020097,0.059359105302173525,-0.1459666299133399,0.11897112338276607,-0.1717273645679461,0.05276596539912844,-0.13289477207393963,-0.059861636035090995,0.11600788602108592,0.002103784683126514,0.17534440879596655,0.14085280251589777,-0.013817501028046467,0.25914479978718513,0.12778235551534783,0.31725581783629464,-0.0010637349562823582,-0.026221347986434704,0.057560736194537665,0.3457129297416814,-0.04738215110872747,-0.016910419693909273,0.06785177572797585,-0.013096940907096389,0.09152515570494059,-0.023397665333768594,0.023287311220182984,0.057955882495956686,-0.13602116912212614,-0.08511455195436109,0.1270206915889737,0.08879371782787396,0.007225790979258675,0.06722000455731422,0.0246156222389705,0.09523974829093869,-0.06388244147893195,0.03718613054980352,-0.11147362027523414,-0.004660259468980424,0.013908126517602077,-0.033816997023088775,0.03337970938936707,-0.031508669914597914,0.05160186071176924,0.10146835937361391,-0.05010505653095848,0.030418378237159843,0.009885672081816167,0.020112144632233805,-0.01580525305329123,0.011724903866220951,-0.021600263080416904,-0.009867953910309424,0.03822997859553179,0.06281595090684032,-0.010114994329603716,0.01531889888121056,0.059386693578132574,-0.09120080089152628,-0.0411679582329004,-0.009165242271192439,0.04303643191592245,-0.0849125916496091,-0.005015032399200604,0.060987619402093365,0.02538438894590645,0.007729574272762456,-0.03672424674949855,0.09363351285714167,-0.0005394040610837772,0.033370937114468854,0.02881414303094364,-0.144621366379039,0.0925002147805196,0.05069068875523705,-0.018402288279343038,-0.14700250684351338,0.007978811025959862,0.014606153286071621,-0.0004271787686627865,-0.05906479834996956,-0.02098713155660133,-0.06178176280419584,-0.11828726923438647,0.051312785668426834,0.029984539672598263,0.10717657803241305,0.026210835793885653,0.0389007321985214,0.06033011584310014,0.00030658938585922425,0.03959771810873559
91.19615173339844,1.159698486328125,0.00660890568929744,-0.22780391935946137,-0.2809765609823222,-0.3091408983171211,-0.032975141285632656,0.2610332400340047,-0.003992423425873456,-0.10455890944492169,0.20227860462942093,-0.1134114797578559,-0.1658342370100412,-0.20820937533301032,0.11257843168679126,-0.043795309015619885,-0.1766767418301813,-0.003593998383034776,0.04583786781113575,-0.0771247909832449,0.16569823549732868,-0.14749496068771653,-0.07819062577931116,0.10898522237208316,0.004057962371674371,-0.06503704096461417,-0.041676128247644044,-0.18645729977064968,-0.006328097506628282,0.05691155731852911,0.05532258235905922,0.03136772516986751,0.05458047704245193,0.030823275842734886,0.07231392432076855,-0.10681380556713481,-0.08512002547403556,-0.031358456039698626,0.05801088928407257,0.12511365809101702,0.011150118504874748,0.13024821451963797,0.16542311020284517,0.04040473215882211,-0.04342024015819414,0.03813958103203152,0.014984995929875596,0.029726207549948085,0.0018456114493126535,-0.02330653099861242,-0.02883373674718641,-0.03524784256335457,0.01609117363962867,0.07193033859901597,-0.002345411970725561,-0.10207108262687076,-0.06323586412577602,0.14541292280427998,-0.040513054318266975,0.02566713696081699,-0.023936536223007322,0.03230809357641843,-0.022342694105061733,-0.05183068360485955,0.017329307098300797,-0.03230530424538435,0.010857425665636036,0.048643602737177535,-0.007999025354733796,0.05257510237817997,0.06560370510153962,0.010695019483696399,-0.0627588532352366,0.013536305031344308,0.07590520350544812,0.10038210082275913,0.03725734256582775,-0.09718610497299787,-0.01262797101659804,-0.010599981936503258,-0.00226683472412022,-0.03701939112395525,0.0379204870442623,0.05689537466817651,-0.0952446682828153,0.038315767462691955,-0.07724839739617126,0.041455111742612544,0.053870196622350694,-0.06706155575566455,-0.10372113789875065,-0.003793422774337702,0.020807848188222296,0.09983830716334845,0.04430561547699807,-0.13724929966706242,-0.15871992918729447,0.05056118652873742,0.17680211566884008,0.009736445696786993,-0.08139582825613666,0.06585566443301691
92.35585021972656,1.1296005249023438,0.04300029868594678,0.039725394832783985,0.1195178612665165,0.047389818440383355,-0.1144033245867645,-0.07947313106620524,0.3288601166988916,0.25307670493600953,0.016877967447943905,-0.08674148276911035,-0.13255052516048438,-0.36061048238098103,-0.27555017714822827,0.2986518431520225,0.038661960096417966,-0.16155394939578038,0.13079701071303945,0.05074789473121354,0.12438246838534266,-0.07883526051871008,-0.2948853444867661,-0.23611964405259087,-0.00331580831322531,0.22988879222893474,0.05740227493423033,-0.028841608229333272,0.029033160973953177,-0.11196115990998111,0.0886584092645467,0.002803192570112345,-0.07644938509413705,-0.0340169361474023,-0.004063217144411846,-0.035196905990105,0.07466468166099065,-0.014573359095621428,-0.045203444050326565,-0.006663238403062988,-0.04316853372545402,-0.10394289417665122,0.06422452919238512,-0.13075099069489632,0.03878310538325411,-0.02727857349161354,-0.0819959671580703,4.7683825255389386e-05,0.016548887769796794,-0.004074596106824212,-0.008224236918742637,0.02547260521982331,-0.016562484223209252,0.06310147175204656,0.06309248490305469,0.023185056501109202,-0.09754127490409781,-0.08888610068772718,0.010326526544565288,-0.05160697743129471,0.048205147942871215,0.0019565924698418877,0.054070554597902304,0.011417699009764616,0.03500377309989153,0.029354718594512656,0.04090167590057613,-0.004647439158814867,0.025054615846717837,0.11882957473432731,0.01430959675087439,-0.02373426524729595,-0.0013350838786612095,0.024583065476595885,-0.02281055227881603,0.019441650765715763,-0.042507286410814034,-0.0981666619901231,0.040022122091576844,0.037003332835490794,-0.038092196291242844,-0.05512626316244037,-0.05153631984512047,0.04014947391949476,-0.00469292165228482,-0.002555817565903201,0.04674178537090327,0.026639903581138092,-0.0439567568289532,0.040604482887909354,0.046160322064956655,0.08700475403432406,-0.029926270977924323,0.05389790206899339,0.09732806548877522,0.08455132482188238,-0.04587113881129595,0.08167858667574132,0.025050044396607102,-0.018832866216852664,-0.2683356199702406,-0.02000874163035428
93.4854507446289,1.1500015258789062,0.0989213983074753,0.008737164434122896,0.23924228758323868,0.2299057983763849,0.14806190071364916,-0.28647213841752456,-0.29101199897328844,-0.04818708533436185,0.11069025582327303,0.20960953863341353,0.013890244816544675,0.07930864451812894,0.22429532367210214,0.10483176592999605,0.04507370960199064,-0.008321316128582067,-0.0923495235072796,-0.27206473268169473,-0.08436356838270925,-0.03220139681294062,0.13483563709915733,-0.040651188519891995,-0.052508973353821174,-0.06783895096986993,-0.0680760986477919,0.03446607787130025,0.08799097304331391,-0.09976590138849972,-0.10952457856550744,-0.08987032183349275,-0.047982167154901084,0.001579829704486388,0.021633161793726367,0.02101695001662821,0.00944241859776272,0.07920667663018771,0.030331162336078986,0.1386164125845709,0.09522649304387124,-0.14185258540237317,-0.09894006564722985,-0.034769566924358355,0.06671618035445467,0.07274870956187088,-0.04889625394548458,0.02307559745122125,0.029166159301104538,-0.03411851700453232,0.03841150456267366,0.07977474786835984,-0.01400092662319044,-0.0731794004930344,-0.10833755244289427,-0.0639646611330087,0.04975154934760692,0.08200558204861469,-0.06140413312861248,-0.05451697263648338,-0.005554395473015082,-0.060546163239852895,0.05286805678214344,0.04117202638239573,-0.039970865357523505,-0.09647490528475347,-0.045231318306044446,-0.01506249621674226,-0.05858956140660689,-0.021603468704409573,-0.13287436557714394,-0.1122864433068006,-0.005524616297997963,-0.05850612999362606,-0.032521798495728234,0.015826511865228578,0.08172356912567705,0.09260464749757924,-0.07619728977047922,-0.04709410817796402,-0.00906339101959971,0.002310038138137488,0.018475755939334433,-0.04530990736275845,-0.018711755035833406,0.055097785261332355,0.08672701760714766,0.027509862218110803,-0.0721479286904683,-0.08515455268007918,-0.18452946832581946,-0.07421318759700499,0.07776151162266748,0.04879594473742068,0.06913023002543803,-0.13690214793039218,-0.06934320171373352,0.06657970307713489,0.05729856801249923,-0.14016151145435402,-0.02519888356002171,-0.01592593880978992
94.63545227050781,1.0895004272460938,0.10268222041467248,0.03481511863332135,-0.07670652224333703,0.010773538826305176,0.04996490348362844,-0.19905766064657918,-0.1081567794982724,0.07398005440381766,0.13647207434092468,0.15432596762088657,0.08724295131258897,-0.2887486029965171,0.16143888383185173,0.0965090193743267,-0.006908590652311863,0.006792181070198328,0.25098994189975976,0.13189160628168478,-0.19815584532456543,-0.0893016022625509,0.15024771717920252,0.02229032229256142,-0.008034029768817515,0.01901312573634124,-0.01723064677816258,0.16645196094785805,0.01825483561557132,0.1109203365037285,0.11203795827239564,-0.19207635146726246,-0.10830953046736978,-0.02810102827202168,-0.03006399030642164,-0.021595358149350704,-0.08081039034284085,0.012838093676511335,0.02807887370747142,0.050831857402403244,-0.001404564225379054,0.027940142466017986,-0.0425237210603832,0.0965029171660749,-0.0016935972564437757,0.06273749842514517,0.042160955905000616,0.006730131995894319,0.013410096014044285,-0.06565514382059935,-0.02531436341569262,-0.06937299226187148,-0.05507112735742839,0.008505847780779147,-0.0958632918151827,-0.005248772125441303,0.0062005743504642795,-0.02416191575226918,-0.03973605343921214,-0.05268388945783549,0.005143172301618837,0.02492631227761745,0.006720154539770762,-0.024060633856924946,0.03139014887685335,-0.017646543084290128,0.03247340676511859,0.1028266270977382,0.0867311345760663,0.01487005975011789,0.009855419408145395,0.004289418523353415,-0.029382890642267376,-0.0881221513176728,0.02425637973150982,-0.03426938659159972,0.0711517539332773,-0.05966059014159693,-0.03579979253405948,0.04718490697815304,0.009655409305155776,-0.0029245414295557574,0.008466672578308833,0.09074884253983237,-0.044348602884444165,0.007454603959551128,-0.021489226159404354,-0.02225759529527284,0.020080517833087744,-0.025625533184188948,0.002923436278637757,-0.00824271033842175,0.04443432059792974,0.10136130620867784,0.033643599328282765,0.06891371733692529,0.11813611971763655,0.24813502267852403,-0.17161778269383732,-0.23904770596867161,0.04416434327689638,-0.13053876449416457
95.7249526977539,1.1299972534179688,-0.14593493682995962,-0.02242393713107687,0.04892417202909058,-0.11484764050729779,-0.1618830280028417,0.10149558348506096,-0.37249257177703937,-0.06961534009791512,0.1156116323203973,0.18186245743267604,-0.06773042562191367,0.12388011255792986,0.11960807716048763,-0.11961353316852674,0.2675993231216846,-0.16381627178164573,0.053194205047442655,0.09948670562890163,0.19194406050379365,0.056735216200886965,0.14764129651664382,-0.18888660069541435,-0.07546460417889299,-0.004827240321357375,0.20475881979658145,0.050647999497707874,-0.05363801060487579,-0.03435070775211896,0.09820742127462075,-0.1844223562356121,-0.08130011078965008,0.03886643822641942,0.05102853363610924,-0.014527207522168066,0.07444339702973753,-0.0074185659827945005,0.08180726920990522,0.013053171285538628,0.032301566408272885,0.11832800410021974,-0.0034685507298360895,-0.010705137341443021,0.005637981639764882,-0.06445403776173256,0.011998894302328878,-0.0318050576929255,0.00675722815823406,0.03148753164243815,-0.002572817775351257,-0.00848909180217393,-0.0856199066802535,-0.014202725959038596,-0.021665939525255116,0.0316129715961914,0.0006738729900423249,-0.011480906075087848,-0.05436991262520251,-0.0420443699275365,0.019784258760127436,-0.018323192200703366,0.07356744010737781,0.05824593768101223,-0.04242621035611309,-0.040460853982165944,0.08393069512081315,-0.0082172591891494,-0.07600937981968642,-0.01581800056034778,0.04057027960440813,0.055075418346379995,-0.010000946098911133,-0.038370725376470405,-0.10805438206405728,0.05806377042799116,-0.047244735677364064,-0.04195045429031344,-0.06813180417595453,0.02843434720214039,-0.06372708890492093,-0.0039723226231663696,0.09410874357423396,0.0975809549650585,0.013094159094573718,-0.0018719645522702897,-0.019829895804906853,0.035396846507166006,-0.025549542079414934,-0.05730326677624806,-0.12980873346644453,0.004873321646499374,-0.02203956109872786,-0.030962975016118676,-0.10590424072709922,-0.03839615625590583,0.15447636950991075,-0.01259683868155332,-0.172459116598003,-0.08904080506489807,0.006672222395754293,-0.007513798646822237
96.85494995117188,1.20989990234375,-0.004653444220831887,-0.0170005581285549,-0.08040674718323966,-0.19014024382208636,0.16082356538486756,0.10082167976246098,0.14601797209983486,-0.15879209948103548,-0.023716433648666574,-0.032379212896434806,-0.040486091853643866,-0.11622136234561545,-0.04109467061762065,0.17031734240706975,-0.1028449745735128,0.07407689238624343,-0.0962310525999,-0.19975020454094408,0.18215368363794487,0.044837032145376925,0.019069291218484843,0.01920142512901582,0.1023418181499041,-0.10839682757930746,-0.12131597404481786,-0.010430123917036155,-0.1777265489458752,0.014848668592477212,0.03970701817175578,-0.043069773222582625,0.09539932629560142,-0.01398071147502436,0.004061146319564357,-0.02556648511105839,-0.06289177202304316,0.03917523306790821,0.04284497105157904,-0.019285258041875683,0.017091673530823512,-0.07940763039740686,0.04242426313026351,-0.05327032446678287,-0.0768808979805502,-0.009641870407736921,-0.12853493720513498,0.015921433227359574,0.05032437343088788,0.03440228622520689,0.030163338620949047,0.011851259780206154,-0.019001174252366637,0.06225082457462588,0.02298222976255954,0.03341023688995532,0.020799287641384057,0.017587212852391218,-0.005516105871386262,-0.035802762751740255,-0.029417389820543493,-0.01810792428879192,0.02977729105131123,0.05551389539478721,-0.0184134405940959,0.042415992999238074,-0.038980179806899745,0.1347856636518328,-0.1376678487642559,-0.0638986553942759,-0.05397118553540994,-0.03632874818254808,0.07804067917799659,-0.05095862518755711,0.05277638414625155,0.1541822216725082,-0.06385878293765802,-0.13612268677239647,0.020422890572508574,-0.052192935844196264,-0.02054686117462979,-0.007091018135029985,-0.015210856921158897,0.021890170224272153,0.02342327855334852,0.00734290046314445,0.005043006242402613,-0.019329567634626125,0.002567287874886532,-0.0011064338580097943,0.03380198689836139,-0.03422482093791653,-0.01995483297092285,0.006423202317845739,-0.05493366489458771,-0.04011145066011241,-0.18228539311354522,-0.007564599184267834,0.004739508289825353,0.10659818209813182,-0.07305897259931508,-0.04084307657565993
98.06484985351562,1.1602020263671875,-0.05759310080683988,-0.029493862247849625,0.1171859675514189,0.026607641889513284,0.016747894953195775,0.049389185112452556,0.1573923201925785,0.002404213302580149,0.11636787020913968,0.06358436673974233,0.09289444996748461,0.12693913167773443,0.014738922243724814,-0.12776401458693495,-0.04225869471691425,0.19531296126480618,0.03472155895875727,0.06506417408351158,-0.17583983904734501,0.08897027463321112,-0.2664599787314299,-0.012278224086620257,0.08104651378041944,-0.05550291210390922,-0.05081913836905039,0.17512538334805866,0.04768401098951137,0.04824008950000795,-0.16259677150674656,-0.06335937705985241,-0.02458043188876638,-0.19125475834654534,0.056466183728211716,-0.06360951064553186,-0.04220667101949164,-0.042245490363337364,0.1508481635081101,-0.055969624882776056,-0.03925734895747924,0.09555410397134376,-0.049363900809572224,0.05160789560880961,-0.004220405590092615,0.0020237537327677927,0.049247238594156015,0.044955312818870545,0.0027671099685427063,-0.06627500585966786,-0.004402255887242981,0.03564684038124381,-0.10015878540887124,0.011254145896622034,0.050184152111649026,-0.0005897550713760656,-0.07617395211080599,-0.04963750943300671,-0.056615932169930674,-0.044481720484540084,-0.07756296177792957,-0.005827783678576424,0.022543779569208486,0.006484946034209002,-0.02942095587977754,0.0583533575116465,0.03594821021313297,0.00697138981303559,0.05375796204261265,-0.07409896616465841,0.053636912664210196,0.01497312782818009,-0.025301825006855697,-0.011787473528621027,0.029066592298753784,-0.09530025381665591,-0.12752532512091444,-0.09267745983580775,-0.02287235276012193,-0.04826246403030754,0.014767950536709153,-0.0018327728509327586,0.009626735777863,0.02414348253603952,-0.014864797807419686,-0.07639890972267516,0.012915235937613892,0.0133353676045694,0.03973373769058979,0.008238831212660697,-0.015679714142201644,0.008311528721558447,0.01835161986413569,-0.05428800400276374,-0.08081911455225828,-0.023526228710818428,-0.016867850146344458,-0.01711854440814581,-0.043106889121955996,-0.07638161949841021,-0.01065749289175863,0.15597372915910393
99.22505187988281,1.1496963500976562,0.0004701358566579217,0.06649642623999813,0.09604423098072293,-0.07385821095436668,-0.002337663313214833,-0.025705800594627425,0.042275715997967894,0.09677636328238094,0.15579705569530647,-0.22877953696125058,-0.1524024451500273,0.012356466302507516,-0.07480346580359232,0.1989774476242126,0.11590712269398146,-0.15518770418844496,0.022848246946280404,-0.0010128478459794708,0.07344321930694582,-0.030017797084938222,0.12188351546549145,0.278566877567137,0.067775168268886,0.008708613542070635,-7.18102420087241e-05,0.034651617629481934,-0.07122106420086219,-0.19040502264973536,-0.021750113627429773,-0.13064712208729093,0.1419147556707534,0.12178111631307728,0.07160537784828994,0.04125600012405878,-0.11926151347636098,0.02501695028152847,0.01591297014828151,-0.028630798769906055,0.07262793260243008,0.042739514489037345,-0.014159259257948004,0.038559675576468444,-0.05376498650852444,-0.10765560408657217,-0.0009072529526447917,-0.030274988900312907,-0.11084928307988452,0.05126367363914493,-0.0012780295629536633,0.02855191058559236,0.03768793356106483,-0.03049111819405289,0.01567258115944721,-0.0017553270997851048,-0.04642483653059524,-0.001399811478517185,-0.05348431854530461,-0.019358540796273666,-0.041681628405624754,-0.016906886059162442,-0.039353150640253104,0.007425457077198515,0.02574821973439377,0.017134804624662315,-0.02951656559932503,-0.04470204663725822,0.011942843394349712,0.016044160831222926,0.06611963883812613,0.09427306168412934,0.03759481719286229,0.07673244125396722,-0.017609862582275065,-0.033775296471314095,0.02726480571553263,0.02859815488110384,-0.0835166079256424,-0.03617982805764591,-0.031165864625384645,0.025384333638902752,0.006120121476539051,-0.07167822769095188,-0.041228573464477544,0.046607860958152995,0.042045794856358745,-0.04535992957058492,-0.06204383794924082,-0.051423721855182604,0.039336697792777264,-0.06282770194034157,-0.024475221663371814,0.12291780132329709,0.028479489619991357,0.11292371664902609,-0.1756415315598749,-0.07853749533300053,-0.012981503164155153,-0.03609536489266277,-0.08897445260244564,-0.04235193619388074
100.37474822998047,1.3196029663085938,0.08075786626857173,-0.01749541580811864,0.06619549506872692,0.043322201181884894,-0.09061757388434201,-0.09187886778745152,0.1183756123731366,-0.1600978922506444,-0.15278878045088426,0.07088115290544733,0.0017305768018335932,0.003972563449656209,-0.08529530507334546,-0.02090583215339245,-0.2709037431681695,-0.0019326021173105864,0.05960647965797259,0.1405189224471479,0.03504366274141864,0.00440758973200045,-0.02169876374361637,0.11365462637150325,0.015293480318441749,0.08999575810985475,0.02914557997843617,-0.030372932353703096,-0.0032658513858687195,0.016995742299246688,0.08959090059440862,-0.0057994370765190595,-0.0009534213480898845,-0.013729859193488538,0.06760398124667268,0.005256739465396523,-0.043751319689783644,0.0661532570796007,0.015113786210184567,0.05694319013062321,-0.05277418233512715,-0.004522452262833636,-0.06551118708842465,-0.06253773497704868,0.04022935876929073,0.01692152836444275,-0.023710367713560714,-0.10244802956274254,0.02386161465568181,0.04957602479322013,-0.05699891610967225,0.001133853553558939,0.004870594067027705,0.011098232738252212,-0.09113455682700794,-0.042057761632829135,0.0008981899880376176,-0.09772800312809016,-0.03974612671583,-0.0004363973657790371,-0.046438347974278545,-0.011930930140074143,0.08778980391745196,0.03658880891380614,-0.04803720881883089,-0.034556927138907026,-0.011306608824775653,0.02087783889361818,0.01506031446970965,0.11266327941425815,0.08426789663605982,-0.025110123714531918,0.0729620611466631,0.031842186333064716,0.03908683884078357,0.07053182109992219,-0.007022490924426217,0.04650511641512066,0.088317374592031,0.05115024314317857,-0.08195239628345916,-0.016574347854845295,-0.017549109686589848,0.014573294552086112,-0.002603332494585917,0.021247458258581334,-0.0018078647684053712,-0.014173917442130604,-0.003247618335935551,-0.07287347789319246,-0.04486379975606799,-0.04790867792941458,0.0336553306973934,0.037399888454917526,0.004260783446882174,-0.002420980094228198,-0.12655099587698043,-0.14072001977295054,0.06748486325271633,0.14185812219548594,-0.11842590869343096,-0.1168248352021592
101.69435119628906,1.1999969482421875,-0.11878598132483628,-0.00921889835594767,0.004612221580462317,0.07605947969925862,0.06407917106765146,0.14253642700981975,-0.009150674780037268,0.0341920827570592,-0.12099910588486468,0.039590222140591894,0.0014727122587695693,0.0198376772487442,-0.06623542812349498,-0.029022308574783176,0.14172269019226266,-0.11697342671775551,-0.07809618770682024,-0.10182753189342042,-0.07369782585906241,-0.0057036026213691145,0.04002731035946672,0.03478736380046187,0.10834306727199187,0.1844201796283914,-0.12439270510418327,-0.08693811937122256,-0.15402458630442686,0.02656932139931358,-0.019255126975844118,0.021130124480024028,0.018476027292422325,0.04718447859582995,-0.03694092764462597,-0.04788236757644551,0.11065444375728581,0.004516025371334135,0.060716120063187135,0.017288815536414016,-0.02353122188430791,-0.003231269923828703,0.0029834452750842513,-0.0763313726522324,-0.035985573929961795,-0.027216637087015053,0.06925688371426282,-0.04932900858003515,-0.020682598187043707,0.012934251629511445,0.01999837196171976,0.041454244986471024,-0.09854774154481627,-0.03584249724637088,0.010881677096804914,-0.007916883547847128,0.048470113549357985,-0.0063486183865638385,0.06229315453278838,-0.04267900895529801,-0.0008897070064982941,-0.0020529207363844085,-0.01066505967342474,-0.004027990078824248,0.07925515934635151,0.07343017061167703,-0.13158961546016387,-0.17308909735999228,0.038032255057563094,-0.06053202835799494,-0.04019219149113412,-0.035763007122608555,0.04215189112417858,0.10985761640327255,0.015005253693954949,0.018933372125585535,-0.08816618121952521,-0.001511698258856664,0.04499018470178617,0.04885770560950721,-0.059586423715634634,-0.08587932066205176,0.04210148140579825,-0.07072163169709075,-0.10800159542285202,-0.02313040034772924,-0.05541113258748126,-0.019944466240627515,-0.053511001318962394,0.11317045455955063,0.10207732908915261,0.05109134309312948,-0.0814503206871763,-0.010941913223089558,0.05068887450194687,0.03448646242081798,0.22407672794860473,0.11523256450516853,0.12293090674653825,-0.17760452103173652,-0.033319029031253014,-0.0869665634095414
106.31365203857422,1.1700973510742188,0.3184824078091442,-0.06029998985672258,-0.020553736541686997,0.1573317125627327,0.1109341187295252,0.1869517491042233,-0.1010931325122613,0.23795223013185157,-0.0687802894694542,0.238584598959546,0.039048920875062135,0.039748078886176125,0.16353140444294828,0.058978146708022657,0.0665071305963592,0.15497820121500794,0.05303772155987878,0.030311187916361827,0.08197347033896625,0.15893786515220742,-0.07513562701677676,0.16870061442205603,0.07066156884848518,0.02024525668977005,0.08596600511629206,-0.0652926330742283,-0.08822768319389603,-0.21011105088813609,0.021662637257663764,-0.09691963202074888,0.1072158133392101,-0.017609567519891,0.006175977403317323,0.11351357666820339,-0.1613467112158547,-0.0976749288648328,0.00354159235382591,0.026796934223332666,0.020882474532023635,-0.040006777306959534,0.024723822153829525,-0.04881652975958768,-0.012602469968381384,0.03859539375380616,0.034679304270228944,-0.07570873919428331,0.03261776137966042,0.04041418375163722,-0.005951314359117876,0.03857515408750252,-0.0005021962988315254,0.04513047182656382,-0.09275356034967687,-0.044293107102268,0.0770828029749201,-0.025367545052178683,-0.07413227611559944,-0.05131126155211882,-0.008669831224415928,0.06382784379995315,-0.06512088143766954,-0.02835547923424397,-0.04549929171819146,-0.03664290227047589,-0.015218836588825464,-0.005266274364620554,-0.12652869831319094,-0.026247055499996893,0.13358096583709336,-0.024853194151333052,-0.058170422037371515,0.010788981957946323,-0.04345289729415181,0.005939131662165563,-0.21801483364553542,0.06031250922158362,-0.008244083994540588,-0.0002742032738923157,0.06270043831883447,0.05965795298592369,0.012478496849828666,0.015290440424094415,0.04409188559604171,-0.05392894481543221,-0.13616787112789,-0.11019918802987538,0.02303644417168242,-0.046128202373613925,-0.02944199444264465,0.04668962409986023,-0.13376994950243046,-0.02950061629075073,0.09367356805019385,0.00641218943924262,-0.06018480220203652,-0.17851522189624003,-0.042777187486940545,0.19924873701498297,-0.05767661268786439,-0.22825568595917126
107.48374938964844,1.0497970581054688,-0.23424590943868964,0.07758332562495435,-0.07289120729842705,-0.12532383928240184,0.0035607268392536737,-0.013971669758911554,0.19565516472965672,-0.21829862930866237,-0.05240176780950009,-0.017505940677256967,-0.19122224872671362,-0.156129701428508,-0.12702847240676424,-0.07458413317053443,-0.07313306344658188,0.03102530413354748,-0.07520236224504312,0.11290710563123788,0.04175191792205769,0.13353928935635756,0.11483846711042857,0.14889844300462413,-0.038571570564934904,-0.04278502781359619,-0.10576201892203332,0.00781417220554545,-0.07454605509435104,-0.14822628060299659,-0.1063045923621504,-0.030800402673450182,-0.034840294557358445,-0.10920022556225219,0.04472115169151439,-0.10294008802487897,-0.163297513645229,-0.05514200572275181,-0.01579389929490147,-0.07363993146840356,-0.05323985073140718,-0.12830885323255625,-0.05277738727496782,0.05145926294344065,0.05396210513630835,-0.046169950195461336,-0.08640082174027848,-0.01719091538848251,-0.09273208923541622,0.07652521009871582,-0.03515300855870262,0.04126228898375656,-0.07177483421903065,-0.01934190653463218,-0.0025619967699886215,-0.0278867904952496,-0.04566990582015756,-0.014060663546393404,-0.005708653341955021,0.035291071488409,-0.05256994392371321,-0.07273827382158352,-0.01642248303129365,-0.05200344006963624,0.00870464381879623,0.03332364950304385,0.003950161097849986,0.018055354957228435,0.006895917427966239,0.02139416259048376,0.0462091135985981,0.1410212051010088,-0.057029328069800586,0.0005719936313452797,-0.05292707518067311,0.010180183566812027,-0.08049086576064994,0.02798645092250935,-0.07882060548591843,-0.13522166468617897,0.06515644723512144,-0.062182668193245146,-0.008145293107949918,0.04509639365540716,-0.077333501630359,0.04517084980597266,-0.01817834048071669,-0.0988651759868886,0.14610900534819077,0.07007932279319333,0.14892737094078906,-0.07574128071879903,-0.11125555345642352,0.036055388978540104,0.017434340759163416,-0.02469538941055485,0.1299175168242869,-0.14072121623943978,0.190732645684499,0.07890824653863607,-0.2340775678196661,0.03643612389357351
108.5335464477539,1.0900039672851562,0.005738281965692156,0.006390768238291843,0.030710262930644834,-0.23638934439083964,-0.13537875417865838,-0.26209233619399525,0.20398480695407206,0.17069508539560546,-0.04337189294593365,-0.06079908392389116,0.044400167944378635,-0.10655910430473288,-0.015264886580424906,-0.18729145025911778,-0.07342622892774517,0.11816363723334918,0.10514492413316565,-0.05562387684882041,0.039432234162937126,0.041921907863818206,-0.26617251649540224,-0.04163295722908658,0.1425962655851249,0.22988323168430394,-0.12430327906285353,0.0715453208076273,0.012873074230073113,-0.08826924055753925,0.1225611812920546,0.1434145802058431,-0.10515220258090452,-0.047437345519669036,0.13029160272032825,-0.20330222525886793,-0.09702431441387793,-0.04078688956777992,-0.020805358911544683,-0.2012389161756459,-0.10736168506833527,0.0063613720839058065,0.038499587917793426,0.08315951856055209,-0.06318988924119413,0.035853453833579844,0.04299757169939243,0.009216132270960013,0.043822500367231156,0.028529421152918323,-0.0008123921226224835,0.04065356045706002,0.05539545807323067,-0.0343560063181348,0.060261654349860506,0.06209565580672133,-0.021939647981055715,-0.057662873396502244,-0.035225987238646186,0.07625882386083821,-0.030639097934204065,-0.041181758745890654,0.018935056600401002,0.0006215814425570209,0.043686343277474254,-0.053672519954047385,0.05598299956083659,0.21386891688365955,-0.20922494548992043,0.07135806773206096,-0.04372971858258512,-0.07987557652479581,0.016217032467617385,-0.01836640653883014,-0.11348112007467646,0.13132772011054697,-0.03282848387098674,-0.04562988166518549,-0.02234311497160683,-0.02567675309143677,-0.034833745500615736,0.026432751187577347,-0.01732080708864618,0.02510260216958941,0.019875958028344673,-0.03886143947116109,0.06247160673074748,-0.03926458642340182,0.053915613751983504,-0.05174436157630161,0.06602937220220283,0.05372747697892702,-0.008860860385265963,-0.013583925165983132,0.011917780429251262,-0.22970835914413668,-0.1061023846933822,0.0967524058608093,-0.07686204168941733,-0.02832516330053149,-0.2690803749329781,-0.20699913579719886
109.62355041503906,1.12969970703125,-0.09346623913332056,-0.020993311535702174,0.18957781388271033,0.031674592696702183,-0.18138900351219173,0.2880866427914144,-0.04681510462003863,0.08996387004518994,0.0938859015359321,-0.273667482896838,-0.053881539612617636,0.05726322054022189,0.16066452424692926,0.08081929221738329,-0.023851460796454917,-0.1364625995906655,0.11061201480849112,0.13077225258262185,-0.11532707657747401,-0.05638327690022949,0.23681016658147183,-0.024465986987077564,-0.33818797324744326,-0.1732368036488811,-0.2453468699027359,0.10528816367490776,-0.20316370461728653,-0.09248452847330442,0.05192311457142187,0.04172085773023504,0.015790006822280808,0.11953559428215771,0.05164336909271876,0.09220347239517863,0.061084584233033354,0.04981273039016082,0.027947221326474495,-0.086308014568032,-0.06121032263713444,0.03810269659483146,0.08442047622919109,-0.07303183973956073,0.046486002405794924,0.024956831483307663,0.06899576539216017,-0.04491781472746034,-0.11290190447019904,-0.05259566338194948,0.020763678892821526,0.027548568245694734,0.006029196949055888,-0.08485429108788342,-0.09641072401214734,0.05929256231915271,0.027041304815195965,0.08376928831153388,-0.08105693157501163,0.019325941542543506,0.007244638877989459,-0.07284747617406877,-0.007183107946015408,-0.04160791583913412,-0.009248789539547862,0.02959153529524079,-0.08093318439909589,-0.12516821836563188,-0.04841941143606774,0.07649066351690431,-0.10816717106409382,0.0743054926947283,0.013119321357417644,0.010880181409506286,0.053838123677319175,-0.01070516795483829,0.05683821574916652,-0.018948744417166877,-0.06775235693851471,0.038861652926083054,0.01651313659765556,0.05892212980319096,0.05298030861232112,0.0664126839023424,0.040853443000657616,0.0318663374952015,-0.049607195780859856,0.010389588913047722,-0.09821492762951387,-0.020483349426774454,-0.04532493561520499,-0.1405536567069041,-0.06858218959622639,0.18630226347976742,0.05823982910445974,0.06077253134319011,0.18322120569118636,0.15685856182710012,-0.10593703120614953,-0.03789664130182461,-0.07874790652067615,0.04261577516067434
110.75325012207031,1.0893020629882812,0.02681565833120944,-0.11648094380382816,0.047875987134318995,0.0020531968180466684,0.014112379358384226,0.026170874033440907,-0.06323535744689462,-0.0490168349918588,-0.05608196332286646,0.04159628597881662,-0.37752407087009865,0.03887882015797678,0.18898868064519928,0.1360216767992138,0.019472263400570174,-0.08079640989007694,0.0521094438587978,0.07265322914473432,-0.023676700479553267,-0.04335191869099971,-0.27639049247338116,-0.09423732979818876,0.06546027789750775,-0.061452049438522095,-0.06809222175787889,-0.10351109242046325,-0.06470395311801835,-0.060999222247873984,0.012110126786820906,-0.035360511417140375,-0.030791808183615963,0.10383314228623601,0.055131012757367856,0.05778859726473387,0.048661097957848,-0.02233696027425415,0.034044425938771466,0.17661886857452191,0.015923097776708653,-0.0540543793633502,-0.08656716587392944,-0.1947164967499803,0.07838620383719863,-0.0023022444451941144,-0.02944253664296246,0.07157677365055555,0.006200248408635733,0.008073887083911171,0.026467402153507034,0.0022583288725105087,-0.033447326719425394,-0.014887353476053706,-0.002975738022053427,0.0007877866211654372,0.08195758872402775,0.09644432234827846,0.018412263344526766,0.05800986119838053,-0.01705851021752082,-0.06163078614239793,-0.04126092323559715,0.0026551105862845197,0.05118666879506309,0.016488590396874572,0.06073568252701157,0.09316283306553365,-0.1204607654661567,-0.005014184045013026,0.016022285806783762,0.02011258433196775,-0.06362412015841461,0.03207116273282111,0.03605916514118314,0.10187914456430397,-0.004395103255115612,0.05629666816472764,0.03493724846193023,-0.04438124437128045,-0.015712389615978206,-0.0786476339709977,0.0521049094101112,-0.041252592528213956,0.008654127729479832,-0.0006085100984894144,0.03626621569949225,-0.09691789704115325,-0.0031284788240684308,0.013527554589919968,0.07665439696696583,0.03357142482018794,0.0633716302173691,0.06561539417488296,0.18898468648281705,0.05037232660343601,0.041944594323670016,0.02669532353808171,0.06632810109238986,-0.033316185283852884,-0.19683418939098435,-0.015910142338922767
111.8425521850586,1.1697006225585938,0.10911774064684238,0.04039326659795894,-0.020206177580954388,-0.11919215923646595,0.0461533973282279,-0.04432373009579187,-0.3134540406751397,-0.11834112491760111,-0.1446974361891723,-0.02574708956511338,0.012362217433714778,0.31099081408497053,-0.03420706471737039,0.03439959870223269,0.11693356825809866,0.04619890491912393,-0.030889036049694375,0.07435280755411539,-0.08320981325136809,0.13594886578012264,0.0017372193714355194,-0.07600747000356603,0.0015932970225386034,0.11182614140994811,0.011463901321311615,-0.15899250677699503,-0.08153691442007151,-0.01015023260255742,-0.056603934589221964,-0.11446627553149644,-0.0002841355160241178,0.041174038454839065,0.04808706611130584,-0.04981787370574104,-0.028825447171474335,0.05670519992554625,-0.09599878172418971,-0.1895712803554447,-0.010987601011674772,0.07393279656071518,0.02588135196423484,0.021755992756019405,-0.04084591432113051,0.10261949453020106,-0.05183506216427138,0.12607715248545207,0.025179165840543166,-0.02594940835026778,-0.054853408672424074,0.05006008607445378,0.0796256559308414,-0.006498702945872237,-0.03190539713662648,0.06270404468321811,0.02391508978801868,0.07628009128223759,0.027971955195877595,0.04700883460354223,0.030535192046318375,-0.003685925677691465,-0.011575513865851313,-0.01602695678822685,0.00842783566247755,0.10000796567272463,0.04042279463329922,-0.03452457633305718,0.04073316926159518,0.017418006737662542,0.04264764062938771,-0.019916447350245416,-0.009102139476587152,-0.019559387064133116,0.0029655024891764564,0.10836778528173723,0.09237421296188907,-0.05533312941427214,-0.0416457663698388,-0.00787243776510194,0.03390551776183227,0.003080256362771778,-0.04237541161777555,0.06516657170353962,-0.027569489657623306,-0.045554729275024936,-0.010486688795608996,0.0493958581484105,0.019257001378489427,-0.09937478986040217,-0.08640348423094947,-0.04559773304793855,0.005339419856239577,0.13434043784900696,-0.03584948155078991,-0.008157432907241332,-0.06966311357203053,-0.05851626390068489,0.1678039960611612,0.07622815752044089,0.38629806008668227,0.24363096402624357
113.01225280761719,1.1604995727539062,0.23821219233883767,0.024528431821010416,-0.18049925560481012,-0.10020096856957053,-0.054029634896871966,-0.007818581269413752,-0.05878501950752695,0.14157704952985,0.21365159966285988,0.285398456671386,0.2834499816497029,-0.1514493913159262,0.04793488085457895,0.08827592330502623,-0.14475730248803784,0.16099454117941506,-0.026257317354351536,0.16456585081229705,-0.19048588080547096,0.06964065980645359,0.09599850519422973,-0.22854893429472983,-0.05880749854327683,0.04701029927726981,-0.10451435696656884,0.042380644322227386,0.0943074553483973,0.1204179184712092,0.1030329378708068,-0.008436969063729136,0.02288878429342218,-0.06363650684593655,0.041382454536174645,0.03169060759807925,0.08298228810551103,-0.08861522216873124,-0.035117972090585065,0.04351702442931907,0.07985434483018612,-0.046709540187451895,-0.12003199907244869,0.06929492306437113,0.008639077122852624,0.07388447479606083,-0.07569446428801338,-0.023444155062096857,0.12074583070638237,-0.0298173568485034,-0.004379144067161073,0.036398888469129684,0.10479222053808382,0.09989303757391399,-0.06355500662011931,-0.05942050065943023,-0.018812736943650155,-0.028755677310888725,0.08279419397781075,0.006294865564683217,-0.01649568270592487,0.01672482157400224,0.006315396111851328,0.03703069874382087,0.005289755836761344,0.024773516601931694,-0.031710829631807214,-0.022001494381708127,-0.05820830835034661,-0.017082694040908675,-0.06189994659933195,-0.04843753344757361,-0.029551926891272028,-0.13518769317469703,0.03292525791589964,-0.0539636954588512,-0.040967434004361994,-0.07348513156008256,0.04897757163988405,-0.031080860468279452,-0.010506134350157405,0.051364663029635035,-0.04152779951834965,-0.07666111498928854,-0.06188006114290558,0.025622027845721023,-0.035292848834419854,-0.042036358332294334,-0.07263979338910732,0.0006795510218721148,0.0028420836899716003,0.11176241480633518,0.003054829765264007,0.12395981025567816,0.1486259738205294,0.0023683736791543994,0.01832527964935679,-0.18683800736001385,0.07151451156005342,-0.10275528458160511,-0.3087242576819041,0.19057735470628528
