start,duration,0,1,2,3,4,5,6,7,8,9,10,11,12,13,14,15,16,17,18,19,20,21,22,23,24,25,26,27,28,29,30,31,32,33,34,35,36,37,38,39,40,41,42,43,44,45,46,47,48,49,50,51,52,53,54,55,56,57,58,59,60,61,62,63,64,65,66,67,68,69,70,71,72,73,74,75,76,77,78,79,80,81,82,83,84,85,86,87,88,89,90,91,92,93,94,95,96,97,98,99
15.816450119018555,0.7602996826171875,-0.3924022383386508,-0.09591269588463738,1.3257743228300385,-0.4940532484543469,-0.46844669846682546,0.8537343459100701,0.2583852958312695,0.3536598461967677,0.4016965163029981,0.6976484952798622,0.0065804353233953755,-0.36648501466812045,0.803154080881091,-0.44799808834503646,0.27896545364174674,-0.19416985184059887,0.3587403610774202,0.09350970321574296,-0.372072438414088,-0.2712937566362261,0.6468652685413162,1.0618183047833984,-0.00673403964423047,-0.7335817695194853,0.022200625102960933,-0.013667156749728349,0.38373710770707403,0.1307155031102689,-0.45301333656127124,0.09626315035956065,0.14045350280954166,-0.3119429581224809,-0.001957085483141072,-0.2032232500849432,0.7335719888266571,-0.25263611313960266,-0.17237494435656328,-0.44099540482053967,0.3451665031160124,-0.3259058953609139,-0.09048213987651896,0.11500229720503796,-0.04248363100634663,0.21929876788038122,-0.19168948853194373,0.21699632858124082,-0.14150428923463831,0.08645810101711757,-0.18330660016843384,0.06218844412798348,0.2656758293017719,-0.10723625627576076,0.1329997032617342,-0.1412733646450398,0.3977430872462349,-0.6833867154483608,0.19906828597409915,0.0734602488188388,-0.48313485487981644,0.5676101879081676,-0.4706143827931055,-0.5092175420278151,-0.09965896833320761,0.3292765555551237,-0.0877094938507311,-0.26756502279537026,-0.2736913858813057,1.3679983565727514,0.3879302687543087,-0.5323485087139156,0.24249177592575044,0.10644549159008303,0.17437852225610645,-0.1848423488702246,0.1130599219628704,-0.4848770018060019,-0.4048773280990946,-0.13502278635167742,0.22856915459084368,-0.9357431825124239,1.0030733778360497,0.11261538340422561,-0.34009657656741377,0.5203052083402683,0.07252854932029151,0.2300585068345947,0.3303859406808977,1.0834642258967828,-0.19924383642137655,0.05111151544279763,0.6917228529445923,-0.4709226152932383,-0.28778545285320795,-0.1465357455953763,-0.24000942680462287,-0.1329607803207049,0.4159746412999277,-0.5230654779705682,-0.10407097461868678,-0.07237602951154914
16.576749801635742,0.7800006866455078,-0.44747621490605666,-0.05551744037864307,-0.42366626245997807,-0.6083518858100845,0.25035938477239844,-0.06345099652478403,-0.8956375982564401,-0.14190926583488436,-0.6222075016249413,0.05306449601523233,-0.24165194209408353,0.3362248391293994,-0.7042826770511663,0.8835319263632448,-0.4682689559093801,-0.13465643446559306,0.23384982063727872,0.2252425992231109,0.018833562128384097,0.3958095429060738,-0.6418199921763892,0.3860711821801334,-0.15843027236129767,0.30615405364914217,-0.3683467951124406,0.07166165341159332,0.07309873109170927,-0.03083372827452993,-0.1999163769105972,-0.1842035665754746,0.27088921218868706,-0.3813600741280206,0.053635146081239406,-0.24759504902363658,0.22432980254044327,-0.03331712152139912,0.16325539779884107,-0.020800602918511768,-0.22922956368206227,-0.2621701766073921,0.1443938035062641,-0.3120216737241851,0.04759754534155869,-0.3290853422432434,0.003289162025009229,-0.4687672910272914,-0.10829213732728914,0.08293118568973887,0.19780854554066635,-0.04903018581430779,-0.19919250435131994,0.04414150459450629,-0.18710004365118682,-0.10856167840389659,0.6344787596074022,-0.40203363854007673,0.22746585330033905,-0.926047804157125,-0.4296641828093381,0.9699207103047601,0.14324921611706964,-0.652255647572035,-0.3402708008660279,1.049695130073328,-0.30376011266661357,0.35053216080027,0.9862220568191435,0.4695957055260408,0.6869912685563483,-0.5266295061268669,-0.21703451591904502,-0.5768147587013126,-0.10785988316385968,-0.003928327015151611,-0.6883951556525683,-0.2940226956565427,0.5679904763517138,-0.02971518740478367,-0.11277605942985008,0.04589882595185122,0.2033988347082636,0.19961523753735919,0.2659118052305276,0.9417562481098559,0.23712299712688828,0.3930662914487212,-0.4041510994302196,-0.4735943886446934,-0.17482083095877937,-0.44797348395083436,0.30049437450943506,0.3389056188527928,0.2344911858609331,-0.1934651377167229,0.2686831937367327,0.45704627006349596,-0.519171019710412,0.5988247380220526,-0.2955357000768244,0.761540680452494
17.35675048828125,0.8099002838134766,0.7492987782684786,0.7059702867580483,0.12196934896266919,-0.3509662480982047,-0.17938663598632887,0.44312440377486484,0.1349386945260846,-0.512706521153968,-0.2481739742353825,0.9824863677970155,-0.21474910181889598,0.1945008784793306,-0.28471400171923844,0.09569116144358389,0.027102658979578816,-0.31725447624214137,0.04791178000655849,-0.27857118256353436,-0.11664264489002618,-0.2978318518842561,-0.1118857522200637,-0.09406159297284089,0.002220509940743867,0.2623278116958459,0.23976904730398257,0.008502508404457078,0.06551603073278647,-0.1696281811630669,0.12075646736871748,-0.25839861012252147,-0.05810952410275852,0.4436538615261747,-0.24922850356525955,0.14625457598366742,0.14338732618412453,0.4010493425998217,-0.23511890159835427,0.3529243951189885,-0.37786759805454845,0.07809562664008407,0.014416996696345497,-0.17107948637593423,-0.5472970403323356,0.13886801555148406,0.030369513728207037,-0.15362286811634754,0.08093101744191322,-0.29295853594123056,0.29700706247562036,-0.3967884403573125,0.3783197899381612,-0.2512394487306325,0.23792383437152556,0.015169609813497745,0.28355230865354625,0.0999302722341895,0.6212093724815065,0.19434893799688513,-0.056235099883534326,-0.4837178101665549,-1.7391275764707226,1.092027973665938,-0.09309750768416057,0.10100534233664724,-0.03742903351293197,-0.006800683402404709,0.4767301165698964,-1.2749849543291887,0.615612220200122,0.7978091508679928,-0.9054512307103376,0.3197467992914844,-0.5490290980162252,0.0745056209706701,-0.4130892693100921,-0.06309303779683244,-0.5974143351080141,-0.13054728381129416,0.28431273814148184,-0.4310350473839672,-0.043733834604984825,0.015133371678340446,0.9689362026078456,-0.23978381162127455,-0.42568737868600204,0.14994519778561272,0.0651416328023024,0.6147257615873687,-0.32678056019954266,-0.13940226940035197,1.039819426200904,-0.1198551294309676,-0.32641408301065944,-0.06912656983792323,-0.7730549771019509,-0.13837390722584944,0.231623409178945,-0.21695646990792902,-0.5686507877085485,0.8478607062701912
18.166650772094727,0.8100986480712891,0.9322356203733312,-0.43513900821812734,0.5516649669987155,-0.013201195387304188,0.4446615918580211,-0.6077967576646011,-0.28605093934148473,0.01900467852210269,-0.9222947995298661,-0.031102048357537826,0.09693307182971175,-1.0005771444462985,1.523215844446121,-0.3159297238127987,0.33934602323174473,-0.6124738029513074,0.11924767600937107,0.1874020521363468,-0.07007217513009618,0.09147317647718771,-0.2068598080580535,-0.13116953528432998,-0.13636550679602508,0.2781952329127688,-0.13837117665022294,0.1404513056381796,0.05969306036835601,-0.23432438067844522,-0.0901564804944397,-0.06527405015733836,0.16299877616181466,-0.2840394832643481,-0.1246101877836606,0.14509333730570276,0.009357200497238205,-0.05940667068406749,0.005657902652707492,0.17777089310632044,0.20393679508566212,-0.03502816362650951,-0.10124306047960671,-0.47019580840780595,0.16072797906992903,-0.10074011262239972,0.015051923973461251,0.24478363812321763,0.4475899204524233,-0.07923666269836642,0.45138364892962424,-0.23128920621706173,0.27840205559687936,0.06680302476658569,-0.14816387526428285,0.2658699440773126,0.16443287547516017,0.5675730843591273,-0.351253140152353,-0.46848072888168446,-0.12755191147007605,1.1314737155851282,-0.06967657207264,-0.8954810607700082,0.6009771665207797,0.05421976931784522,-0.5044014370126659,0.7424597823231774,-0.5253600719680034,-0.07891901934276456,0.4524536591834866,0.1126369061145217,-0.37167035705160734,0.41814632933294976,-0.19705450503751665,-0.47151442878784366,0.20285453992624558,-0.08825396242332889,-0.40068145918537323,-0.07936931114306141,-0.3227781773391339,0.28091347727989213,0.1934775650911747,0.004160704198700016,0.49610208017447316,0.008676152194838915,0.07655095411233778,-0.25622589431857934,0.08099592413023622,1.1214468153840287,-0.35920308753615393,-0.2528544074306086,0.6172823357612841,0.2805567470978844,0.4289795919291896,-0.7678842891642829,0.5340930602762259,-0.3836754838815894,-0.11244518023415179,-0.5595217371518357,-0.7052376581079193,-0.4493960215317407
18.976749420166016,0.8498001098632812,-0.4671221873180263,-0.11276795098236297,0.01632227757089144,0.12359309904084273,0.7460294001054328,-0.14259897843161848,-0.39083302368409234,0.429373433183829,-0.004745466420338018,0.23321376986359132,-0.35230371634405644,0.22068150733270223,-0.4889016419050577,0.12694317941205746,-0.12601739290869465,0.27045642899599504,-0.2689612841511351,-0.16731590012804112,-0.3695932424338798,0.06351003113522269,0.13957058914046228,-0.0169659227749751,-0.09614339507701339,0.055769029898279324,-0.15736546789680717,0.21927063779892947,0.06536765805065115,-0.2821066921461763,0.033375921627031395,0.006428661162874853,-0.03680490284184734,-0.009030783782959049,-0.16065560716853527,0.5097635534895497,-0.17285139843404135,0.10582256255436427,-0.028093236444437758,-0.12184127691677483,-0.10285108288053375,0.17208751632055436,-0.023360056237527786,0.38153284277969707,-0.08654972599236249,0.005000203063354872,-0.11928776150538485,-0.14148726767269906,0.09369917035306222,-0.030828863707768387,0.05909341074988243,-0.09041273523724058,0.16222489638109483,-0.4243945992165302,0.28742956151429117,-0.05281395111780483,0.5837737137833807,-0.6086452175361426,-0.39542880408079323,-0.47024259495565573,-1.1007019882544946,0.34211798012660244,-0.15543625328742577,-0.08168057388757696,-1.363973652860519,-0.030955349125842573,-0.13850335733633437,0.14508239231193867,-0.03308030747739432,0.11586146029724276,-0.07278011587817212,-0.22065441191206414,0.14400146266658526,-0.7912346116817006,-0.6668019133451014,0.3919808862492964,0.16574838904104333,0.9203307906999949,-0.7758706201652483,0.8108788297860366,-0.5448108369702498,-0.4023469397170793,0.4977694538038197,-0.07991414713873313,0.19211903299433336,-0.0983518058716147,-0.24716351076448884,0.20292700612689077,-0.14212923217729362,0.12574837554636692,0.2530418000963244,0.22810177887172656,-0.5742952462339164,0.20984587543858377,-0.2500083008785622,-0.00644865243373044,0.06949524809849404,0.244402728009275,-0.25687100945555785,0.1764242605105382,-0.3588179875599699,-0.13709701585359446
36.86724853515625,0.7597999572753906,-0.19787268023438503,0.05869011140707618,0.2392785180619202,0.13412367973011846,0.028565410634747303,1.023135953736291,0.19852444416472687,-0.3088094652082005,-0.24624530055107838,-0.023155208959887763,-0.3820295074351227,0.3411370142249597,-0.5354263258721403,0.26431059220957465,-0.10570972697757425,-0.5724305050258958,0.27946911690631476,0.14315553478510243,-0.225293079865658,0.25294700548523663,-0.09998946487020716,0.20119809578515718,0.1570505620199356,-0.3478324253788639,-0.05362956258003215,0.24095167827978176,-0.19362552706154143,-0.03678183386211878,0.1700193929485388,0.012838781494233231,0.07488636451019232,0.38599637877574056,-0.22349671161195575,0.17931064246112055,0.2370902363936906,-0.3089882465225613,-0.1056375063376934,0.03937973268968664,-0.20378467785257331,-0.30698340912439,0.14347578215707207,-0.03174440670484434,-0.011824898064253186,-0.10462195944951153,0.22259498542971903,-0.05430270935753853,0.09897753965603819,-0.12167007689810974,0.07824453440473988,-0.2304967320602529,0.28050400423074395,-0.337230889505819,0.3093268518782725,-0.5193446173452333,0.0060908282943256675,0.08579601926565006,1.0166162503408314,-0.47502226761112765,1.4286415576457738,-0.685162610256789,0.1717794579862647,-1.4316302879762104,-0.13860492652735998,-0.7821362390838197,1.3089675740474387,-0.49312474517277316,-0.46262080981964937,-0.0024424242613734215,1.6490265557804358,-0.22638552136552934,0.3831813307319456,0.048190769978647074,-0.7925673427351507,-0.31291390565339783,0.5895736586802721,0.16159729254560312,-0.066218078227732,0.26716568955083464,-0.29244098059237583,0.40989421325283615,-0.5673643703017339,0.41796081990750134,-0.11040966650226872,0.13108028178679781,0.2956843090436769,0.09484311496832676,-0.6053357005491397,-0.03473606789160234,1.4953238010042804,-0.22848799671717976,0.7976971274263849,-0.07082452594888819,0.2814721849456603,0.18979391012921965,-0.5084388141487997,-0.2023495287311905,0.11501583793799475,0.20340427461837635,1.004571722392936,-0.6502375085179897
37.62704849243164,0.8101997375488281,-0.38540743459286464,0.15458657060026135,-0.2422227883619829,-0.1792029362232775,-0.26511227939088916,0.20003741345787976,-0.26941958707073366,1.082165536367357,-0.22714967994255875,-0.024940941034564887,-0.14722407249712516,-0.3460598260544585,-0.3898959951844821,-0.11262100490034793,0.3246102746299831,-0.19455310721111307,0.19263531738150486,-0.177614659004034,0.454856936886031,-0.40079025484926556,0.2064247027774599,-0.19173875137754745,0.05457616926267575,0.12805897576828135,0.06522449866674998,0.16643098736107678,-0.058143513186319176,-0.003954353090745403,0.1955559976020847,0.06908096447502161,0.11894914209919627,0.04574801409161153,0.18670898580729034,-0.3030079869863545,-0.1311658909807787,-0.06146777339961474,0.21040268056793235,-0.2893133484174668,-0.2508001098365823,0.4152376594586306,-0.27152910060103613,0.3539683207710927,-0.27799692207344684,0.10668878933995325,-0.17818179234174866,0.21270060318738543,-0.10236110654400818,0.00844629596097829,-0.05761228072333437,0.34937130064378663,-0.24227652552964316,-0.1550931648432121,0.10948934569754047,-0.2954901102720469,-0.5555970700259731,0.190442194131129,-0.15452481947378016,0.534696110629931,0.5044529231684884,1.8645414333068822,-0.5698150512344199,0.09564094180004605,-0.03481127840305781,-0.08646234689727597,0.6517838391329921,-0.4384113940032098,0.4980474646504505,-0.10202486188406795,-0.8172820073024938,0.2833358634395036,-0.5313413859162752,0.254654154162666,-0.3148948957582224,0.1785590781440335,-0.36380226331356963,0.41002064876601296,0.5055084816427655,0.01284752883986966,-0.10236961599515454,0.16147863547762237,-0.06760966231952187,-0.030511515790002382,0.04821689009406031,-0.29196950712117425,0.6176209139389823,0.8524862270266015,-0.42536497072643104,-0.1210002037318164,-0.4754805706973754,0.16081957946946246,-0.46779828754625635,0.6696041531852643,-0.29178216068181717,-0.09818279675970024,0.039162794946381134,0.8088966517377848,0.13170138232345102,-0.6448959241713915,-0.041627430934275234,-1.063837581009329
38.43724822998047,0.8198013305664062,-0.8891516430254995,0.27770303241544986,0.18589888756697134,0.30531574520741783,0.4150300934009539,0.21379457447742414,0.30007917292767616,0.02528784576501661,-0.24394417881261046,0.1484387609367807,0.2002552333573318,0.678418719130875,0.1370984720763624,-0.49413896631059373,0.16958271279476456,-0.15501832944953914,0.05565728584844224,0.1365184206671561,0.2671686467706103,-0.11405073476507249,0.0029370316803519272,-0.219714341002663,-0.1302473212616123,0.07919486774693371,-0.20348979921495747,0.5244388793955285,-0.3032618432701298,0.45993817350287464,-0.045545316929957835,-0.29044623247516355,0.19416973961254652,-0.08976903138632909,0.1644286503783918,0.09800560469919037,0.19048246439133154,0.2107707814131176,-0.26767621891634324,0.08642055209506583,0.13717965281855665,0.2864364001714823,-0.19104018062566464,0.028235948890797436,0.08940412405812546,0.1735587590247455,0.03346390819677484,-0.08863320771992737,-0.15671055140781454,-0.15213905268275907,0.10468538307494483,-0.10552523822682297,-0.061240777897670115,0.06829941767483895,0.1476162238889209,-0.4689964043530285,0.6857695473640504,-0.020993228592516726,0.4486174265245629,-0.5336238184913906,-0.7215691523279164,1.4770498893929267,-0.5150766717171225,0.5861939369902861,0.13227100541160547,-0.5220509800047957,0.15684689050932646,-0.27425867990462555,0.1606586073090011,-0.06857572953105608,0.09158321852023352,-0.0986508373245518,-0.2969572149052883,0.49584388242982835,-0.23669220864055338,-0.6347998191877287,-0.4633916489826458,0.10943098357775655,-0.045095429780929036,-0.29014148376011323,-0.1567355373482608,0.0835712232751874,-0.2923466318218816,-0.304253289729946,0.21622406116316684,-0.2271622410341591,0.3791911289123676,-0.41996003991692615,0.8777606776793765,-0.5241061609488393,0.1341944450568825,-0.012520740122133407,0.4639304865514656,0.3224889373851415,-0.4568769067837656,-0.07006243829584569,-0.832618068536093,0.10959070899675802,0.181147974293627,-0.06883288068069912,0.10747617954834404,0.19067738451180058
39.257049560546875,1.070098876953125,0.058636600466823285,-0.033580097628618216,0.02027442508551046,0.29202222252825294,-0.727384098155061,0.8579512620942433,-0.5691029203931388,0.4158745101039678,-0.5066239863806157,0.748622991859007,-0.14092853125043042,0.5357586691373135,0.1949347098433435,-0.24433559698029442,-0.14833117684059854,-0.1180379490215213,0.15739616915471624,-0.18252160197244482,0.20106196320579495,0.07287967206148634,0.1237037377406727,-0.17931977955699738,-0.01705680802670563,0.034055386727850606,0.06850563002818864,-0.09628064646523912,0.04656155301248606,-0.013571244139343935,0.08412670161253996,-0.0998072312657664,-0.012966753914995197,-0.3585347328578008,-0.2023985860213182,-0.01823673352155215,-0.05894750384206725,0.049814720137889935,0.10737642158718727,0.18724745349318664,-0.008409365074763107,0.21374565072190493,0.04931285051928628,-0.07333978083208258,-0.1142109991907148,0.05231969581710566,0.2154242011787725,-0.2952205998706794,-0.05102407680684981,-0.20836353061255658,0.13478763179430667,-0.007454888649560898,0.046160820930769265,-0.035085636355621924,0.22594752930378414,0.4383868022671946,0.674553014592919,-0.5161204084599805,-0.05704243457625369,0.14982175557451138,-0.680848758991501,0.3265535909312943,-0.12751188874346833,0.34745691898332554,-0.3010798257767376,-0.004772773394773559,-0.4296340487168455,-0.5743324781713115,-0.018406312189362346,0.3461539660264521,-0.4936003468817669,0.255119510736272,-0.30190065281210887,0.0899638596566375,0.09620538773233325,0.41245408713945425,0.49536992847285893,-0.09322417009556265,0.050609459929777514,-0.46281048732801994,0.36181464465079505,-0.40109817938988346,0.3533317866532656,0.31890500108692144,-0.4534653156248976,-0.2164528534406889,0.4663135121479179,0.10817042385186054,-0.2372544769394115,-0.0837925349796815,0.3136665294281339,0.10708811792348624,0.03530315843015118,-0.21804452067449187,0.4254724169644747,0.22224308367320725,-0.02722887647416241,0.6059945035649751,-0.182302732245179,0.4203466831600149,-0.5394447562566397,-0.10877665843612486
