start,duration,0,1,2,3,4,5,6,7,8,9,10,11,12,13,14,15,16,17,18,19,20,21,22,23,24,25,26,27,28,29,30,31,32,33,34,35,36,37,38,39,40,41,42,43,44,45,46,47,48,49,50,51,52,53,54,55,56,57,58,59,60,61,62,63,64,65,66,67,68,69,70,71,72,73,74,75,76,77,78,79,80,81,82,83,84,85,86,87,88,89,90,91,92,93,94,95,96,97,98,99
84.74894714355469,2.201904296875,15.633979769933228,-44.51530572283076,27.251685672104713,-43.507972975627744,28.98947928443884,59.22250742476633,19.47594529131564,56.59227816820939,-23.269109201019607,-55.37839468266835,38.194988961561386,-0.5168574018839145,-79.87770584394352,1.840510199378059,4.038200821931272,60.9650976902804,50.60087633253045,-29.726371291316898,56.737057812958135,-85.98553290375733,-45.15197987470998,67.63923918932159,61.00530504904188,9.335553079356963,109.9749447171312,-35.07248885604846,-69.51840487440177,50.008447036028926,29.8782908366929,-38.15951106352975,-60.14730920775641,12.938783108078788,-50.64495901176719,-40.821662629306154,9.810931208407851,98.20217347134208,33.413979573038034,-49.192118370718575,12.073528506958748,-17.456224203629763,-46.28355692544615,57.985099933839535,-10.833653961552296,-14.537604856658556,-7.976396806835101,-12.535739021006542,10.116701721436744,-37.27844994445832,-7.022642638844987,11.92392076564413,-10.496736688223407,-28.175348669077657,23.93870335118632,-3.4427805304941983,-0.634115876051357,-21.03010928529337,-6.269946001746934,-17.020015296349648,37.379211112710486,-18.185337303148113,44.87021221497007,-8.313052057313318,36.58999721286619,-34.90054985553217,2.852165602713006,30.104241997231355,29.26615223234707,-20.724285344553838,30.365220097234555,-3.70892018193416,-50.05480046360318,3.6293009078467735,-15.059715156274018,-60.10558174037135,-67.33828657539847,1.535283633239839,13.718456611449874,26.67798733101496,70.83089181054198,-36.316416507621774,-16.64292698840846,50.95325502532786,-27.727153806604043,34.026543982042085,-0.3770476736955519,-37.5399549847931,59.03382062433232,6.976759949099668,-22.269932157183447,-2.1135473798977937,11.873725868958475,91.26459719349421,28.02222706890163,6.310360396163667,7.120294437894786,119.87892365296166,2.875948137166788,-7.174191540918102,-26.200340830531957,41.83375588698814
86.95085144042969,2.492095947265625,34.60070490277026,-41.82513521356267,14.224061341924974,-17.18755705262336,79.30516525306504,-23.415306638077855,20.64233884292569,-21.526828950412078,-37.25753225233812,15.77049296354729,0.7929813059514155,-52.699990051199286,28.520071614573308,-63.86883345001707,54.41585481321644,23.05163320125898,-7.183844278190973,46.19694530836448,-45.41957419321209,-9.121595302560495,-53.285308188373705,20.485187228183438,24.926984360791483,31.351295150317064,75.0989218829866,-0.48164054195556716,-0.038419445878028924,36.47700453095177,-48.68932396101621,42.05679428471991,-25.91478871709812,-26.122960230105114,15.23740392267527,-12.610259741243645,-37.078791004381,34.92215182763353,21.07487271260767,79.06200415257182,8.36627847158618,117.22298070588417,25.712379678269773,68.20572088835797,-20.515166014039735,2.313626196318773,7.0095992762792285,18.413452670519824,9.135421819253562,45.97985363797109,-12.128848043911706,-8.140817483625904,6.153126421945045,-1.4895249454275739,23.541514809016384,-16.812609612315452,71.0081734565595,48.882604786977694,8.688003461239168,3.853836413969008,-7.5720850656687855,-17.11055079274092,-27.689788580728784,30.639468383666536,1.7083479871175786,12.035170370878786,-4.873306253145614,0.6584006302947649,5.464576682647384,19.748498467466504,-11.868391568308837,-4.496323731122075,33.45021403697213,-18.326740527435664,12.68813335426525,-8.571977121439295,-6.619486498450619,5.208264231122887,17.286023328487598,-26.717115771335273,3.7192279129296137,45.79564321846557,46.48944010491139,6.22169890204058,141.2916793786614,11.583523393325075,8.0699449845266,-3.263834654330182,-8.186242921055012,141.17925588097452,36.52885047017772,-4.224903805485707,-0.34669930712227437,-36.108328417148,16.501960581765477,90.26394631147426,-35.184718514418364,49.12944460083807,-43.500713111546,8.649062503361103,-18.782841440598947,14.699948736421934
89.44294738769531,2.451904296875,28.004169784202467,-38.250077311403466,9.911284603853026,63.14034161435904,20.158779726616157,-23.910857000302137,-6.618652968247012,1.2267329358071146,70.54738813552075,14.213892540290203,-9.491127144376552,-7.528263772067622,-18.09359708780968,14.272795766344966,-96.35236216990135,-86.57683147879854,17.373164110025492,-18.57138646014921,61.993185277531616,38.42019309298351,-31.9799775105771,1.1761297306213598,75.03037543429788,-59.433217166523434,35.14355211267804,-53.5764503380112,47.93489513582076,-2.056610467942372,79.07277292793056,83.88240531164762,-12.004283077127141,25.223296308008628,-91.01064614865047,-89.58971265753065,-16.691547721679683,-51.31529048749641,-74.934188385988,-0.5077139727674869,2.2900612518502683,-41.94854248295897,8.605400849660857,-119.11973054666137,-2.1367931472399384,-10.493919384761409,-26.27591039765916,25.2737895332271,14.44158177856119,21.23411074690488,-21.319542264885914,43.25381103748171,-13.779381255375256,10.803830609246878,-0.3809522722490595,21.34495476952447,-3.863520847678759,0.5404047802191307,54.84902307086875,1.3610086787906441,-15.96140762532146,-19.30640350373559,-68.98982496798024,13.397064864813593,-31.930713543017028,30.57958589331188,15.776654271287958,-11.063632079346604,21.271763117818157,0.19606698767740638,7.316764933405127,-9.222802378136416,-8.881376356204722,34.83874859569507,17.538889725730552,36.37362387066207,4.554712906160742,-83.96744543800392,-30.897196163083912,-19.459584043569922,-18.25750160557246,23.196523056582784,-15.577054465805391,-24.03479313833094,80.17365579186456,162.1925465072758,22.959548087541698,-30.983579253057655,1.7661772159984812,26.159900238660597,-21.12519908535175,8.94071210264826,-4.251033822137468,-46.898978690473754,114.14995034187409,6.6397908642562316,28.823407215295628,17.30297206204208,69.01249015651034,13.822466290418141,-10.719108570442847,70.79493773797782
91.89485168457031,2.3824005126953125,38.21461080699089,-2.4321426471210508,29.7069394861065,-24.298560742013937,-0.1470654588926612,5.770973459569138,-9.529529261910213,-38.73955297364191,-27.146263962985227,-58.08770365228372,70.85295437210254,-18.798832868888546,-49.36393857177556,-88.1412405728444,16.10055039429162,47.2649530862585,-158.59805287397782,-8.816142824505778,-31.726414681688727,29.567229819120286,-86.89830085734808,-62.45905066116555,-119.14986109470256,-39.0642505519292,24.77372746233349,23.269052656911512,-68.6516455227815,-2.9161934582971365,3.5905008106531593,40.688795314743075,50.04979079595376,52.11632302971146,4.756468629016113,31.126465688518493,30.55714049666471,101.43376021258277,-2.834950414620338,-4.050162195907498,44.777617463057865,-37.09518751073543,-32.666060550147435,-24.000938538195356,-26.39626679436942,-2.964339718775456,-7.8432934111239625,-0.2519227600573668,-2.4751585465802037,-2.0137443509241812,-20.298289241732014,16.69327962468569,-1.9162517462177329,-7.053814646363155,-1.0133935147070776,-2.286183916938773,2.607944305372423,11.434818068623837,-22.88831867977707,-20.8361216205435,6.17987159824847,26.09781626309829,0.30319401225018483,-0.016147169058049027,4.11671660863543,-6.742877637879637,-8.899997088390434,1.1035320392103407,-13.432521199075126,25.04825894336167,6.247946496069067,43.62288521186207,-29.527628985773607,-13.118191916815888,4.043012965406968,47.488290839714054,97.23143185813237,-18.149955328791506,30.546809084184844,10.484540527637737,-17.454944543100574,3.6119865049140216,23.59496669558999,37.97437869391678,-24.352292262549014,-4.751747948250593,8.464581657006864,25.86922309085677,-15.00301769822055,-10.748190573577713,25.329524962172083,-29.372118289539763,3.6716866838291278,9.70173951208502,-51.12555377664803,28.365503835101748,-3.9981716208872395,-46.624639929451796,-8.883147104120829,-27.703499152586595,67.79690307281581,16.906060218966275
94.27725219726562,2.6722946166992188,23.44465806694977,-10.30007253478605,26.132176954411044,-24.187985663195356,-15.123105383177226,-2.7836429138089,-6.9161632305082135,-22.849969117366424,-35.73725330675079,-3.062944158796997,-2.3270512360107527,52.96179776497581,-70.89808896930363,-2.2510447763883605,-9.477977892324223,-34.086837577932485,-23.150598056563062,27.957885708431842,-81.97184875376986,49.096709437268075,84.48027114504721,-35.05459877251349,20.233133352274624,2.3217830263354493,23.179790267113106,49.737441153406095,-32.792650419271894,45.321398522304804,-15.927866234481,39.48172646984963,-23.009464835708584,0.3402326667580322,23.744905448886172,24.375984100891912,36.856769895801676,-11.771772259412357,-12.426817808477725,-30.503424775777994,-68.57748047415711,-100.42878541610943,-13.997762333678196,31.412495760456068,-1.2316947961316451,48.88036140079647,9.535018174711738,14.001463024619932,12.618347889253144,-32.67576474383587,4.2031962444722115,59.568736082659534,2.081126955325015,-31.69025350312647,-0.4312647284351234,13.907881418733497,20.426103975899096,-3.522364820398337,-9.52256859521028,5.462252792596676,-28.01258767351617,-28.65199089131315,-13.696113019215396,-11.65440095045358,-15.631513517876737,55.477148185050524,0.3254637099822415,-15.806568233893978,11.841401006539545,-1.9197864722845783,-10.94964825419688,55.2380298887987,1.7759730754257115,-2.0613696956703453,7.745333805696117,-2.9201769120293024,-13.610772204955751,42.0206048829151,-1.5661480725573127,-56.2738985470902,33.58176884040867,-14.983844199296305,-25.665277772238394,-29.187838326179573,-1.3139934444791388,-4.795093556292418,-13.679622336646691,9.51273162289717,-23.77647322839147,19.87516582136932,39.37767358185468,0.7525876551123005,-24.159758047666077,22.488664206689958,15.386439088819234,-20.126961218461016,-40.203233053476055,39.320072376351646,-5.616470643700309,-79.5325304012914,-20.961304678692084,-27.713715895281112
96.94954681396484,2.6125030517578125,-15.3403188683892,15.773353425974623,42.584000278646634,-5.255766680275119,-23.919690242823208,70.85588754745501,25.46241960863761,14.624402690444722,90.18424881867526,29.128131620041152,-8.704529638177071,33.702856869297825,-10.482318699425477,-7.718687451508559,-31.49413544969684,-60.49285784545427,8.37787219418495,49.11594829972226,-101.72987378229945,-14.20014935886725,58.20519176534152,-40.36085215276299,-6.4476818317876985,-104.66450333504227,42.94684142051411,27.121295597902552,-7.773322523007268,38.10951200413891,-0.5385692712064687,57.68287762595288,61.592889691261604,48.70850793223427,38.45611349412904,-140.3817708151118,51.56574809186958,-3.404925875394895,150.95077249124458,11.71376651777149,24.803520721986395,-58.87737324965512,8.631672547743513,-26.838513680544924,37.1970271856237,-2.074160980596546,-64.6941008007373,39.829274180994005,16.076625525609558,0.7386205050463761,-71.34750974165094,-91.48024038334447,-22.80824806024849,35.932514729005156,21.524790394890218,-21.497099214498217,0.2530109759094463,31.98465082279123,10.40118910738639,25.298097220186936,27.594917445970562,-12.06955600608612,-15.449377468499202,5.168524485107728,1.3495379923545308,25.135649565997085,57.5453862692346,16.3265732939293,-13.57476187990129,-16.25697028217007,9.303320613803198,-17.481679880036985,34.813834381756294,13.830385922929112,-5.397238504782434,43.34276727656256,7.401092390848869,19.679756298110508,0.13145233091442243,-3.0139774122940097,-40.0678332318306,-70.17256981734599,42.36385628137668,33.06480315233448,-57.407851913296284,-2.617459411117979,108.10660810966738,-53.2094848730408,71.02357532347985,-52.05522151610359,10.203520002174612,-7.804426850046777,43.68957290779229,-9.346274814045856,-53.406737227552945,19.52230903915849,-2.846256155176217,104.63708299505875,18.969049111391694,28.163651360987103,14.87520293519535,-19.21120003396462
99.56204986572266,2.2719039916992188,1.4621892640550982,14.936851715807553,13.288241219933418,-8.64653557686503,-11.246696979060712,38.29181860720402,-116.43312996273737,61.74194082074629,27.26927713380082,-51.716965841293714,-46.66591073024962,18.971812732721958,15.728323756069855,24.026309089951543,139.63936587993632,42.93054429104757,38.32611822476734,102.81335406655835,-9.141505706376478,31.734697033906336,-1.975257136432436,-56.329930714948034,-48.89709824109621,-19.426712645068413,-46.32691276566579,-47.467339365258304,-123.42002825955011,53.077177214645126,-58.391981638297935,72.63708705782406,-32.86286293155243,-32.96037092968902,41.745843305746355,-23.03592976448803,81.3615202190889,-51.69970498694214,19.34876861157953,21.6206636065738,-37.6298832834155,36.71225438816276,19.70991853916962,-19.59603996382056,-4.587567904540821,-25.817696590173743,1.0731531869159312,-34.80256558113066,-33.71148566047812,14.507469244682063,27.771789621396735,15.042414586684613,-8.68002466427206,-78.44782399910487,-6.118368604273314,1.057361743823308,21.483845281989097,21.82032169550669,6.653569653950779,-29.589883883254178,-17.82629971972473,10.399761050279452,40.54242357954081,19.67184670225271,-37.46460685373199,6.703051877161771,1.0461554649693845,7.9801932563979605,-3.062539420021598,1.3125325254662745,-14.23789483435665,-21.888924912960817,6.580904999882981,-21.475187002615744,18.63219773213737,-3.6732111905433715,5.724370139495424,-4.872078554360888,55.21383558058889,24.50110655741669,-6.3852565697971,3.3115879306792873,43.92135357407962,4.392285800835755,21.92984826444479,9.496989130686922,-118.29274760199851,20.49730357007126,-43.26754203130874,19.153400179639828,-14.378743168217861,-4.455561424768229,1.858062353223068,-4.201549296846826,-27.304426747833624,12.18356318382855,-35.1231018214153,79.97129297156651,53.62525142727494,-16.84658904552285,-24.858000486974255,75.03882352144969
101.83395385742188,2.0518951416015625,41.68141103315507,-103.2456488210845,-33.18798348482591,14.350728695159194,-1.2404659556811781,-14.836722374749819,-22.50351069243643,70.41356871348476,-64.86974823618458,-61.094741008725414,-22.203882492479767,34.32363955650089,-29.496163012564754,-51.40931368584335,-3.4049252647823707,-49.70606758833457,9.885994942859266,74.85191896233184,28.061724137030467,43.61471144425258,0.10918737520151467,44.288503645790954,-104.37044802436773,36.23652135495321,84.8465805354325,-47.24879102021644,32.508347605964595,89.8881172036193,1.114439821213388,-61.1508735850857,54.232950425472566,9.363223030076357,-4.8481470897296175,-7.01782847862612,-2.1504982660295724,143.58019987614776,-113.91128400636731,16.687041270497946,9.877993902122192,0.7351083842741843,65.34188585434103,0.3533549540122962,-63.38119381610128,1.3043753105490405,18.471672644563697,69.75663620507527,-25.5027873857983,-28.542178938548812,5.283104818699319,6.808257980959333,-11.831544176230178,-11.575182770366215,18.88196849679588,-39.960526004918314,15.50062660254514,30.715716880304655,-5.898025344993573,-9.755822326983822,14.908606641110559,-48.368390666717616,6.357136092908959,-9.682583188468415,-11.844004724242224,5.0640991879429835,29.522725784745784,24.975768175490952,-8.063168985635253,20.974096536058752,2.224912199871168,-6.155098560390532,33.51695625361896,18.83555331539404,-1.46768839782444,-2.003873066382921,45.060214205571555,7.279587641803076,-16.036905035016144,14.998668066371403,26.26625532883832,-22.0528333442389,16.66353436129331,122.61722186251774,92.00736230078154,7.525790176627204,43.101048555621205,36.29712512728304,-58.688190476915985,-22.31961638367418,81.4301051507521,-36.138189876239764,6.926488860679491,11.360054736223056,-40.71613090765152,17.41786553716917,-134.93252129551013,-35.27376771775115,5.679225811367688,32.6855643946016,43.31255604732318,-41.23161959140179
103.88584899902344,2.272003173828125,-34.92450702835913,7.816438996177706,-26.543495309654425,39.53326061214641,29.645899156363082,47.40664334845116,-114.29269465590492,-55.364315199622695,26.707778690865787,-49.6217757135161,-22.553191599352576,-8.380113276306158,-60.39043628000819,-46.599794955491745,-5.492951467159841,40.63409864323536,-8.556585027166925,10.268018160925543,14.359064263749948,23.138516912860293,1.6369705465828224,46.607892905731745,-2.738569251356451,-47.98858085485251,59.0557337518029,-75.21904822186818,24.537521249511194,-44.09301982957555,-39.38344269171503,2.3727325532257773,39.188497197341114,-118.81223681731942,-130.01726972210992,-31.93398116840913,49.567077030020926,17.428165280431713,11.335486580335338,11.231409524876018,-11.658908952692993,-8.725632070029484,-8.049223395171424,23.08581668267133,-30.072727812790184,-24.241881289464317,4.6645241396989,-2.3451642687565095,-28.180605643803244,-17.82758502194316,49.40301863647091,14.012061624743978,-5.450065281051206,-0.9277977713679064,2.1344762567403164,-5.759623891467234,13.475267403266994,0.5717387658097091,5.883460632417438,24.12744641401347,23.687557961491674,12.251479072526903,-5.739513983264213,17.11224482747338,0.19080218414668515,10.83855130402048,-12.944724355314534,-16.68684821607147,-4.621661067173854,20.122555323170506,-20.6787803937782,-13.196445145275716,-4.267313142530752,-3.2090703986336373,1.369964617932915,-41.85370371675399,4.231507742541241,4.556168607016312,63.373804335926295,-57.15131064219922,37.11745060124398,29.201259867194512,-4.296919737747025,15.025596948569504,-37.111343493883425,-14.23160904290155,-13.307130088323454,-8.418370547224958,30.668522197401497,15.740432318912163,7.49052390755379,-6.577601879688309,2.70989053870819,-20.396273811135988,-32.18047980618711,-5.504833534311821,5.684947206465024,3.746448973295484,10.47904751832453,-5.481332173405707,-13.979162406714071,-22.321066480930938
106.15785217285156,2.371795654296875,7.413945537868699,-25.996340275207025,-0.8535085619976215,90.78955244913706,0.41796337653150273,-17.517077098303318,12.385759028412682,25.00262211293247,-73.93102491945456,18.714689275376635,65.87951888014126,75.16756558019672,5.633098509794332,20.230022452354195,-27.007336549152736,-11.091961667455443,-10.554243844399084,-35.07531020123146,-12.337421789554647,24.81513368731858,26.17357921889468,27.346045138836256,19.31247463592982,1.2656812378430624,52.88172775841991,-51.862009079120874,10.480710827668403,10.235646934689917,67.55090990399441,32.62300700965325,77.0106565619588,-28.534756862909884,-9.450866987678111,-3.1725722397491287,42.564719856646576,49.43167307161018,-60.92471402330366,-22.210460236995306,-27.466422648141275,-50.521548998752934,13.442429832244027,-32.34238972522365,-10.06059338141768,23.84568574726301,-48.99537179104136,-21.54302636061551,-13.832578251857207,77.08205718825991,-18.049468249001283,-0.08473701736081052,-7.308815546346097,-41.31585515399449,-21.557738941467036,-0.22152530506009196,1.5912464347237656,11.210798174008545,19.70606883088341,2.669279158402299,-18.526533410600464,-19.065428350085153,-6.349077267949032,-22.252659758669644,-3.3543231719843436,19.73454758970349,-13.676553310963246,-11.014386419058663,22.68622077914125,-32.21319884007116,-12.120815472515913,1.496548840810286,40.24674698171953,13.64462042846569,0.34569371676233374,13.328502498237029,-19.266676554977437,-10.652545591638251,9.850161017156038,2.6827546648141958,41.87853913996963,-69.58162669230583,13.36755364552613,-34.95680472786822,8.617905069258216,-7.019023737677182,1.0057104306506375,30.815414590336932,12.369161260956911,10.465960958638878,-5.456976087136077,-0.40025892899841486,-21.578288674633487,79.84232979836311,-17.193073704900698,1.5320366301446833,22.270160535362443,-15.90437707403829,13.355994518703232,56.70934900657798,8.195611978904548,-43.80722325344881
108.52964782714844,2.5224990844726562,-23.445526922091695,-40.860802912088985,-45.55412200506598,-11.008684417087157,14.372333857640687,-10.561646288796801,-118.41956129248618,-11.967935675851221,49.475493171310546,-57.999223970970164,32.27046320753031,93.95537217056085,-34.72931301072776,-47.294890044574345,200.42490243984767,53.61543524598131,-72.57689393307457,77.33175130713978,152.36666425037274,-33.156024645596524,79.28504236098519,-28.03189198868945,-19.233036702101792,-30.758257155040475,21.387203458810745,-35.67184120477429,-85.64154388967077,-92.74642519536316,-40.727472813738515,-37.85854382486188,35.03388242773518,48.06936367803721,66.47527719796535,43.60712371065322,-52.58009439441418,-7.237957559217985,-15.527762587475262,-62.85527146955864,27.55747023540959,-8.109900679954702,15.995871171936841,-22.08937523413931,25.803865443024865,14.048869889527927,25.13000598017911,-6.7882765065841495,38.33176300695584,32.95028883892068,-30.82159914042873,-18.365399265365152,-3.5174989179136427,-6.157920618660787,26.921070792093623,24.695010114726923,-8.1858637718329,-3.2642876286230407,2.0386679640024186,18.81517411189971,30.591034173171515,0.37118327057015954,8.571755285762409,-29.489641628248222,5.515605954053512,-15.585688551127335,7.236507795811638,20.16923066501164,7.182736283662015,-5.007005368007041,4.151791658793181,-27.01878346442925,0.48862936913445765,10.90558493569148,32.33363639701999,-41.96794543392214,17.14286501846339,12.38605244289577,14.839790670913509,-14.388806517202347,-45.63116783194581,22.255087601498996,2.042985830023754,31.40830898307496,-56.80050938706581,9.91941748504729,-2.739196374905525,0.6478772354573676,-39.08438874254884,-12.81514701273832,19.002028931392445,-23.54439070052562,-77.18852421224892,5.356797620523269,-34.789794222698646,-38.852600229775796,7.130472767044875,-30.106078467320394,79.55390937685087,36.378145709433966,-79.47926461249834,-41.61461028877602
