start,duration,0,1,2,3,4,5,6,7,8,9,10,11,12,13,14,15,16,17,18,19,20,21,22,23,24,25,26,27,28,29,30,31,32,33,34,35,36,37,38,39,40,41,42,43,44,45,46,47,48,49,50,51,52,53,54,55,56,57,58,59,60,61,62,63,64,65,66,67,68,69,70,71,72,73,74,75,76,77,78,79,80,81,82,83,84,85,86,87,88,89,90,91,92,93,94,95,96,97,98,99
36.56610107421875,1.9217987060546875,159.1834435808173,242.3540890748014,-63.610730973834585,-180.68509948882615,-29.06865201332484,55.03431056816002,-211.68763581385667,-74.62500008940552,-33.532487016811636,-20.572378165710518,23.70463779288105,-24.072895519852224,9.100843134847528,79.84256087343235,-87.57766551843116,-66.88794227761358,95.75477941636699,63.429480276988095,-29.079068548242546,31.753808352670625,51.595962967419446,-63.33063972316593,-4.300443623702336,-51.28185862027948,-18.495706666724686,8.41746633966245,24.560537226102383,14.103140113344793,-34.76024202346676,16.742356767432007,-95.33788908940883,159.4427961570656,-60.00172322089399,16.998572273144596,-61.53870158565108,-23.972974227507855,1.4509597958162197,-9.33951663045117,-52.42205324458681,38.447497249776475,6.5854818758516265,-48.876551489136546,7.793542630600429,19.836153014380265,4.8133655059779645,-1.0197538610086476,14.316445865808934,18.669841419759145,16.932865400259278,12.401296165847599,1.1561358396033559,-3.665280375344305,23.4166659555788,-13.213464432550767,-10.591679083367147,-38.65809955882152,18.624408133805186,16.859918583528234,-17.645095325766007,19.166424352808654,-26.833455864073418,6.033487409464052,-1.4693112264569095,16.605955864082212,14.316864069679987,9.29767984793584,5.971085150250454,11.685002152484998,9.022990148608596,5.255209734903947,13.352396051494738,18.01255550926151,-16.139495174022006,-0.19244274837639086,0.620557783370483,5.522892766432408,-7.228290662472553,-11.424233056910692,78.28982144194,-46.78782454176263,123.55429144179408,5.680171147800598,8.636983985232664,21.75178019687726,14.910411803373258,-22.842055653893038,-22.8899519464648,-46.31416307291324,-74.63946689433334,49.72062141841729,-97.01108470005146,108.69869768229013,90.4357423750733,83.52859471083882,116.62484594996795,-31.090880569135575,-116.29424152183718,-87.23000382391209,20.190473682439883,-14.770507518873835
38.48789978027344,2.03179931640625,14.900399553067587,-133.38752511449047,-23.411092254403197,1.3734331000993247,33.87030650820138,17.01183342185097,-53.68281610574791,-0.7690119047024249,3.9523538673985046,-90.95495057991249,-2.234468387355829,16.76081826897439,8.860663772358823,37.89608877154183,74.44223244948202,-64.92647569446473,-21.393646594921492,-99.24246480941645,32.407140623494,43.51876638593268,90.787471104881,13.277670813953113,-41.96845388445669,-98.03413494587784,11.122399457861599,62.72119276950441,-39.269683803133454,89.38481009091423,-33.528633954124686,89.06598670179034,-36.71241330412955,-64.31283691220021,120.03082232147476,-28.65865682574875,59.568952270164424,102.96099725763256,74.00998343056264,124.96372850780098,-146.52490467233764,35.614088884808254,-53.108048160092366,69.6488685064936,-18.386883052491225,37.42777886280095,-38.30624664604773,-23.474222572612852,-94.30544543141777,-87.9065020043514,-16.560788042594446,5.531679912805504,-102.68556595054822,-30.004243778131503,-14.024775079402772,-59.51669285404917,-69.76338899765045,139.40607215838105,-33.85126184070835,-72.07633823562807,-3.6862722157410963,85.16995718783774,-33.527703837237944,11.046846911845499,-7.465373813201886,9.733222950445725,6.097967914954035,8.825292690658646,-13.768984264330548,-3.3024235260270207,3.3187938286217107,5.26880597703434,2.1844842334852275,38.11987889843243,-1.4261470831654535,-0.4029411701270331,4.00958681424072,15.989813225648948,31.108139050307003,3.7969327050556068,0.21994833145149784,-1.3069372119884686,-10.001738978592183,-10.61953311629998,25.025003610872155,-7.800770667295995,24.008571315694702,8.608737387317497,-18.458972597706392,13.951301202398385,-12.417710524491143,-48.1936856320236,7.3515155541753,-20.253115331288896,48.78757904191687,16.529651923012526,-113.01253632098015,-103.04156731056122,-188.83701894759815,-16.38107474655994,64.7671179801297,-42.46701589715222
40.51969909667969,1.8921012878417969,-74.51154252828267,-31.26181089742109,-16.885095415660956,-106.28270843022173,-27.29571194017579,-13.40416415646061,-29.026094972629153,-66.24860438921795,79.06038469456442,38.98157331935674,-14.584066050268085,-12.894789384942534,-54.1853584836408,2.1216766470552084,-25.912543451274985,21.843370531188203,-17.02113037773732,-51.906140391248755,51.64701945891928,-33.313563604881324,11.63761573759275,-172.74376586058804,94.41759577198721,-170.42250809620808,91.97682352877635,160.3592363953477,-151.50818832411093,-54.73304028708734,-27.921920347032742,-157.09493310211062,-10.286324511894412,-8.537504009560337,384.90169271504897,-50.42226808867564,-21.355275365812716,153.16625918522374,39.299037862799764,83.83258933366719,0.8776205526871355,65.84386153853018,11.118540917891593,-47.864080796499046,-22.43104384833447,-68.15654001265573,-253.00433451357276,47.08725696683132,3.210620658623532,14.969091849430765,18.417259197026585,-62.55708542443454,44.82530515163137,-7.594325566143345,68.22523232274591,90.25376044681326,-38.25375645194421,0.7774779107979573,-44.71605471761798,173.06997235537256,-25.1361571094464,-37.94965439100806,51.257454796673095,11.043619098234817,45.471384951066604,-47.78688404272573,-25.324365089054766,-11.443205662557872,0.9849942659640849,-5.515933720219498,-22.399642756670282,3.4788368137364944,-8.445677499172021,-14.777769979501873,-0.5137615774864388,-6.981337100813658,5.587942744282886,7.3839197883124745,-29.34253517495885,7.1435363774471785,13.39897462571402,-7.46599596162946,-18.2033361458266,-5.10332000268909,25.902958442511995,0.5608696738880257,-6.400584542845307,-2.9015523640988756,-14.328263188619278,-1.8921819202988903,61.11871325085988,49.054298793187634,18.929697525892337,56.03926267139915,144.69411249129112,41.750919319394335,32.575323571027056,149.00322520456717,-24.409854921429552,116.58070875148084,19.649773933072854,47.30973001779931
42.411800384521484,0.6208000183105469,33.53800697775084,62.57767488924091,46.54821878832567,31.177333423549133,52.23609757665675,29.23000901359246,72.62786123369615,39.05310923255182,38.89351488146268,49.41571487183798,55.86182503790768,59.07784231670628,-0.943183570335628,145.06468401970392,-5.609933309872886,2.940675620448408,-44.550302578161066,37.41470764164703,-21.603885810433734,9.461062092789518,127.08501854003393,-68.9301901058431,35.25458540515004,53.692503363631154,91.85926481854398,142.9808771551633,-93.55398488923743,-90.91549620164844,55.637234545515284,-214.94801204889018,258.65035422666415,20.326537793139604,-198.25283474947338,-47.3107140685991,83.75892525471302,9.530178361687629,38.652406780332775,96.77284117344769,126.22262628835696,-107.24979942422058,-32.70425644242202,23.188218823737884,12.851943636803886,-64.95700228373217,30.27202679243953,-9.889964312489575,28.587570510611982,14.948345475984347,-70.50123726081627,17.12454676839077,-16.32904045303658,-34.5229087534884,-50.05897784885509,-122.76872351227237,-89.39020183290556,-95.88937565938652,23.880231233429626,-0.22260799728868985,3.680442296313114,-3.493384849391128,8.251321864856328,-0.9689879964434878,3.1271293664895055,-12.903486495985728,5.177818778328991,-36.42802511591574,0.7300351399541505,-6.940200536667998,18.357329047951097,9.567212520710573,18.228851197530364,-6.898614865710864,-25.52455610304581,-14.26983965707465,7.998345709032209,-11.656329554236866,8.329915646387061,40.86575448023526,-21.374928692606755,-4.940266247387354,-18.1309033786848,18.04627733777147,-17.26348286475881,-18.354801935786924,-0.18274420032569072,-15.037963566396455,-41.702626317523716,-73.40626475417139,0.49039110764581295,-51.15717548850442,146.28513237964322,99.7623338768177,47.068124554311304,80.97740497300924,-95.91317003508188,51.213936261458144,139.37481410174175,44.877442195134,-87.87407326615937,-34.1906108732217
43.03260040283203,1.3614006042480469,-25.216823343541513,-49.785166555098094,-17.480823777844524,59.1536187312186,-45.54147438855685,24.233316006376036,-52.880098706484056,-11.719684694547732,90.65841893282624,15.762503618015442,34.824941262302055,-17.19811890713804,54.08660416041368,-64.50203911479043,31.081917030872503,29.93312014676992,-127.39913324522547,43.93176048301106,-68.54553149443304,-26.556559646047063,20.074271716174703,-16.370023452096053,-92.71137400318858,24.388276980156604,-41.13925852694487,-16.41368233296015,-69.85978404861957,-7.852946627321778,-37.555500025763806,6.2239727206052144,25.270652327882804,-0.35056296560641087,1.5955579809273814,-39.468599502467555,12.469352208448292,15.270186415623412,-16.817047991710822,43.35535259705132,12.926749728545445,32.3681641081036,141.69007168135775,-28.14976549414841,-113.28364375032342,18.415784562192652,-51.63033717668616,-7.737688281509189,22.566819724640407,5.591855901738475,-47.08068206828276,96.389675685876,-66.82611971510264,12.645151003412392,-8.4742962481765,-42.887210301491194,80.19400556698253,-8.69689799783713,-132.80755719166837,69.84139362522487,-36.99966747193156,174.361312662267,-47.75090640246765,35.52036890664672,1.748024067898875,36.19379064216912,-131.9116470981406,-43.10140586421081,90.77374092986408,-171.20707220328555,63.48422905752955,62.58165400278193,-64.93972015065538,-16.561738565943795,-67.7085582138935,67.959501621479,-35.655018336623,-149.02584602154326,129.96840021406027,-308.47020877295256,47.509846170025185,61.087315500524525,-32.73845278579929,-52.51882914413993,31.08234414731118,-142.79041247852976,-25.180323510830682,-85.57094453036287,-308.18597879249774,180.83796905185625,-94.84693129737241,178.40596502423938,-102.88972673037567,125.87591477092877,-86.29423339780863,38.679923475606216,204.9319348367783,108.37866441928632,41.95116273588343,0.6474430309533012,-40.44832192297632,74.39990235066476
44.39400100708008,1.9511985778808594,5.955951303213993,84.9085634404596,86.41569538884087,64.72908364845016,141.7557077760343,-175.6337210297535,-8.208828314253196,33.51210036733373,-40.292352140403636,-20.696992762616752,-57.036647949604365,-37.08080162960609,-93.61018669080896,53.811965612361746,-37.90080160490933,-25.617681071956596,25.26176094478904,-27.32024379438802,14.830022214876962,29.113981782900385,-12.171495415452982,-80.88925717189156,96.11350772577812,165.85731597846464,115.95421375202689,92.10422167942507,35.79837599394035,67.28108183019711,-6.382270027905243,-52.2393426536208,-0.7505919060712856,-22.75653620998998,76.48509348130855,-57.60564872367992,41.486849668889995,75.24554133123958,65.54236094467967,-31.223402541300764,-23.58851345427623,-73.09632518866304,-95.17860169927687,-83.23562269659081,-20.12925343604885,15.532541873577813,42.99233282635564,33.4824905751911,-34.19237713038141,-19.389436957719145,10.64961607506082,29.089533573456702,11.869369043074869,5.19059945211629,7.6889524512460135,-3.980337506340305,-0.48849879951467057,3.254369617262098,-5.921925133687253,-10.942726345586413,-17.006019062177955,12.519672957586284,1.5295731944422903,21.536541221361887,-12.937728912073844,7.0927904280260075,8.870272161058834,7.07427374036196,11.677378140796744,9.378155995009088,9.889016761607401,-14.97677258479756,-6.406475372435668,-0.20946730064359897,-27.466822065296366,-28.825376105353467,2.688353665907163,0.822388495486666,37.96050461302147,14.618347962396479,7.365720304345633,22.06237287519435,8.787148505693583,83.45905226479725,15.0173481602717,4.165833685550503,-14.035330369233595,-50.6824790764832,-35.88825184309444,75.77883186588171,1.5274458861763032,17.453683628781032,-22.268886404294978,-51.488793618208554,-36.5504968053011,-252.594063782253,22.7567839239316,-99.76267552407826,-52.03943083242267,-158.969131480293,51.836466778429326,63.61477706328087
46.34519958496094,2.0027008056640625,31.09252371993675,-5.399116954571168,-221.62441608307998,84.70088252761222,-66.68933839814405,-12.165739334686991,35.17082952375363,65.40574645093439,-66.39884953060434,65.74194528847737,-3.8926110089480517,-40.90467346910265,38.432096219444716,21.967666671429974,-82.35827124424091,113.07794154490026,-92.44260396491532,47.890020421534544,36.0407512250787,21.552823827407963,94.00356775298371,-133.11496261742306,-120.51355020787501,138.36245645402002,172.30174539171105,74.40656420943358,16.420610089447237,8.915161995801789,62.6271008658518,63.49395116512107,48.180095844857185,-35.856731047954526,-75.60373767159538,-36.9069178885334,32.25281081311151,68.0664403287121,234.85089877888396,-6.5425113998749405,-172.197104256773,-43.12772697987198,77.60982361198714,0.5211994844663327,-19.004132179561346,-23.595455907829567,0.4729020034311553,-2.8364793758285813,-67.23859572597996,-133.00566580062474,-48.34336808265762,8.309369453475934,17.752174124759804,63.85294151625035,9.71085188838774,2.5704362900477937,-59.18421823568741,61.646852606044405,39.29138021240891,-89.59681702699257,-125.429001149065,60.000081900684165,-112.53143514508147,44.45413258520787,-14.457520817545017,30.711234771052034,-6.304732364056633,2.5034131355584197,-22.261066318338667,-6.051901946554231,1.3382419717204463,-2.127773524390329,18.348848435910117,2.5364798036465985,30.90686760612884,0.1773510408847221,-10.637386525118197,-0.5287154335392331,-5.805322842484104,26.069674041217024,1.5193856076187022,-1.873366433636999,-14.139816784447728,-5.117947150983779,-15.011429658194475,2.676469626674474,-10.66168575979236,-8.834522945616577,9.906596111625255,7.237047108993999,43.835648922096226,62.432401912968515,-11.598206751053048,-7.237847575406014,-11.81072315454618,-13.82870676810293,-119.76804099126959,88.62891289243497,10.772119134935812,58.341116173992155,191.86509283171256,-22.395034483503558
48.347900390625,1.9516983032226562,-7.518853280717735,129.10409824204712,87.99183269049749,-76.26897643651995,62.40523103744786,101.64588447348042,-29.18471969187181,-41.14101473931196,8.686301016031369,30.06111828264504,95.42551968895788,77.7087578606015,2.182522226206757,34.107663953563595,-15.994041460022574,-148.7843292157037,41.92385538956589,-28.292754883777178,8.770821054999871,-147.62019021795118,64.12002358620241,198.61192494263713,-203.3374021740641,-123.57569360262909,-66.8145386561937,-50.01043528978221,203.8052198196652,-48.06131007772126,238.6812705889397,-24.307633997675072,-290.6000024268839,-32.62621391306061,-257.68212828594505,182.89394044375757,-51.789996784197626,-113.79283522668615,65.07433998805394,30.34790490203767,55.22724532015754,-50.24812209567718,-16.81386185912359,6.871055479290611,22.7463273421231,-25.993487667655184,7.188982659124894,-24.58359743702998,84.8385159549025,29.408899825559303,-17.457234204034037,30.605893344706516,36.91284237244362,40.425611521530485,10.490933319718236,-96.6699850629591,-31.87278053991666,24.77104828048041,-108.89256831142418,-43.89311829195497,6.3018559730872425,-77.67624241169922,4.106771566118713,36.10470152318688,50.58453346388613,45.42187517000793,-28.525049574636903,25.014134419091715,-28.75521482989575,34.54382043075128,22.064488529779588,-5.901546400121258,-0.9116084508909932,-10.806701333722811,-15.330878201596619,-12.946906770110298,41.704199009080334,2.5109650607725036,12.373496168205273,-23.893015047463873,-42.30714833342637,-0.7531319477157422,-19.22030713838319,5.154050687991786,-3.9697436141681166,-5.68763061019,-4.765342018390092,-21.33677257417965,11.730744262784263,82.06065912250816,16.68879435725209,16.373295494443468,-59.82274665405523,-0.1737733937031134,-27.984196963342832,14.234927203508448,20.827645385005816,171.6426733722116,59.42183148474123,-22.567783172706736,-152.73372696514238,46.358096626960304
50.299598693847656,2.2019004821777344,26.914651644436404,-1.3036090104929157,-21.41865684283413,-76.62504477437828,-24.962879898927927,-12.502292218778912,73.97863647623086,71.67670670024519,-33.40137168868842,-0.5191963802909783,12.396534301613052,6.903073735086339,-83.09041522486567,-103.15961782135065,-102.12066091616188,-148.10596378860672,20.82419655245131,95.71345667677161,10.216812985197244,-54.22802335483743,-34.20283412986264,144.6904627684315,27.722668991213993,-34.837459468397746,-32.52465792182356,-173.47051732657133,51.012783747463565,-9.564015923315111,-314.85711498896404,28.737148064279335,-130.8235478708395,-84.54182681760648,165.29795185165176,13.31039024560171,-211.5085542017231,-86.10819810941472,-22.217739099336626,-39.30938363577462,106.81789446781356,45.0059676343423,-29.917004066312156,35.24549060421432,-42.973419344560526,6.884729207497304,14.812758535450962,4.205885119222761,-49.96008385567047,92.74627375239065,44.066976516231264,3.4230317495855846,-65.51289478746199,20.916401117003147,27.14515447650336,-109.50408765190063,109.72333772778461,-97.92544862515183,8.402963796867029,-4.142581387871312,69.69741976756313,-72.23121763074849,-27.936095242756764,-28.151572396481278,5.878714612339991,8.800385605626719,10.047863591406479,-7.7672246024987,-10.970462616219379,18.960821646802213,-15.864000220597909,-7.501456589543605,10.92289060004102,8.895151204933523,22.56039646603856,-8.153871927041008,-10.074340796653871,17.8012593994968,24.03452845099922,1.8383007312196673,4.8383021034893705,-8.738753100497867,-13.48398876137591,-14.860853532874835,-23.163202768239437,0.9550343382444524,1.46343393857997,15.064699367675303,-55.004859869950224,-31.150606681027025,15.177779253747039,-54.49340415146361,115.68409640817686,-88.38549223468841,75.67955009417103,-66.43277037401475,-130.11677828026114,99.70117696512015,44.00491166891815,-23.99165580300737,-76.67792203887299,-10.649733746565829
