start,duration,0,1,2,3,4,5,6,7,8,9,10,11,12,13,14,15,16,17,18,19,20,21,22,23,24,25,26,27,28,29,30,31,32,33,34,35,36,37,38,39,40,41,42,43,44,45,46,47,48,49,50,51,52,53,54,55,56,57,58,59,60,61,62,63,64,65,66,67,68,69,70,71,72,73,74,75,76,77,78,79,80,81,82,83,84,85,86,87,88,89,90,91,92,93,94,95,96,97,98,99
106.24669647216797,0.9200057983398438,-0.1720105586204561,0.0037004279100443013,0.011466498394714135,-0.08722203660190699,-0.027700796368265716,0.012299601408783861,0.06617857647804799,0.1267879590060713,-0.20849125267961022,-0.024909460229553433,0.36980822996021745,0.006960449727697132,-0.18042888409872557,-0.0027598438136383296,0.00922735988808617,-0.03470591617172938,0.14586352525095336,-0.04328995314243607,0.05532367386080293,-0.020068994325725096,0.046017350317361295,-0.010622485948918235,0.0579320100882878,-0.06079408423602579,-0.0823859045849804,-0.10949051276541824,0.056969068600617886,0.057517276914143635,-0.012375988825312422,0.0983078880395473,-0.015393542060635534,-0.019856268008990124,0.07146444661741957,-0.1347791875739005,0.305619240735704,0.008565672898702545,-0.1775643932042511,-0.004073648349118164,-0.21855672232290088,0.10574428471406494,0.04711645552417763,-0.06741714657238566,0.08852733831425823,0.025508043683440788,0.005521055777667644,-0.03788666098815097,-0.05048600722656158,0.03097698402835146,-0.07302097552175987,-0.03884282329736,0.08536125300897371,0.1239469093340626,-0.1033426562974907,-0.04232139943871341,0.1323083652513935,-0.12246915516689091,0.5481606207180607,-0.20358764367829568,0.17521726658614423,-0.13160217073430333,0.04569201087495778,0.02651825291977669,-0.00337997407100711,0.07091313327749912,-0.09711243526093183,-0.12480807462471964,0.11388326241754007,-0.1551109883049907,-0.062111557699655186,0.17292150060857076,-0.2635137345257664,0.14094593326836385,-0.2089579778367489,0.10827899567140505,-0.08454764399394157,0.013240088155180449,-0.032691584945798005,0.004373553166292468,-0.06413914665111839,0.10520756472571202,-0.02413389293610779,-0.05897395704439611,-0.06211036252512134,-0.028136323120654276,0.0017266678295635267,-0.15957469760501938,0.012631613680974294,0.008146889100541031,0.01872967279918723,0.016998057326240778,-0.047078259050564814,-0.011458471951208946,-0.21000977909345098,-0.02154731731019951,-0.05552674022114928,0.0406832071921434,0.10193636491997336,0.16115245022490599,0.01502058521937788,-0.0641545720265824
107.16670227050781,0.9001998901367188,-0.0713006371682243,-0.07992048270062527,-0.013299210456076625,-0.013761587981949885,-0.06025854854054533,-0.1742614798350689,0.06837743999350933,0.13060324567962034,-0.4613383397594654,0.057470729935593864,-0.1333308580674189,0.4103200170716427,0.2986377048724476,-0.00929149760995877,0.12203274279239024,0.0732733260141607,-0.03336426752132493,0.047242282109636984,0.023922119981116863,-0.08388882977249455,0.05529169526939628,-0.03943811018394293,0.05162099606626151,0.04605805823140058,-0.09084962597447166,0.033961241525207075,0.047231110612141476,-0.06657920270826626,0.0072683247134869775,-0.00606404644938598,0.010587348101465421,0.01597688651128898,-0.07450292934546432,0.031896987388319586,0.058959310857292106,-0.029429147741557856,0.03184672510964694,-0.15642911531884285,-0.01320862042525315,-0.1341052000787846,-0.044993921080474265,0.06919038127574749,-0.0687843471888325,-0.03240066037258072,0.08369804829659758,-0.04738971832434721,-0.006897416612789771,-0.08204243620939156,0.11485615594974652,-0.00811210484472305,-0.00355481660860094,-0.1744389433436497,-0.018649301190371607,-0.19025024430982615,-0.004790231925816139,0.11478348307229885,-0.03488640711668571,-0.24514868310894916,0.18106774069975407,-0.024405621804559345,-0.0447661809194674,0.05517035651340848,-0.05147516431481389,-0.1727780068922034,-0.05841281346211025,0.07533285953683107,0.006249836435478537,0.13392744193061218,-0.32195130562392393,0.23246279215298174,-0.08551843047466567,0.08274593740486122,0.1712998379379414,0.07479752848830235,-0.21143855425970953,0.3374898720444342,0.011741340509218316,-0.07024449663696784,-0.03913792417706152,0.02564650842999467,-0.04162159334588661,-0.07263556362734858,0.012744418074225633,-0.06991020248012192,-0.0032562436753032532,-0.0021630694935687598,0.0206130276575435,0.017071570368175745,0.004838878459807966,0.049172298397774025,0.051985124955387145,-0.06156451383576497,0.050486017095759464,0.043087445080043044,-0.08943561034818864,0.08546681763206973,-0.03511321488887839,0.0366804040265303,0.04822043253790474,-0.1302289787658969
108.06690216064453,0.880096435546875,-0.0028096318772226486,-0.05224180670160627,-0.05586843309444682,-0.15069498074201315,0.09792957897219856,-0.05678720691796204,-0.1047495774572334,0.22130527820116072,0.23373762133931017,0.15460062516817275,0.3897277684505432,-0.3450173350850001,-0.0846715313291103,0.11210913535551817,-0.03616080705536793,-0.014440107983067036,-0.010819588446351669,-0.04967126600906555,0.09173817499925496,-0.0062052106517270205,0.009543825197790089,0.0342212869471681,-0.07425743264257428,0.2014249782612621,-0.074284539860531,0.017180210218829865,-0.022786592804945837,0.005399677845739413,0.013825735298501634,0.08636258514653943,0.10024911429357344,-0.01604150599220866,0.16615346129846567,-0.12343562621896226,0.18565643745417093,-0.12204538346582638,0.04494896583660709,-0.14933851154616343,0.12031951758891583,0.010077567663888932,0.027579877734700685,-0.08728407836665078,-0.0023277599484984677,-0.10393667093251376,0.1525765629121947,0.01082167654172228,0.001198058766039678,0.016419661322364713,0.076618318103782,-0.12581597656805557,0.13924632105072984,-0.16405152734896805,0.20918146756967326,-0.07041537245390439,-0.04081942870209178,0.1357097296023667,0.12300901822087712,-0.1408114050980498,-0.20899423023887154,0.15816939711536604,-0.08340205241171553,0.07494475710079963,0.015426703168062867,0.004125041110571912,-0.19515783163800707,0.14437726998900682,-0.1069292334032961,0.1277961925218669,-0.057084769069064095,-0.09417707814171791,0.14229740806107527,-0.0011058577712846213,-0.0349095253948318,-0.053488351936277885,-0.09279779331816465,-0.22886306115751842,-0.01399642562527567,0.12674211265068272,-0.06749909053823672,0.010426301198853481,0.0010194043114750068,0.04234007861437467,-0.01904013814455346,0.05141801847469395,-0.024931294926274272,-0.009966929776195092,-0.002638377687893982,0.04927109391441734,-0.018276813435846688,0.010508125061231097,0.06443731512116044,-0.13935527732164343,0.049013701925101724,-0.05142601165300228,0.004982458278175056,0.061192717657120574,0.08663266070185101,-0.039982650900186274,-0.0690622827680584,-0.06287545048834395
108.9469985961914,0.9095993041992188,0.06926695043389033,-0.16415464435958957,0.040267851435918815,-0.10067804579652909,0.023492359068661386,-0.1426833268470945,0.007050052142513719,-0.014974245772123435,-0.13618441251563232,0.10067927137304786,0.20688797523321917,-0.21153250664251316,-0.5618631989489493,0.2566475222861295,-0.3062688685195322,-0.0861757936789676,0.05016048399214446,-0.0038152453900516387,-0.09999126454821501,0.06129381340262173,-0.10823428774123825,0.07648161755109892,0.03468692507269629,0.03276459340090254,0.0913303298620968,-0.1180204083525132,0.0026056353731898074,-0.0042790055896871,-0.02764123939776586,0.04655396433151701,0.025070182130998327,-0.01629450570854747,-0.018908105667003516,0.049820425104102985,-0.0488528100690828,0.11369416358830486,-0.030718134150503847,0.09362053880680452,-0.16593904318686337,0.060584562244762344,0.07500377280697493,-0.04136673379482103,-0.021915092929395984,-0.11949025465012034,0.07450640526584426,0.05551539323490108,-0.11264473625813008,0.11010801875268914,0.03689232309518189,-0.02714910012126092,0.03251085434584694,-0.02750173285575788,0.05435953164649063,-0.06519957668557098,0.04372689894027065,-0.12118425709073519,0.16481295488701309,-0.27598518674335437,-0.07352207653240114,0.2552745027971224,0.10919300313936117,-0.2231293244842256,-0.13036760581244433,0.6215132070052429,-0.15516910346102233,0.14930006682524638,0.07275853299983362,0.1557711969396921,-0.04087578526615164,0.03217435562283835,0.03052421646733474,-0.013369967828204916,0.11439810425459385,-0.026642002169454615,-0.0359905500864291,-0.013150248935990969,-0.18337144755630227,-0.043500128745836454,0.06057248083898536,-0.025794020849082798,-0.0017416012705520206,-0.0017196288232427664,-0.010617128041022635,-0.0013150875419472687,-0.01852063782721679,-0.0644501429586585,0.030794253548080398,0.02830352117043795,0.06573291452660719,-0.0336277170082356,-0.05141497891427829,-0.0826627878584627,-0.049508573854426405,-0.0512355992813891,0.07072839119796209,0.008749862350109328,0.14429868100989318,-0.0021078434930659057,0.17170481934305315,-0.011902150318914131
109.85659790039062,0.9101028442382812,-0.032048004602190816,0.06803424937210582,0.0674451592350016,0.028409064721928053,-0.06207473254212814,-0.02066956056385173,-0.003182723960840246,-0.05648566196922322,0.19508776952886103,0.028056575541874608,0.44583021878800927,-0.17361855199304704,0.5093884151495116,-0.3510070492990302,-0.18038672836734435,-0.22249033004293786,-0.0998360792397067,-0.03007999011656106,0.07797194454780347,-0.022149475224980675,-0.06585585435270913,0.04677281059043334,-0.07360275109857949,0.20091819010441786,-0.11050908842499275,0.059718779635948696,0.08035536982321505,0.06042023800335217,-0.026908287654118512,-0.015237757756627399,-0.00639151977105969,0.04025280538859337,-0.024512195227221284,-0.139378384279973,0.012339308037092041,0.008447289642453037,-0.013726381377659552,-0.0022616271205648936,-0.08062757132547665,0.09843093066918834,-0.11318298977916336,-0.002219546435149191,-0.08602903059676374,0.08347422969618332,-0.04610695027956204,0.06149522270088667,0.06711746309703032,-0.0046978239156485165,0.062164322354135285,-0.08213866289572341,-0.022499903303835906,-0.003683465927270455,0.07386840582392101,-0.14081882272879873,0.0679272765113494,-0.08480254436385427,0.13459991118525444,0.06900980756206289,0.3330849348194276,-0.27380218461009803,-0.015833179515520934,-0.045407440114045766,-0.021667583371966073,0.051556579201541955,-0.07076157466949898,-0.05971040432617637,0.07830841815877031,0.05083003015285867,0.07866989480662201,0.007916799380083796,0.10717325058471562,-0.09780134430206258,0.13767581792040556,0.06822139256700675,-0.07092612994792415,-0.00824866139454613,0.026478167453387685,0.013208643087546323,-0.06423995177660755,0.05038617054768909,-0.03047995773861316,0.061366436276997546,-0.04964191722047848,-0.006123683167960071,-0.037984434717339616,-0.012408012011456422,0.000708838874484397,0.06047833854418347,-0.05468340291841057,-0.048741120852710464,0.009613102626485931,-0.008656829848629935,0.03614076371120677,0.04559847667806022,0.1180598359897374,-0.05068859540275866,0.04652277901360424,0.03201044350564291,0.04251536630019784,-0.15800088358194286
110.7667007446289,0.920501708984375,-0.16607278775175038,-0.0013329141503892353,-0.04076961538013873,-0.044116379907751795,0.012308274800841295,0.021828237662579714,0.09658175117891168,-0.14860147931698933,-0.052869767217502854,-0.18455320760547086,-0.2698105310167067,0.1831362681887609,-0.027269985066904815,0.05451260796838632,-0.04778511620493183,0.0459964943614272,-0.03214951903241181,0.056804141673837405,0.01957962611286645,-0.02036509876316743,-0.023898553749214745,0.07025151404908403,-0.008354504633161862,0.08108685438320248,-0.09925472112893552,0.017891454408050927,0.13521973759989517,-0.037491548112082704,0.04095660314223434,0.06338310014298454,-0.023855752163394153,0.07852918791364784,-0.15663838465942626,0.1133766617228907,-0.1358985717165214,0.06581531869674438,0.07531669875664049,-0.14363304663730966,0.007818055925771445,0.012884969495005096,-0.011563060334129393,-0.0753696386004302,0.06852899354172372,0.03197406492244636,-0.05260545205789621,0.025736830739941107,0.014033146729957636,-0.00760949743361806,-0.06791461634358872,-0.02501852198972711,-0.08703894470182329,-0.006285844828776697,0.021635927232018314,-0.015118884706115233,0.12778586268437472,0.037109646699903465,-0.18301044681780232,0.15501882872639053,0.06041215114332629,0.029565889216101163,0.09393074648736632,-0.00507148462948034,0.03237238121607762,0.0037797594017015103,-0.015774473624917934,0.028764684354851175,0.09436727322794387,-0.009156834257515522,-0.053573785681786674,-0.08812820082545518,-0.08821437968759464,0.2025571490563411,-0.1755979031748708,-0.13911065506556872,-0.00701895114798042,-0.028196803955646253,-0.03363752077300234,-0.051725400196844885,0.10072105540505044,-0.059057153133983104,0.08332773363817675,-0.0559533704635249,0.05783021314475134,0.00756118980449981,0.00134274299483878,-0.05969073596853185,-0.004961281198778687,-0.06982106567435539,-0.026448838415044938,-0.05463778377308885,0.12480106607221098,0.03503420128302462,-0.006525084162869718,0.021095987274059567,-0.06627711458393405,0.09511963438537363,-0.046725679324834804,0.07727351047032915,0.03040597212288766,0.002675017273250569
111.68720245361328,0.9099960327148438,-0.004623283231383935,-0.011178854135176263,-0.0023030916228239736,-0.059378520157185116,-0.14475068234418223,-0.02506153048333068,-0.2029277948529355,-0.014124949142345307,0.3424365901534175,-0.15824273858389876,0.2639326725204929,-0.13120453756698225,0.24665941715538703,-0.015131153691601952,-0.01281676215870018,-0.030087242976929815,-0.17019425851663444,0.0932014961547815,-0.013114965848970006,-0.045453552577029786,-0.007185267235484304,-0.09640898037288895,-0.013263439162731809,-0.05384387635495396,-0.05696009398461659,0.041949088880763485,0.01759454100285432,0.08015172705398188,-0.14440237337679765,0.005251903464742559,0.029737963251855938,0.04537054904139929,-0.014703412400135752,0.14672575140075095,-0.07675038110327681,0.08130975401327334,-0.06970104357726398,-0.015008165669359051,0.011333252890940518,-0.01773137784937974,0.0730879252137766,0.001613020341203062,0.09078678835409612,-0.028844208330123737,-0.07159037627274463,0.038682463691822405,0.06716139938818547,-0.0980039020616318,0.07498707592118566,-0.09468931415093479,-0.039128443946843464,0.07509247381952837,-0.02284768866670265,0.041857884655892866,-0.04631041927734773,0.09350042244542948,0.08438038703836442,0.03314649610011274,-0.05576999345899672,-0.14349471839877873,0.16474354757273924,0.0034277982091169288,-0.031368873394097815,-0.020586250490591707,0.0461133933661238,-0.02059872155404241,0.08403616477468398,-0.11420587175835784,0.01378962618014238,0.017352501389105844,-0.024097852304626913,-0.12785530671185008,0.1631033195141246,-0.08971810269787098,-0.13149995544910925,0.06708497066566259,-0.02408206187719087,0.00917169174791075,0.09609820637784033,-0.20509497964904502,-0.06552353502959656,0.015304720900492563,-0.007331247740811266,-0.0471155167807949,-0.015990048638007216,0.07663177617266796,0.025987235987047805,-0.040478255510875125,0.061882624239827544,0.012696824123359398,0.06621017095369729,-0.0439331492052138,0.017086798925796114,0.08718220875724365,0.004490079907590017,-0.019673743733144206,0.0706542883923728,-0.01741653254990934,-0.01736311232098572,0.05096570477742632
112.59719848632812,0.929901123046875,0.037727467167826496,0.1383262581599404,-0.16793469473594747,-0.07472220330851792,-0.05498406153294291,0.15948482569368208,-0.08392912925239127,0.05305961760603823,0.20973051760642136,-0.3045706268682161,0.02004277581734895,-0.09226894645667615,0.18490449716650464,-0.10030868634961096,-0.1501675315820909,0.017143156208255857,0.06413543383497526,-0.015859847976548803,-0.017598096916735147,-0.03262083784132171,-0.06610125740349948,0.13607262201555032,-0.02719076149789057,-0.018312442548736804,0.06466398742159127,-0.020128858793565702,-0.04453393504281339,-0.053025978907695545,-0.14220983097724904,0.045048179437509175,0.032462069093519605,-0.05029813018116451,-0.03484527992844503,-0.09954589526878159,0.10271937463002268,0.061440643250671494,-0.0005663634946324915,-0.00046746334584472655,0.06942623840264953,0.030498540973866062,-0.056708861113250415,-0.06016996872942195,-0.06933769181314081,0.0730686800300198,-0.025704245618147683,0.03846731467615339,-0.061961506551475365,0.007917012428417955,-0.012044870547501974,-0.05028493545419034,-0.08697584649605755,0.018443140258194025,-0.06381196284138647,0.16785747197602108,-0.19168275793565187,0.3831101317917325,-0.5033512508859124,0.18414496394604257,-0.12637243574401497,0.3082386253890793,-0.056802400136061616,0.04396442172623076,0.0073092280058770775,-0.08897692848307692,0.05382238053992639,-0.18172264203204383,0.08964730204214683,-0.08114412898955144,0.054679530758170475,-0.07217231273743767,0.09837945555163706,0.07091500015895198,-0.20730199576973385,-0.2636682644013207,0.07539591700103375,0.03561467478911664,-0.13003995305622473,-0.06911906260582062,0.06934488017159038,-0.17823164505213593,0.13482534509274452,-0.08396386073622354,0.008257026241379996,0.07468958754419627,-0.013008031303566262,-0.033017849269942154,0.014389570073992117,-0.039162456965051995,-0.027943558219594412,0.034580091760918655,0.09408740359525936,-0.12506948751762095,0.09323764763298222,0.1060920371190491,-0.03977903732506884,-0.02119383807951031,0.13111327429556285,0.002299628508036348,0.01994521834534238,-0.0221734095724722
113.527099609375,1.0102005004882812,-0.04430803770003969,-0.06860784022826935,0.0009871792605189202,0.030727547746430245,0.07415542906422762,0.11247106032228718,-0.11565369982107915,0.04956124540325999,0.2606779942101477,0.06904499553224505,-0.14692557232160383,0.019087278076149652,-0.059738321595835406,-0.18360418875641682,-0.140340758058113,0.053137234081991204,0.07563453801558472,-0.06339846050697727,-0.0034359524116184944,-0.06872339317738141,-0.002906873243519445,0.040988474028712786,0.023730719294009016,0.03905379598918336,-0.1646698131488777,0.08937176379079782,0.13731506476629463,-0.1696092282006174,-0.030025653523114093,-0.011410305846816057,-0.1325831880406795,-0.016664913352633374,0.016825040116761794,0.05539984798724644,0.048111789981660456,-0.09081400887537251,0.07254046474251472,0.04422887527515122,-0.07984423765148481,-0.09408535263088848,0.07994999548192776,0.10203201082789023,-0.10339739103562688,0.05460958103970769,-0.08190441926163715,0.00037977898150691816,-0.10298628007659845,-0.09733784582233654,-0.014138253861820375,-0.035626946734443915,0.136593555452513,0.005217218783246354,0.012203692136270311,0.030866348997073776,-0.04834249898400101,0.013968071498189714,-0.006222965191649327,0.15669993395230628,-0.01714846622471364,0.02073296331073906,0.02942902340948089,0.008283556871673016,-0.056521330470047926,0.1308776188480776,-0.09654529796547114,0.0880222016548668,-0.06124026471822375,0.0671061867018416,-0.014457949860683184,-0.06278546984704303,0.09689443277178761,-0.0352710557779636,0.006252316316375583,0.07035963497795784,0.02493543185473996,-0.10231547938208703,0.09353685484655394,-0.05342568281507432,0.046537339365316996,-0.015498907728317237,-0.020943957851926095,-0.06322964397088521,-0.0038207600430414587,0.08014448058781151,0.08666943628466042,0.04490021179311321,-0.05426182107023508,-0.013001871863106768,0.013706149346575979,0.03097719064843395,-0.02061827689527046,0.038085687981406484,-0.009889452903475145,-0.016069281802882408,0.12236986860110952,-0.03330710454214281,-0.04409205956494369,-0.00905626475651597,-0.010374308070916171,0.09183470510542595
114.53730010986328,0.9899978637695312,0.09037830269152247,-0.0027294658272088157,0.00804980642533483,-0.029113332980603288,0.04472845863950373,-0.059942952880472376,0.08753440169214635,0.2518416965051093,-0.06735138813985497,0.09556330148933978,0.03275315798896924,0.035357149582383944,0.09494356244169115,-0.017708576856731918,-0.17439449079578337,0.17178030035633496,-0.17235618900340158,0.03242279856155968,0.04964849159208502,-0.02385058511717172,-0.033342626360701934,-0.10041249875945824,-0.026738511376595928,-0.10367105423987671,0.00435410095900077,0.015124171868691678,0.016160715836468706,-0.05200446792977653,0.09036903282932574,-0.1177573111913135,-0.07908622245196198,0.09814408525564305,0.07180401338504849,-0.08417914684145317,-0.01854301135019076,0.01979312212756386,-0.013697417429931703,-0.1032705585560844,-0.06072064431273057,0.0693048846852159,-0.035933561086893426,0.03393124045020067,-0.05823871608803549,-0.031701389187111496,0.08882838445980282,0.04471736954979883,-0.02187294059062043,0.028180522958603776,-0.0658458713792097,0.0998119919094937,-0.07906938629219966,-0.06651996747940803,0.00879006387511741,0.05965854924608852,-0.012305303767767797,-0.16928322410150476,0.021386008944359707,0.008926515830035777,0.036915805513819705,-0.08423357952372935,0.02528499238624962,0.01854251928170259,0.13845480144742145,-0.2072775904609048,-0.018404421489900576,0.19508725372432653,-0.1744692967246028,0.0415574663550095,0.01240221322294685,-0.02186297655725592,0.05082817981906077,0.005962538185070526,0.03539473015593534,0.006166998612434221,0.09216269481600263,-0.18324854249664096,-0.026843004796605535,-0.04914297320038895,-0.022154400223800386,-0.01419774271294359,0.005301550070602901,-0.05427048853508391,0.0495145277617625,-0.029048490701283052,-0.06953978071060969,0.07563052125456406,0.038442592308120895,-0.07906972049106217,-0.04847258329070377,-0.07692415587255336,0.03836195854458332,-0.0002111070653738452,0.056302143998884224,0.022675728147653746,0.011981890762740862,0.006424290896563267,-0.04575537306305098,0.021119765042374325,-0.09542899338784168,-0.06790493063751091
115.52729797363281,0.8902053833007812,0.07174591774296789,-0.06947632407844809,-0.04632125741838049,-0.09496519601196182,-0.01411604197603801,0.06492334151439394,0.03324020165003734,-0.07310058370902221,-0.01163870067370558,0.0757550065354788,0.21442110958951102,-0.06284041666706908,0.07214994679558431,-0.026710316648796008,0.03707052270324547,-0.006481987620362888,0.014857260153749666,0.05343272882236789,-0.09685765000896945,-0.06801445835672928,0.06250716295290792,0.00026526046160010625,-0.08103515126905007,0.04115119127968932,-0.07888976075463486,-0.029055635484664506,0.0006449179593657622,0.04710191210047517,-0.011298555030198967,0.03879135527921022,0.012827417941320784,0.03907136061705612,-0.07891333523884028,-0.06985516424766211,0.04343383994571218,-0.032940868651885676,0.06744695494068656,0.12540411549035665,-0.03829001146978181,-0.005383139478538697,0.017938734614290113,0.08092368704793718,-0.050586548241134205,-0.037812536557986456,-0.059568485518817174,-0.0035147431029708054,-0.016914410660452864,0.05792539378645576,-0.059377026035087196,0.06398418147691723,0.022109637766693516,-0.13587533292494242,-0.06395071952477492,0.04370197017259943,0.016836065716286167,-0.009716721762642704,-0.0025367542563498047,0.06020180297825582,-0.0022271613132302127,-0.10551490954854822,-0.03241306411913549,0.16798829562230444,0.010987528925540757,-0.08232960189958309,0.14053726746406908,-0.13172007672336755,0.01014042981185984,0.1603506379376754,-0.0270182539386497,0.07704128461335455,0.1711253732167114,0.07980539439518661,-0.038237520589635365,0.08880420118095739,-0.031671654520165606,0.06234485714262831,0.062204278571532094,-0.010773169295360267,-0.07704435334467628,0.015789247499014662,0.04021333588077684,-0.053666053219065465,-0.033514681901568796,0.035445463878828534,-0.032777218206508904,0.07305535146403415,0.005823225523505796,-0.003598036967140726,-0.020406511717505845,-0.043889842104309844,-0.05382276242406283,0.007579134991780725,-0.013107908920901782,0.001577401879486237,-0.12369305140166725,-0.11767140523635139,0.07996792688067059,-0.15816241438324233,-0.04892218651814262,-0.0360692881305386
116.4175033569336,0.920196533203125,-0.0441611025678766,-0.0695271240452244,0.08771495718185895,0.10428474021914606,0.07069890310601315,-0.07370936775234609,-0.06779418440828755,0.35424817931428937,-0.0008402698436163897,0.5255974125499773,-0.11717702639144799,-0.4689021089131616,0.16490760575860805,-0.0036979170589321944,0.030149134306613656,0.054555475875140626,-0.10327487630649534,-0.004581405928667468,-0.0841356251793752,0.09717055495418918,-0.25382753622904897,0.0778323472090835,-0.09320094887328269,0.06854732275030345,-0.055221659420533004,-0.07925264097326912,-0.08050842344086138,-0.05147879014349851,-0.012548400306718416,-0.049581381971929586,-7.094004522347624e-05,-0.07492008581329249,0.38318172950300755,0.09503045207793902,-0.2416109448407577,-0.09955479198510818,0.21646333068263426,-0.1752108617018754,-0.004981671990264216,-0.011582552697426982,0.0786318844684264,0.010039533927572706,-0.0002808708940527107,0.011389023951870955,-0.03032730785883618,0.0904748510344651,0.05881640389602907,0.021671229880283662,0.012851584155681176,-0.05249736739493384,0.06004413798484927,-0.1798821560806096,0.1677417026123112,-0.13442018572631925,0.15176158030481782,-0.04790812708388113,-0.10328462489675708,-0.03530665934687955,0.03810308834104035,-0.2481283601135047,-0.012239382582296142,0.08330884445259935,0.00041538630836134884,0.02408574594128418,0.1180899088947719,-0.059215705688300674,-0.044648183005800576,-0.048021409925492926,0.014539182726182397,0.061976445741769345,0.06165328747693918,0.05597659620099389,0.006689075048490246,-0.025441101135036923,-0.010996966439670871,-0.005711081676556521,-0.06846908187628804,0.03055141064103145,0.011419297736358644,-0.002512025763198594,-0.00047885071272717335,-0.006030103214980848,0.004363007823616553,0.02263872477748829,-0.03553949430047215,-0.07633408598030982,-0.01904526892042633,0.05101030833261295,-0.044014867644416755,-0.012370090339710926,-0.05508663239676566,0.02131493192334715,0.05801495709879698,-0.019754996370335006,-0.06060522401806295,-0.037356622651092825,-0.005529042762340904,-0.12174229124769487,-0.11288371292954102,-0.03755696483088576
117.33769989013672,0.8998031616210938,0.0881611577794426,-0.01354318644346307,0.10244194510073926,-0.022436317997350533,-0.0075971672504301325,0.03351773771950215,-0.07479254867201697,0.310010312250922,-0.22645301084990224,-0.17651590280965918,0.008030570441400504,0.06893118904543413,-0.08341830078028378,-0.6893105826442385,0.4394953326892197,-0.00046370353953305386,0.020113794296496,-0.013229846858190508,-0.10459372860443597,0.07490432980054978,0.030316630744940565,-0.020466596511929752,-0.027929811589318114,-0.0736058630077622,0.2149989109628025,-0.09767693437856095,0.11510349036191979,-0.08992872944307982,-0.01798416527400578,-0.004304590738367423,-0.008010249180137558,-0.08617965614350764,-0.011200809227209263,0.04740981473724817,0.003866121914230694,-0.16343779411320153,-0.07723194816889749,0.03469207798698804,-0.007627384627712813,-0.041090766871547134,-0.04278840392678292,-0.028332249442347635,-0.00879635366440007,0.1143666803507261,0.026037060581276195,-0.020822318784152187,0.09305080644035364,0.02678385456637876,-0.04602342529059209,-0.12670072748431624,0.10249229289127351,-0.03752990571284601,0.04344176681329695,-0.03070730541591629,0.08514769146963372,0.026554543472699046,-0.013562327379867595,-0.027170310342026573,-0.01805795494043712,-0.03691624349397281,0.025237799066328594,-0.003075102822320281,-0.1375124305556012,0.13462224954520907,0.036349733714077195,0.10604281821164795,0.03057689927787429,-0.02045337814269809,0.08111725883927691,0.08551740924717023,-0.0682103748389083,0.059321308454370836,-0.044612709654051015,0.03635289530357259,-0.14471441676219596,0.34796469976117006,-0.07184225417607258,0.0676079243208321,0.009458594564248635,0.06509950522964926,0.0025252893925651245,0.055065445190334794,0.030749840886809543,0.025381764781068496,-0.05098190884969418,0.014290848312693642,0.026904392853711424,-0.011825985698199436,0.036252104817577714,-0.021623598710276776,0.006197574167847149,-0.006242886317876105,0.03546060999402504,0.0012765366280842183,0.11625792360241746,-0.008768322267589876,0.19124432986228354,-0.009823641715066653,0.016748126652207748,-0.08359919808068092
118.23750305175781,0.9198989868164062,-0.08570541037078473,0.03688077193881876,-0.07281594844377176,0.1602380890614577,-0.02150487579907983,0.10802660267714607,0.14809910063042697,0.0227046964814572,0.0842188616379734,0.14023999321793054,0.034067909423794854,0.00934642259879738,0.0872865889666667,-0.11510868310753401,-0.17130814578960307,0.08842041509321702,0.05477413963079231,0.060530069770553446,0.00913008593608871,-0.03349980874726685,0.036009730655419694,-0.022095629489970927,-0.09938357250846382,0.044759467922036625,0.05864415677807102,-0.05468564072909146,0.04897177705188939,0.061908073853105226,-0.01709290118557119,0.03780045738154112,-0.015187371525857415,0.045534078135843196,0.027747475216188103,-0.05686889002882635,0.04610599826814411,0.011649998745367218,-0.05771200570671901,-0.007056042333061224,0.015119610022218007,-0.0535198579423993,-0.004512711981971125,-0.049094534402347616,0.030739081472184425,-0.041126889010873385,-0.016564947833803793,0.003421741987809047,0.049811940473190666,-0.05765515990119653,0.15523887562643898,-0.06461461080222494,0.16110071467976458,-0.08147669772022749,0.07389758981241681,-0.053107110584451826,-0.05206969443002857,-0.040171114480889614,0.12793721969986344,-0.02298397598409446,0.2266134810224787,0.066677463903112,0.11277811794362895,-0.09357783700641123,0.06862150515077209,-0.09154125034462314,0.06309924646267082,0.03150787616804382,-0.1454478608584903,-0.027591223036904016,-0.05655029702150585,0.009503619569058395,-0.053485595140438505,-0.0026278730024292935,-0.05730208674457009,-0.05639110401188528,-0.19227455010917335,-0.012793397362800302,0.05590251913982532,-0.024905282226898168,-0.0110002960251351,-0.027373361922233275,0.005863943504280326,-0.04316497082614815,0.00031185412143314335,-0.004333853848410422,-0.03363066366090405,0.02782287124411822,0.048829991144361574,-0.023113275461494654,-0.09152430448641845,-0.04317818284568148,-0.06677054808179377,-0.06315574241596139,-0.00393779829637105,-0.07990115147982403,0.03648454452326141,-0.08351043657639132,0.1474013863026858,-0.23821126025716632,0.14260744558176025,-0.13326849650693567
119.15740203857422,0.9101943969726562,0.0002709171838443658,-0.027638235265972144,0.06630593171071202,-0.008391877951339981,0.04752411893251418,0.009985071385338006,0.07219613083723975,-0.025838523191953865,-0.2209620272473997,0.028224897829807215,-0.2610592125906344,0.023196497240784944,0.3911348785609625,-0.4738151545115279,-0.26302823088075206,0.028732606556609336,0.05663240258312405,-0.09625522219271646,-0.08142060418305402,0.09083761329956876,0.024268685985405443,-0.0026745203138277343,0.07540625514262278,-0.05702224394885606,-0.06499201601034804,-0.03558656501673356,-0.03587534823209708,0.006616548793340511,-0.06842782760741313,-0.04650123528527152,0.003605788683403166,0.03668377297465875,-0.0036935582884742033,0.000300298001927074,-0.12859027960807018,0.06149473765716169,-0.044910233604161354,-0.012837938631516483,-0.08410318470014007,0.02661479704766986,0.0694775540642663,-0.07103703057655303,0.12351287447854337,0.05883628111418587,-0.0010438811614899984,0.03455981725193556,-0.002455504247578855,-0.011099283824090138,-0.06604409211138394,0.0722112190271622,-0.059438507253751514,0.029562235336675086,0.06167950660401986,0.01096656791330958,-0.07525781073625322,-0.17444280841774892,0.02264022266451966,0.16636059596159303,-0.1974714770574775,0.16276556668950404,-0.2908998169702696,-0.13432341163570713,0.026875840671058613,0.17439768791959676,-0.08450272172010741,-0.018127124996137816,0.11182029970253694,-0.04664990534215918,0.025270068600226844,0.0011137175673223386,0.11104636911064886,0.09466564669139227,-0.02382978040093217,-0.022593371784644153,0.20356735424410624,0.03869754844208507,-0.04291311707241521,0.024257882698956876,-0.06756471084543332,0.10835253523422726,-0.2172898922308289,-0.0180359252057165,0.05413295046041014,0.04065409138877815,-0.11513803791847979,0.05814822510917984,0.07565489796377621,0.045732620115026316,-0.11160894788776954,0.024945428858855218,0.07298345002176228,0.0632776391235702,-0.03730254462359195,-0.08826493550438654,0.018603160307459884,-0.11063277349535215,-0.06035643563518212,-0.016968602453739406,0.10233854084189749,-0.037697722339128936
120.06759643554688,0.950103759765625,0.10034148945941289,-0.04470304229953749,0.08493933225883632,0.12414006248342507,-0.04941659823885168,0.0538081932535522,-0.4002637452378581,0.21723755208685588,0.08069902904177655,-0.14080928256361658,0.31170399056968734,-0.10892068845872538,0.06628083957050726,0.02026768291300024,0.18885905295677682,0.03886286335222057,0.23573612115899428,-0.06394673876683982,-0.06728749436696008,0.008763885171340025,0.08673860170845198,0.025447516831448778,0.08878286424107958,0.002725586356085147,0.0027765690863140215,0.0587643618358546,-0.0344319487844232,-0.011333156292584948,-0.06892002681682115,-0.017708931224582707,-0.007948712517805743,-0.1423403742529607,0.0565198338197063,0.09291608451726988,-0.1429901957954903,0.011024662639119734,0.2140333914929226,-0.2704080639845958,0.2534549235835995,-0.0932928823704911,0.11406203368577934,-0.021881208267876665,-0.0058619280248398305,-0.007640736339457821,-0.08736096494365862,-0.025947259197803177,-0.12951684021923346,0.07198170122347733,-0.07333254057098237,0.10023515541351366,-0.08132457949261629,0.018631823942245024,-0.02143360192712692,0.0815175554360578,0.21788236512724649,-0.2718854805191716,-0.04212574830951901,-0.15104334838203284,0.005557685746371936,0.32039535414233616,-0.022810041475065018,0.06951607411030875,0.015996195798149652,-0.17798518829309923,0.20242807293876686,-0.10976744893291579,-0.0436263127765467,-0.181995983592809,0.06946753124497547,0.019376890108378453,0.0031646480801233723,0.14248458629657162,-0.1186804252258363,0.05384819622134728,0.08864352687896589,0.01891405816923839,0.016114770360388345,-0.11594336178057596,0.01465961919557842,-0.11384167768504552,0.06839978471570096,-0.002434677724040074,0.03803133783604336,-0.023094471702563575,-0.06017364541952398,0.08709327108756013,-0.010340776138683548,-0.026696904065947887,0.05227967213082796,-0.01095438433396739,-0.06699028998106553,0.007596533745450244,-0.03880250413982072,-0.026044534456393643,0.08675218313987584,-0.04000312753559391,0.03808883835820555,0.007685386684357404,-0.004245462363321253,-0.012899923519430083
121.0177001953125,0.9102020263671875,-0.007703081358753102,-0.058764387895298933,-0.022972662334857875,0.2322056807088824,0.01945131720192067,-0.14320041049891194,-0.11998424146006226,-0.012765277205842255,0.09622002494227982,-0.19976934556428524,-0.5805728784667991,0.3759060390075426,-0.5178129570149038,0.13963736358439383,-0.1023666019093073,0.05268808909860077,0.20296727000042455,-0.19136414241908517,0.2525745555788912,0.005097188381040278,0.04428548676060584,-0.0003702795017957311,-0.07759037348556212,0.09246100857843452,-0.04325152082370768,0.010136688035588717,-0.018823124562206285,-0.038850988761123244,-0.01874700990895616,-0.009592098881718164,-0.022099858222915363,0.043790345641966155,0.02400518619553388,-0.030997817490067747,-0.05429466798183653,-0.015252515655714317,-0.11667840287802124,0.039585896819220354,0.043972581413380264,-0.056473618983878,0.0724456075577202,-0.2010473846600298,0.20052380333121408,-0.18700158469246897,0.0027264606635340125,0.2845233954505227,-0.12713901097561797,0.024162870992090586,0.08328704417257954,0.04430392447178067,-0.1377034131468894,0.11057200314726734,-0.0010715792981532413,0.05600111347338097,-0.021068321484621233,0.10445960252290976,0.054780241487696474,-0.06292242649583152,0.10319126558575645,-0.028753617075386782,-0.03011398893154763,-0.09572872022949507,0.38800112580495794,-0.2122638652624981,-0.07219119171588034,-0.040025352068062195,0.036472974085095713,0.010834977377637906,-0.23704871940037012,-0.1206869333073458,-0.004979259226713786,0.14641679853145403,-0.0312777814179912,-0.10828850638456436,0.05562700040276864,0.09780019091319633,0.07073366556488536,0.1084312489802805,-0.10183684337862928,-0.2608064562999487,-0.07931131638953215,0.18492332476854184,-0.001930621055747088,-0.07238921377806425,-0.025372590771139514,0.013775858205244074,-0.03779877048953891,-0.02413915779774376,-0.009892586144188285,0.0312319824401951,-0.06969197814777939,0.046454396936174314,0.08299106899296196,0.015791338241607302,0.08578020593382521,0.050885473624928824,0.17238652305357768,-0.10806741554730132,0.005407214549223188,-0.00048688946982640077
121.92790222167969,0.9300003051757812,-0.004786226404862051,0.05526406585847561,-0.049362009002073236,0.05582052278214817,0.04616615516637108,-0.07441654086382408,0.20915592234971744,-0.45669186348277624,0.026073298366720146,-0.1707660071553275,0.33446800182845693,-0.522108157385796,0.09797582601070932,-0.059717101149566194,0.10871819238781383,-0.1836040209439525,0.16758853408623994,0.15885675273095587,-0.07805096415754306,-0.08653124118485009,0.08632863930548446,0.11236737174136498,-0.13984241032841171,0.1749982459264377,-0.013455523354468119,-0.01800775905946082,0.11306719582463015,-0.006088011722027498,0.014845363409657907,-0.004887778265206604,0.007582764957945146,-0.11630763934892462,0.025486462796669784,-0.014364704145723179,0.04478764227657519,0.05386694730688513,-0.14714543159662036,0.15648949715644653,-0.08383243263200703,0.019434703950110238,-0.002411340780443163,-0.04071884663246966,0.08916571580257057,-0.07692975347898168,0.02937663397546386,-0.10166031015316616,0.10517173409917616,-0.0052568641322914035,-0.02518825491957273,0.018322107488943633,-0.016004320442426473,0.007733193761922672,0.0263461443536692,-0.009759726243535691,-0.015218793056729978,-0.04238028406712592,0.0016018474320243226,0.133795478547465,0.13384393012926832,-0.023761601525146905,0.00927145158317505,0.09458467723237104,0.03707551760594638,0.05781853688613175,-0.12378920555477116,-0.04227529471645555,-0.006798451710376567,0.06714259694814527,0.032545126928270114,0.05404158337045287,0.010974282069508876,0.05724245833591357,-0.15986013941948957,-0.14668246342809974,0.034127101796968214,0.15839962452413145,0.005741344297232825,-0.04890803288614933,-0.1661785359981375,0.03221777206507593,-0.09434161318364889,-0.05481253884720545,-0.058957000411540436,-0.023651379487874387,-0.06648638186695226,0.12893437659106777,0.03342969164132867,-0.09250041736768926,0.09265263403709771,0.039734199052393164,0.06725799556202541,0.01308540388418046,0.004725137670805865,-0.09344394684291774,0.04093697802245022,0.049822946634582886,-0.003536407630714302,-0.02261353341179747,-0.09351652850207677,0.013363124442324101
122.85790252685547,0.9498977661132812,-0.019026090676201993,-0.054294942026685396,-0.08605451534187364,0.029473846047930404,-0.06382874725344254,0.045335108540216294,0.26009448948376945,0.08320129020410391,-0.3954734659354703,0.6314886505307375,0.05271808986441387,-0.41485061526894057,0.2352530322101283,-0.1193466869690054,0.11386286422663118,-0.11080612134685063,0.02317700431662792,0.0348887759058481,-0.014029396663074237,0.04056731793400567,0.04327017740675897,0.05186314595546322,-0.028941271631238205,0.021537348224264466,0.011223970930174937,0.05511600390082087,0.06182750303418449,0.03003366140227659,-0.022316697368919763,0.20184441184391685,-0.1051707442187172,0.10866805332212935,-0.11566293891493934,0.06966341376842541,-0.05626267920738896,-0.3451829528485566,0.11160886176891842,-0.06861932525977092,0.0264938612465615,-0.06614243318541962,-0.04367969457931353,-0.012621789975631695,0.007090644929130401,-0.006013642525040933,-0.09846036383125027,-0.03609985283050266,0.010453778631711421,0.018718782815454332,0.021429227042398163,0.04544177840911364,-0.04218719055697366,0.05162743801253081,0.018373840145160192,4.125203872444236e-05,0.041215751977850566,0.07986436390689106,-0.016551934214345157,0.0006988414083658537,-0.1359262502505275,0.0349568419641967,-0.224280676537457,0.09419098051835767,-0.03635670602984224,-0.019073272096061897,0.0991053878012441,-0.043527198547319845,-0.013475896214416274,-0.11340112073219179,-0.0522277843171267,0.09689826038163253,0.0543173640802903,0.04023911291995397,0.10299074644566748,-0.08409487391253632,-0.11779399893049554,0.020383767752994844,-0.03874180846493052,0.038090619092078525,-0.06554171743931908,-0.07167410748424177,0.028140448896615756,-0.04409065152116651,-0.026279034437987014,0.10173691243438585,0.07673351143978344,-0.026861074401056666,-0.06290338409764687,0.05243870762466147,0.040160488209610226,0.03168961958749014,0.031731228323893884,-0.024698991400268606,0.05944604770811532,0.03282417691456134,0.06645310022252597,-0.15025943529405822,0.006965964803663974,-0.0896810663828447,-0.061376638761445085,-0.05501743484141256
123.80780029296875,0.9502029418945312,0.07994863050217327,-0.050417654587086,-0.051154233394899225,0.11374415233963987,0.162818616770977,-0.27175844049072007,0.09924055749491112,0.12602142269641278,0.1818695066076961,0.06908937540757713,0.403029694005714,-0.8731416410904473,0.7488009936846423,0.8246863722624936,-0.21929851308526974,-0.2528426147378777,-0.025551931347786286,-0.0006218166797492351,-0.03393097488819244,0.09325669583044828,0.00024165731378597859,-0.11297070255866404,0.029313360098775873,0.06886164717013063,-0.04319912061146294,-0.05304356926239234,0.09289902829109833,-0.013147633348179881,-0.03594201135083275,0.0053201907365237645,0.030763947924779697,-0.015461285366589316,0.1975453416113988,0.06275275773515254,-0.0601716985701979,-0.012695868347428335,0.10260463805228559,-0.029070721410489442,-0.009711274332994287,0.06816276063103453,0.0994762115565731,-0.0944480060431564,0.08815655013453119,-0.09130606695944896,0.01537610734413486,-0.05509760378466949,0.07477048069353227,-0.030768285289362075,-0.009390255024650046,-0.025880346008693704,0.11452283424265093,-0.27938961549320407,0.10274658228587336,0.02992759461641919,0.02492269714655016,-0.020441482460770433,-0.03913758252863711,0.037125410995274125,-0.022525700211557594,0.04801025364148506,0.029625595380243973,0.08255021710668702,0.22543297679582447,-0.05576924079740568,0.07074402038387119,-0.07810135103052832,0.06275554342012889,-0.03711962997243053,0.0795387623718502,-0.07912068430753556,0.12003835435170185,0.015983601119913107,0.019679710664582975,0.02756002213050625,-0.07951658157267615,0.12619834606000974,0.011981481584525756,-0.16817376807738144,0.13562810609661208,0.033213783647821356,0.0537174986205681,0.0005759387517978404,-0.02897422984456737,-0.020266207289516534,0.03475147408314243,-0.02685401385019704,0.0007624234578923624,-0.0683098863783663,0.04221347558892717,0.022046741892846347,0.00917897744855851,-0.036277002449392484,0.05067562918303215,0.036314964411166974,0.08119266675559432,-0.02270363387565479,0.02432082194144819,-0.03247858916985209,-0.06307812118348767,0.09698737777926164
124.75800323486328,1.0001983642578125,0.08969302485894838,0.06996255710573783,0.06668864943871931,-0.05906122441152271,-0.004484059858864412,-0.11854519315244,-0.06765020814897837,0.2406139343828024,0.03637476960934994,-0.4459720802668404,0.3166533384728953,-0.44839652401031554,-0.2881336911125544,0.19718996910030864,-0.0357326442350054,-0.012192143474817816,-0.08808893818952476,-0.09095935087978466,-0.038164345387248756,0.07288420027643075,-0.004391396800209357,-0.08204255115682865,0.023406852885942034,-0.036250205166376594,0.11390579996534238,-0.02307161245814368,-0.01754972704023287,-0.08629236637428847,0.01361638301727499,-0.07945559422754012,0.00242505383978552,0.01547172053775522,0.09499570999381005,0.06757495728035344,-0.02241798384203513,-0.028329649470293754,0.03525653495988902,0.0037464236115250637,0.011489240816185969,-0.07173574618637041,-0.0018082696166886452,-0.0547529974642831,-0.007812080459522188,-0.0843996064696714,-0.04674264916735983,-0.08057771928447419,-0.08926075785950446,0.0724202352343756,0.011495130521754734,0.052529089199712546,0.01851298079967706,-0.04343794663220722,-0.005012030624201587,0.07275184515847012,-0.0890938132687353,-0.049023973850608554,0.0015287877618044184,-0.17621833765949596,0.0890728551499745,0.05761870273184069,0.03669734205490072,-0.013758110702860428,-0.10218284653711847,-0.11649775321466835,0.07822918990663799,-0.12754423103771323,0.03966514834004828,-0.021021972450209116,-0.018696513020898795,-0.09067954464530867,-0.04538997697904751,-0.19119139047892167,0.15812869774554214,-0.01339008129293321,-0.08415578037607316,0.030824499955251994,0.01263011038033571,0.02774592871347966,0.07966662843026392,0.08183210674756926,-0.02055357387947406,0.028553033528766064,0.06069240322040425,-0.017467867230762185,0.034647366083788614,0.01497734922963171,0.019907858942443717,-0.038675549318611946,-0.01770594440846157,0.09932183664892343,0.054278778741995715,-0.028485826943512753,-0.027498738560837396,-0.077639751603421,-0.0042267498753003115,0.08797989336650042,-0.03455602862173078,-0.04116939061692967,-0.03750876844406911,-0.02728738822801726
125.7582015991211,0.99969482421875,-0.038471468668127624,0.07272711093745686,0.07083318398850022,-0.015037947465025571,-0.030430224285778948,0.02261338476127668,-0.018798834265460765,-0.19897694887884976,0.09705081053268075,0.029895076638807777,-0.1047511739636566,-0.10636809374222567,0.08650858763408788,-0.13609993363890802,-0.13462483865717062,-0.15482950255801958,0.12790364614537345,0.033160868358258405,0.10804275645720282,0.06523868089702951,0.052130612240317974,-0.01912351528476857,-0.056603365494021396,0.051521449741145066,-0.012375696532805961,0.04393939793425402,-0.061977475006400086,-0.19381640203995354,0.04294497631709033,-0.04315495893151604,-0.05610201744777525,0.022741696531105332,-0.03765549394961845,0.053416774991137866,-0.1103977506393003,0.03208016223143801,0.005219939567526062,0.0037567525197765147,0.067097494988166,0.03591471305682575,0.007473695909478251,-0.05371717170303596,0.11746295746579027,-0.08208777389777133,0.1412675835855627,-0.006762328165308466,0.0348999992236556,0.05599204612603974,-0.09900780083345964,0.04821549165031064,-0.012186466583101963,0.036895322818746044,-0.11742881830412195,-0.00645323009919376,0.09321020349486474,-0.13200110633939546,-0.06104939089434824,0.004972380471675562,0.0214470072357595,-0.21841398044188642,-0.07271038049462272,-0.05971222970909644,-0.048386832190560836,0.01161669907518887,-0.022755623484009505,0.008375839099282077,-0.11314003766434004,0.05667336397671588,0.0767196501236048,0.03869436393742297,0.03180112257186319,-0.033786959718947754,0.05627145760602687,-0.048334605678396446,0.021997194979686455,-0.07057314461774167,0.0056099743235842,-0.022977412772907494,0.0014353892468964087,0.0073783460898009376,0.027308678785982428,0.017997047189010393,-0.004055928003103244,-0.027643505341400552,0.008652753904654956,-0.016465737489870423,0.012514728233702676,0.0026053285246957613,-0.16543415972196424,-0.08880082156493671,0.006182447184105773,-0.030719853415304865,0.011437918656583668,0.1673650011979702,0.038552082922355256,-0.08870496208976687,-0.02671445715655065,-0.024989352653658616,-0.019223737021361677,-0.004947477518136774
126.75789642333984,0.9202041625976562,-0.009768770668377724,0.07283597536931168,0.017767154427821015,0.021984654742885645,0.01593317443440581,0.08575136334479379,0.19872000332259573,0.021544201492776728,-0.2271589027944476,0.40300505722229196,0.04895426237447649,-0.010333871002490945,-0.08733227027350915,0.06051095327086135,0.17503937163543026,0.14033095560225106,-0.05996824456048811,-0.04355687876219005,-0.14744404970544167,-0.04919883220349573,0.15453601654247026,-0.11576352390882588,-0.023520632198058018,0.042806365671715974,0.04760811562503235,-0.030085732273065116,-0.027850554617828795,0.15946009576270073,-0.0886921447206762,0.08738419169973813,0.18771905138456435,-0.2364190836662803,0.01638894023967172,0.030915740942063095,-0.09567698043494935,7.487972462934863e-06,-0.07471078415057289,0.017609981355692368,0.006165443561166828,0.008111346043262038,-0.06585943914794859,0.009905017850582593,-0.051154453455498655,-0.0598220389487977,0.015532086824775023,0.006932874420609882,0.05795817036051501,0.01273567296106721,-0.023196181233784675,0.05742400290246321,0.053430547638336975,-0.007203101058853675,-0.035311029180095085,-0.045288373199422506,-0.015118748669165929,-0.10623642831211257,0.039262644859416544,-0.04979439544888145,0.07604439576176403,0.06206325771634956,0.11424848755620869,-0.13153644274035806,0.009815562920199564,-0.1249623997173308,-0.05648015194224129,-0.09298604712769838,-0.04206918529647217,0.018250833724869603,-0.03311860235803243,0.15764850195316268,0.01998959526028442,-0.018670118399954905,0.015978113713575236,-0.04581417435467009,-0.13342189941490953,0.032112799571884273,-0.07563300546151375,0.03402545068690083,0.004678453991576837,0.03603940014809223,-0.008546098221531528,0.0005346362251884397,0.0072107366836118,0.060996117510005624,-0.0647773170863184,0.005200383212742509,0.03481327064357855,0.009439369910826657,0.042573630374146146,-0.09718520123409331,0.0016829884348383258,-0.013931042544546617,-0.07432689257303941,-0.019006389745550977,-0.16218787663739687,-0.008226093642663223,0.04106074720467547,-0.017296766918805093,-0.12164572890765385,0.09528001914423838
127.6781005859375,0.9001922607421875,0.09617247826833601,0.011001711751909796,0.011535498566581752,-0.028237575593152917,-0.06613581033351974,0.16970314638221565,0.1084492854479848,0.052849117407055106,-0.28058138141190725,-0.02482340717404264,-0.20080311082303717,0.43684389296041487,0.04775017047210478,-0.002327024126275088,-0.01587140294294874,0.12651588201567743,-0.019681538192045822,0.029368321558610133,0.03089954308217796,0.07351522553114298,-0.019906263084496834,-0.12889801505948525,0.05911369377974329,-0.06605415718469174,-0.003828064535104021,0.14772565011337177,-0.035824107647848255,0.11277041067575028,-0.11115715420829836,-0.002645708754734923,-0.037057656286517054,0.033037719102606916,-0.06169669820137043,-0.01316730134419181,0.011694103952322517,0.11876729654389781,-0.07244113004689831,0.005002584810238603,0.051253647158027923,-0.052098451600605826,0.0544488436410359,-0.08974910602800362,0.11061346642450796,-0.1880348401617316,0.0339063323208392,0.010031656390440069,-0.008790167524167863,-0.1689301134660693,0.06252479503099571,-0.10684002650900191,0.12338667511819738,-0.04904362073362986,0.012122948739883233,-0.10699617738997766,0.15000869798749664,-0.19574460605488692,0.23020942098606342,-0.2779006391301872,0.3096907278129573,-0.44925184032506654,0.288877587175717,-0.08247771916429683,-0.017310129781958446,-0.16205350562580195,-0.071096230525833,0.10254648813109722,-0.017833633313448075,-0.013446564705936831,-0.01748371268904185,-0.00011676185575412723,-0.022181037643977913,-0.057202384962226675,0.30821690949902236,-0.12851834557106892,0.22922516757649125,0.13379683519928293,-0.09265651110095284,-0.08408839140846086,-0.09799616596434109,0.03440620370514112,-0.03109799051950852,-0.020641660648522967,-0.00435196443086279,-0.08040315157352423,0.0004074497887300993,-0.06436948989859285,0.023817853523250637,0.024559273225789748,-0.005019368097192722,-0.08830609865420616,-0.12883880286775323,0.05610683585683343,-0.014825980604269944,0.00591029441243172,0.05767128229697022,-0.12253181514898799,0.09624299217989432,-0.22252608175287644,-0.14003170138447651,-0.014325335135110022
128.5782928466797,0.920013427734375,-0.01205926589130691,-0.005196286947375681,-0.0072387692138890965,-0.03499886501710416,0.046519855995153264,0.011468435802848473,0.018795983411583596,-0.13140508061012893,0.3325248985053017,-0.27193609169733546,-0.14497293414012308,0.44446709496612086,-0.05027729495228061,0.0716702336157819,-0.04148959381220725,-0.04194821588924001,-0.03294744164069248,-0.08715876454340266,0.0419392331104185,0.0020724470430634016,-0.02415684956332693,-0.06854024746168938,-0.004034606446400291,0.14915299518851685,-0.1652338827186875,0.16148567696808575,-0.04329730406844707,-0.048565483610264304,0.12948786753042374,-0.1343532386767559,-0.012184470637049532,0.10011075869513916,-0.24474307254608013,0.11009289558891,-0.12736485397128938,0.2829643043628661,-0.08629741520144206,0.10267455748682153,-0.13378647405603225,0.06879989367954438,0.09855227574672634,-0.04911319425507941,-0.027757965274515847,0.04801474187423377,-0.002193866718288088,0.07008730406063608,-0.07064993390833232,0.07501854754971261,-0.059506890053799444,0.05246895613734078,-0.0030062216395441155,0.05456417550600973,-0.014637680055442678,-0.058892601152364873,-0.000548186347244798,-0.08630479138212291,0.03696111802977195,-0.08374406052190202,0.03498599031341079,0.014717409091340443,-0.07274408785127703,-0.03037317367862703,0.023669399568686533,0.003380698793200884,0.053650529030320346,-0.07446543233643732,-0.030800692237250078,-0.038303301659065356,0.009181764672813437,-0.1735678000973413,0.18123244555756723,-0.3170803810604704,-0.17413941638667502,0.25045934943776094,-0.3103659100550772,0.0771217254243699,-0.15057644085639496,-0.03547894808618336,-0.00951136593436891,0.1152238888649285,-0.01594131701478243,-0.01766209993479894,0.0620331071373465,0.020199765943533808,-0.0678178126747167,0.02217493878902281,-0.06052836282915269,0.04231025097693444,0.06381939814763987,0.029132504885261232,0.07499744104068538,-0.017203305008178932,-0.017379864054001694,-0.003479665815378657,0.0026336958411373413,0.11122047388086978,-0.09723202572253031,-0.16048415220797618,-0.06888384905168471,-0.040655363392128815
129.49830627441406,0.9200897216796875,0.08103601299654313,0.05175428350928048,-0.0343365121964451,-0.061182281868000135,0.03785932851642677,0.06194247260415511,0.1340936864128014,-0.19866356192565285,-0.1601287150638812,0.271841216771234,0.19416847879959867,-0.39637991185436283,0.5367468104404302,-0.35981831820983756,-0.0647823422533756,-0.16154701857687853,0.18400882670644872,0.07507434357214353,0.013976973916200862,0.033504696983046964,-0.12457743905750847,0.20075775873778873,-0.17198352829379376,-0.015949827624563876,0.0901993485406082,-0.02973362808489034,-0.0018576278403044134,0.03201443261745757,0.01469134273789044,0.023265893724598113,0.0023759907765714544,-0.0076825292769984515,0.02364938843919795,0.08869503276000554,-0.036483300840559604,-0.0498701219730055,0.011257314658287696,0.0842642759487714,-0.09244458831804489,0.05345120507834048,0.10976691889896673,-0.12284468960540244,-0.017759812491773566,0.03356212870868622,-0.015467517513574065,-0.026268278239579418,-0.04055587120925697,0.026761609401116784,-0.04852791355327748,0.049361304583446355,-0.01886582584140898,0.0371554617804863,0.01707998614105822,-0.08065539909066388,0.04150653538191722,-0.06920479556200593,0.04936591039509174,-0.06933870810949107,-0.10758498272940908,0.18642714113019995,0.03852404551112328,0.11886596709412774,-0.044627610318734426,0.055213080440739304,0.018405435954608664,0.004188315322943101,-0.1498881907078558,0.20737740436745553,-0.13164669364442078,0.08085495187662109,0.014696554207614516,-0.07663705618883555,0.051140767067730575,-0.05737180914780006,0.07541750564203908,-0.22317849473549078,0.08064044657661436,-0.2263205418458391,0.321949143280418,-0.06316669645183992,0.002875284142311382,0.02471916616583976,0.04684333145091993,-0.006053933782095809,0.005944574530611363,0.11697655861821374,-0.0007020421094113549,-0.05296514797301389,0.019438730534830084,-0.003069408692692052,0.0480899134042994,-0.07350554152093892,0.043611108914797074,-0.08463587522835496,0.0588053708570141,0.11131451097222184,-0.07978521353738635,0.19876858090594796,0.006924899476643902,-0.07511594201556292
130.41839599609375,0.909698486328125,-0.06465216322799364,0.08528161784617748,-0.0004187400995509648,0.04791770969828714,-0.039514328075601235,-0.017332448456185402,-0.07666487357132416,0.014306754611096553,-0.6239987565380626,0.3710422083544048,0.35747162449947933,0.015849606013560835,0.278658992100553,-0.37043518511284695,0.02104015023613329,0.011439082980857423,0.0022682299522139055,0.06078876665327953,-0.04280133619643065,-0.0687544162280534,0.06922006043066073,-0.009945112212105155,0.12335893054619325,-0.04760930029362412,0.006454914287969307,-0.0033909776076167797,0.027226127827827355,0.09892656444689488,0.016215967618194615,0.11958191103839935,-0.05856387181209463,0.13929978353235362,-0.03973574800284847,0.1357779589316658,-0.14681701967618854,0.041649322711350065,-0.06293119464577104,0.03139031503600744,-0.005495958281472427,0.0005376934174281707,-0.1091326036555788,0.010181693132834312,0.08387228061239392,-0.03560195023297514,-0.008322803957552515,-0.044091740313565934,-0.020353982792566738,0.16578094847538072,-0.02326362016870638,-0.025948030113643845,0.045367817634590656,-0.03491717542420532,-0.03838645891053475,-0.04113922947741554,0.018648525593747238,0.12749072770204212,-0.13314531944758712,0.0883567378416588,-0.027865885769849517,0.02050930173468414,0.0947229438711087,-0.3446497449785937,0.030304800408998973,-0.049770019065104164,0.14695439769001573,0.13260835687620415,-0.21132522050019475,-0.11076742558661382,-0.08672025505553604,-0.08136626390794573,-0.1388538830433213,0.0130002285010693,-0.005016608340013048,0.07563437927295126,0.0375685321218295,0.07402518234953545,-0.07450119073803393,0.10744779799803664,-0.08729472562388012,0.020574300235933325,-0.001983900079129429,0.025799172818576348,-0.02485518705874962,-0.0203806630755582,-0.049915421859090196,-0.0009636956320607489,0.04276824083928957,0.07049540536389887,0.049027774550411685,0.10383854506385969,-0.11649877126725362,-0.02525670612536836,0.08649776612513986,0.05080905779183692,0.007130392139747278,-0.13325473547500638,-0.07606220400653807,0.11218090914763146,-0.002268323988504157,-0.04321912090383106
131.32809448242188,0.910400390625,-0.056137866921744245,-0.0713340400612877,0.02892811722558747,-0.026104848719236472,0.043560839130163655,-0.06356440196712654,0.1611166436479016,-0.2702295065991237,-0.06564967791765917,-0.2303914963822071,0.8345101903018645,-0.1946672316858849,0.3284531075476741,-0.023928333496647983,-0.11132328740647325,0.08848848583463334,-0.16815303233248877,0.1462031522191404,0.026065386253508207,-0.029604477970641647,0.13156589949298197,-0.08696753339409476,-0.18821176800079328,0.20733593038896783,-0.16267475376711305,-0.048492169223712876,-0.06951042559709458,-0.012649277536266691,-0.031094387726244815,0.192614311256316,0.15954875780876582,-0.1424549614900698,0.1979469472996327,-0.19523841602727357,-0.07066913512448696,0.023681721995825106,-0.11388113467738842,-0.013481596249584588,0.24854895205800823,-0.13329396169835803,0.09465087186867267,-0.020580382443510847,0.052049166013840596,0.08371172385250872,0.07033394192629727,-0.04024909425699945,0.05970123221372041,-0.057082023295902784,0.013389629620338829,-0.005825616455648168,-0.0635910255736247,0.019063635180888848,-0.06232441806076175,-0.0838844130325555,-0.0018521454109340744,-0.05958433546199299,0.09079533586632663,0.10322595511230172,0.016688596692875646,-0.001022064407228887,-0.1328971257801394,0.0785964676104187,0.28457453561889623,-0.12158281490995453,0.054021615172808804,-0.03741361617667323,-0.06166823309197545,-0.06500381565951303,0.07045966460584552,-0.07587163433233463,0.06908461321453464,-0.1349945644810122,0.02687364679051387,0.052272600356947876,0.02458356559102542,-0.0028421683438009104,-0.1334749380203437,0.2920021685232115,0.028528140340404566,-0.10177537019391705,0.0014801445820719489,-0.03884505785991532,0.09979375141969025,-0.00935351441067727,0.0018008517223947508,0.06798188088070493,0.0908964272338695,-0.11520252269042672,0.01600347937838173,0.03518732441023367,-0.020816429242225345,0.019094073538359936,-0.08903526775041817,0.10908377823717416,-0.027241366541059645,0.028576174490897346,0.0034151552287636127,-0.05980987907245286,0.015012587680919481,-0.0021681898974262037
132.23849487304688,0.9300994873046875,-0.019095002531982423,0.05616597142671582,0.07155383763711523,0.055658638261042614,-0.16246230675958684,-0.006292528990683888,0.1380937764747288,-0.00441170009758559,-0.3776598911830428,0.02459277086408918,-0.3555657540849144,0.04674767425602577,0.4842058470063573,-0.10521947312292354,-0.006737151595732214,0.0059205509280246815,-0.10059098256602436,0.0430721929868384,-0.1439111127875291,-0.12213058037466626,-0.07986244264942188,0.03581495378651852,-0.08839587597944018,-0.00010811745945471865,0.0648832110953233,-0.01863686485436305,-0.08158294681338432,-0.008568253100550038,0.0893709922010221,0.004768745322459564,0.16560551642500476,-0.1510108082571518,0.1213866701414559,-0.04151047383871122,0.12180002616857571,-0.04330058074604254,0.1699554784264372,-0.03753908845675887,-0.03913424067755024,0.07225126438049795,-0.0038560933128466094,-0.05162774522190715,-0.03633688303961563,-0.07471908327898712,0.014813653806563354,0.06628068141848427,0.08336691537878983,-0.05513337936013826,-0.008547047957953309,-0.02146099681715686,0.00566387193805401,-0.0024059150826781003,-0.012378407549531852,0.08143121424701803,-0.05551223932020055,0.055885391351124206,-0.030159292710025876,-0.03821804931334983,-0.14707600980025823,0.2411540839770488,0.03687379303629457,-0.06753226694494784,-0.00433020134970119,-0.21793563648025704,0.13271860694058382,-0.11500598674606975,-0.04886328261487004,-0.014233630749998533,-0.01723953576294771,-0.10926639180239563,0.0754598417340249,-0.10902435784293191,0.14700122551938344,-0.20403986393539192,-0.0015253449511760525,-0.12051920955613837,-0.02154480336516473,0.07374527809673467,0.008178401679388221,-0.17701414447414499,0.053698966994276315,-0.007792824863738343,0.007288612844685308,0.01251472953445535,-0.045644417105806565,0.010539686298844173,0.05006743976394654,0.007378481670304637,-0.05527932414122019,-0.02989634527670483,0.03780161270818105,-0.06740791508725573,0.025913581019167464,0.02710757174307363,0.03692383809351255,-0.1874590286517452,0.17506312254374234,-0.04038415294204883,0.08983932794236724,-0.0791130299369612
133.16859436035156,0.94000244140625,0.041743154134729066,-0.009802730286713537,-0.1880134270489343,-0.14947391210099906,0.19492419596537702,-0.1481308458319543,0.003358049133662963,0.2969427006035242,-0.17794742410661846,0.051118285243254666,0.3447996139610973,0.9869257089971896,0.1298051890046123,0.016321595760993957,-0.07291150663592327,-0.134171384612996,0.17823443077653578,0.09337511542931076,-0.08898472723859287,0.09203157264629436,-0.009847586028397401,-0.05386122988208193,0.00674569647336698,0.035881002432871546,-0.2198323850784071,0.04550915393067175,-0.017853862343993637,-0.008362224937948285,0.05396876928734705,-0.15075663625733712,0.24257184750581076,-0.20735733430657607,0.15185785874088273,-0.009158622734654641,0.12299109663341819,-0.08477718820974058,0.11989670924008426,-0.1388776856836465,-0.017098385157189797,0.09968430395773853,0.008092787057985482,0.04468830183184083,0.04856224535645335,0.041138607137652966,0.05798746685389385,-0.064056314400428,-0.12229008555218604,0.06357625503080888,0.05847605916726554,0.009976040511786244,0.002123049779040702,0.0004012034977550387,0.09093213646387888,-0.10916939794136858,0.20173782806433918,-0.023628238130227002,-0.036566084844121674,0.02194631166593789,0.09902457618745518,-0.1757062294919867,-0.11123260112896421,-0.022312991615778786,0.11797788747767304,-0.13316524556674644,0.040031544748057306,0.01352344480071979,0.013356790731226822,0.008641780174573597,0.05846433595334313,0.12973875036109503,0.007767971802674068,0.1132475458714627,-0.03043236355098016,0.08573181554460847,-0.21418487688481846,0.5068882150886289,-0.05311678173084207,-0.14889002225255765,0.11098175822324552,-0.08512203986414514,0.04300404570196088,-0.015633937930644354,-0.03977210084762235,-0.0764502451064234,0.02337759174400334,-0.04123354084218186,0.024308429308463803,0.01583807260318531,-0.020726794013009066,0.07531637359965511,-0.11784641985752549,0.0616822965268653,0.042637070888033264,0.07641267546757256,0.057058461246182586,-0.15128619457318096,-0.06261828417786136,0.024930631206729423,0.0494417098709427,-0.17285880825842387
134.1085968017578,0.9300994873046875,-0.034959761169679374,-0.012522390220800268,-0.03649090448129613,0.03432075056285003,-0.1416304545528245,-0.033145391402836066,0.1280207219480283,0.15086220779407444,-0.0024705445725706626,0.22452548659430932,0.5950524712041187,-0.7020947742031259,-0.2857432072341475,-0.03366164896920926,0.09446716561166367,-0.09066690836191368,-0.061493505784675245,-0.1419996393541559,-0.06776255619724339,0.08327561491877644,-0.040907628374614154,0.01069686512716346,-0.04335718319233048,0.09826162454591565,0.01687290321622109,0.0997651759809886,-0.06507544855013461,0.03524489100817396,-0.06383090448487998,-0.03789249139041306,0.0619879133079128,0.04193627421476465,0.04689693284024212,-0.03312304099160585,0.22238183957143245,-0.22983751467035995,0.2240401956298205,-0.37694919005341954,0.3751273956937413,-0.3901740096139259,0.23250216560377054,-0.09775347901158211,0.038076384454435744,0.00588357059277897,0.050596996971639524,0.0067452436045395935,-0.10886459775480495,-0.06730355756550775,-0.1587234326166163,0.0770092737645593,-0.029311644773614632,-0.044727008846952354,-0.04863154619332569,-0.062368829196151686,0.09520022353387364,-0.13697532855785768,0.050710100039884326,-0.018463376677139667,-0.009667024634616064,0.026252444093174218,-0.03320505609870705,-0.3111577940900263,0.16029803195170192,-0.16261572456643336,0.0772140463902056,0.041669610679340836,0.03887211314321829,-0.052938205748788915,0.04213422495312777,0.049250665205399335,-0.018606973063566786,0.045032453879285,0.014779276785542432,0.12873985817440362,-0.08741209723121349,0.11459685869751922,-0.12631131838609605,-0.09747618090495051,0.025117606165148368,0.03338023978203339,0.05851436898650513,-0.012102025158072294,0.028234755234804072,-0.04167597679173336,0.007159319568731726,-0.08465313266503824,-0.07715578741331922,-0.008382235043629338,0.004050501733630293,0.06644640499293927,-0.07147187480199912,0.10348656161903644,0.07596515550419468,-0.01675884758062163,-0.006425396871159008,0.001970729164649635,0.02887786988564871,-0.1557365367962794,0.05956167795121422,0.04779960244134704
135.0386962890625,0.9499053955078125,0.04260436229061284,-0.07759551127973356,-0.0010237338254895588,-0.007363817073622987,0.10757355361573015,0.15429380716797775,0.023689287821094078,-0.10591684685755569,-0.016002087195392735,-0.09890419357211472,0.5618524416794901,-0.18839420212485716,-0.0717238626476506,0.06228184829287793,0.08526347328429242,-0.04718741656744507,-0.09531117008749093,-0.004376090481563649,0.09179884921024224,-0.025080895532985408,-0.028792828814621058,-0.07003002959278734,0.08337870480048568,-0.03755894749613408,-0.05400859195777432,-0.06263923085477027,0.0008332398916152325,-0.04878367995713514,0.06373056025354551,-0.026716675539713998,0.002553532998905322,0.0006588828744394024,-0.028508161108221207,0.004088234024311493,0.047182152677016184,-0.03187880434815333,0.03555558126116021,-0.06545651415843415,0.1330569429098431,0.0037925385351722535,0.010717182942616905,-0.0033709364417020965,0.021267426185732838,0.058381307112562106,0.03916555006992909,-0.023045532846344335,-0.058421651944687396,0.047192509951632475,0.028775077561991894,-0.010049294501122553,-0.05408133920842944,-0.018231065221872084,0.057845672428287226,-0.032895622314507884,-0.1505883029506001,0.07569132989385664,-0.08572032555046556,0.10207759097950239,-0.08793928557571801,0.21755885455355078,-0.0011401014879140053,0.05492385741464794,0.048764669185131254,-0.030888528605820288,-0.04480875692286926,0.03994091795999555,-0.06940976866124336,0.1105938447294976,-0.017481740494355538,0.00698515399837412,0.040853121936319195,-0.04741662990504642,-0.017964591436135137,0.010248248061120173,0.07782429230840045,0.017817869287605658,0.03282044445289424,-0.04150655430068741,0.0029857187311603667,-0.04291616065175587,-0.12140423047698869,0.0017889179882996818,0.06251485152021324,0.013614091448319465,-0.01882954212160783,-0.05257933836880839,0.006563440511010054,0.0026210475218823638,-0.06482884849443941,-0.02941274274723763,-0.07079574535948611,-0.021379526135162093,-0.03218384395826491,0.00303863210957467,-0.08791422264563388,0.10859599957092034,0.03404673917538262,-0.11278773897241781,0.041338452748957095,0.03214299106005389
135.9886016845703,1.0598907470703125,0.02611501486845067,-0.13047502787515106,-0.04498512543787633,0.04807974752508744,0.03200264927329056,-0.04296964243603228,0.35537281702018386,-0.3114770427826361,-0.6191460433738356,0.18376658936482207,-0.13162353872274146,0.06286839658624396,0.1931484248047476,0.111513614400012,0.1977406219372038,-0.005084964899705042,-0.017130303044572266,0.04642780017308735,-0.016573595712029973,0.1885167811729578,0.027600715957051034,-0.13790568705458883,0.039060495588069635,-0.043785529907463754,0.05747282114359675,0.017337675702190615,0.0456744049646922,0.05883554170156253,-0.07708876242763095,0.07653534358420341,-0.05128215115319409,0.07096329153681225,-0.06420263892384055,0.138837433565041,0.016836445382948016,0.030779453927953053,-0.045646027104635264,0.06811871244825247,0.014200712349860313,0.09932532662700272,0.07317597318510093,0.09546242228193282,-0.021367010513760096,0.07524712639625666,0.0307618458512845,0.005698508321077881,-0.04677055872613252,-0.01276065209777329,0.0011437247904649802,-0.0438174530199988,0.1262655460757595,0.01800210709534736,0.14082534643600836,-0.10953663016601865,-0.0033520732833724302,-0.04207746450573466,0.05630801748272335,-0.019097564751683914,0.03678095574585953,0.02536845036457236,0.031203137817928935,-0.12871456292273312,0.06864210361862073,-0.01598393259936244,-0.06828829735605295,-0.02352823508284025,0.007356438414691454,-0.04387309418437161,-0.005038904521153333,-0.05298808590214265,-0.08078458518259346,-0.008691428247393967,-0.08302863902871768,0.14671978835552546,-0.0893921716287272,-0.05762090271297463,-0.04029170258207938,-0.03674568114099117,-0.051702496065870206,0.12527500070839967,-0.045025926961073076,-0.006787720667184104,-0.02922112286274206,-0.02911281068730769,0.10283333943354553,0.0440252687244538,-0.019641960647538582,-0.03853155830478371,-0.08429939557770394,-0.0040888269380611915,0.0006353844324684908,0.07004349674798994,-0.03482815786944995,0.07546962516012909,0.0984896543948966,-0.0035629567973521187,0.0794339326129519,0.04621291307407338,0.09730636425260797,0.060014425223998316
137.04849243164062,0.98040771484375,0.051292429217887875,0.0205842922755104,-0.006208322704801171,0.013706016177620803,0.014155294969852482,0.11443269652868243,-0.020836025166138056,0.25619147473986886,0.29386845253399096,-0.17831122703661526,0.9528260441624179,0.11292517926284262,0.09403485233386469,0.21134482564953383,0.0434921840245196,-0.2069506180630146,0.07445256828411367,-0.06709023581299753,-0.1559985183268937,-0.08735456784588747,0.01298726494388136,0.0036617686620443735,0.13780930033387892,0.013137049121069666,0.0687878054981424,0.13644251467174967,0.033695928327321614,-0.10651158245197355,-0.27074341402700147,0.022865700696515348,0.005651993654679673,-0.020021591824809854,-0.011593263548818789,0.01942973191365978,-0.029247156285757303,-0.012818155588238397,-0.03682215146153319,-0.10899064129848479,-0.011180737241357902,-0.06692932779847004,0.13448942998087998,-0.03611714862951052,0.0270337168042758,-0.016022088350606582,0.015606793568487575,0.07919463927898138,0.04847350778753705,0.00994224087592149,0.06926492018288902,-0.010695360258141879,0.08851124058838163,-0.01814069248789655,0.051746433560449334,0.021190332257825947,-0.009373591635165802,-0.0027164089637931634,-0.050586639468109595,0.01463746571335969,0.05209828794566572,-0.0270576617384703,0.06891441836237239,0.05497108340202052,-0.03804575362261244,0.027092215485513278,-0.0880164463529049,0.11543695095310201,0.031495147299052284,0.07420200160858526,0.03536009752065361,0.03850410372897113,0.10232588015359008,-0.07599668484121795,-0.1002414251721375,0.0003651004997387991,0.021719490205389533,0.058323899759450765,-0.08316503434756947,-0.018699799682521556,0.023742547523958886,0.025847250066252977,0.02813929919789637,0.004724653845873605,0.0333643561272122,-0.02360018404061659,0.039277425336182684,0.03618187755211511,0.005065862996410231,-0.05316081265058957,0.01346858669107762,-0.026297955368699694,0.009172358238329962,0.027447304847062648,0.031220571977120123,-0.0541307033544673,-0.028165130295744047,0.008969513861179472,0.061312196196060896,-0.050777158559424114,0.0037829306977269356,0.09238938979819117
138.02890014648438,0.92999267578125,0.08740580367905817,0.11996527739715866,0.08068252075331799,0.06799276785960782,0.022490800832467454,-0.0031936636959200705,0.05411660765520862,0.15533354295622992,-0.7576321632801007,-0.45714700362374283,-0.37203891533443056,0.13076258664384047,-0.05191741152216117,-0.038952549245461196,0.041337121976443875,0.20308729891484117,0.04718019798296607,-0.023790425357919778,0.016998947322272865,0.05261984346413238,0.06805307199227147,0.009721832292101974,0.026110278662939815,-0.07696518864415729,0.10472155775611258,-0.013959599094592844,0.10120748151991123,0.004267292609758593,0.03349186902609394,0.036339313157217105,0.06985986438995535,-0.06137403762769217,-0.061353425360860706,-0.09577144849216791,0.009786253928940794,-0.20619893996766855,0.13036551203728539,-0.07189737959577053,-0.004265677013477763,-0.012526675949463925,-0.03767753472046192,-0.05986369395940656,-0.009423956821463164,0.017860750369647682,0.013732435779593544,-0.050695895488332365,-0.056274885126870636,0.015049656155897859,0.046270656730345534,-0.06264606971826694,-0.07777549874218626,-0.003923820663702282,-0.08855714560705509,0.006146085665176508,0.12638945725604528,-0.015176776797979304,0.05488755242635214,-0.03584862664680061,0.05564757722208086,0.03085454227233967,-0.03739275929034995,0.037396235598040894,0.008201769812798685,-0.21704827172828028,0.08301694882914064,-0.0003160099252978738,0.04406897147807491,-0.022948970490075594,-0.0839437251441485,0.050721858010661036,-0.007904254504811923,0.021609834259831748,0.042081416703096716,0.13034390551094602,-0.019958561566513905,-0.013888235634616365,0.07236507858269836,0.09535662497104276,0.013419425961955257,0.00021389966879402367,0.015180570551502601,0.04609274230281067,-0.01662514608472971,-0.038901895259174715,0.0269323449818687,-0.011517981723892567,0.019643978570924415,0.005578046464597305,-0.07032215122510058,-0.05608130909874858,0.08693903416738333,-0.021760373258800494,-0.06094469491237721,-0.018158617670056804,0.11334539131446368,-0.0959421293093459,-0.12570873450851494,0.0863462303565537,-0.06295780540222295,0.07473059969379942
138.95889282226562,0.90020751953125,0.07835751023821641,-0.051982311917950885,0.011718282619208601,0.041489663280379806,0.1319138005100703,-0.05845703971830268,0.018700609706459537,-0.06706839082615834,0.004514274061362844,-0.2475812389565306,-0.1281571572599485,0.3654581802766892,0.28637794805645705,-0.07563954572393512,-0.13059078129542315,0.11953907750950842,-0.13328215464339735,0.01269565912958616,0.06974595974110337,0.09204657702861073,-0.010629612428210962,0.01001656551410995,0.0814084245223711,-0.00852107973515244,-0.060366438095608266,-0.06741914500618573,0.03358168567950351,-0.03714614318212381,-0.032830508767847606,0.011082570816057334,0.0480970568833034,0.022321517916625098,0.006997934878462356,-0.05179770675022117,-0.033813037230583945,0.025990640586881365,0.1132101414944089,-0.1708662657931274,0.21461017693655024,0.0349596352342153,-0.07247163605129578,0.02814045053407806,0.10967201898809922,-0.1377175007146847,0.10554056489606356,-0.04889135481515701,0.08526585725920144,-0.06325851043019357,0.13375395712811347,0.007075715263876652,-0.0498884231681407,-0.07082587622656977,0.0924542763809665,0.15554049090099586,-0.2153701719915871,0.3958626931670176,-0.10816397944424402,0.1951728847689978,-0.084077936779211,-0.010225387912410344,-0.0877347194450242,-0.06094414470962782,-0.03967664332875212,-0.06133079828763312,0.026564347120849534,-0.04670792001205482,0.10203554949613158,-0.03654372353417862,0.013800541221362525,0.029675046832783644,-0.08289752463521959,0.004429763539150859,-0.07582204854789515,-0.07462707629853456,-0.021973914941953332,0.013038556766584193,-0.03696093717967151,0.02353381541482827,-0.040277744982711534,0.08118271793996007,-0.03807169485574706,0.018836278045525498,0.03568100226723636,-0.004709328799763157,0.06050004345874853,-0.013513832797810583,-0.009906746440346507,0.04888279800273977,0.0979362941367732,-0.009758392043734944,0.008388934782582132,0.1125720293972617,0.005414473479280715,0.11050461551476072,-0.03532271972983936,0.08405291863079861,-0.09874766688743777,0.04570245773538223,-0.01011226896567559,0.04443736236076476
139.85910034179688,0.92999267578125,0.036038334334672656,0.07079937693885845,-0.07049925565556515,0.10022460402716066,-0.0682519072733366,0.09048590955501423,-0.15316735234517864,0.1606887090105326,-0.5939778701603043,0.15255115061766616,0.41097131553229527,-1.0432369506736552,0.17700849090934878,0.049090501132742444,0.01689215555197647,-0.07401596541522273,-0.043053047114073525,0.011411972692630223,0.03056832028137649,-0.026359911559129603,-0.05883202503247908,-0.15167390643096085,0.17804645980252115,-0.11215763187492199,-0.0056637444780544555,-0.008938669254752118,0.04432724378956819,-0.008580583744288134,0.016523075528998413,-0.054131783109172674,-0.03308761792789944,-0.10156433884098731,0.00312094213175014,-0.0652182150006137,0.07670394621562099,-0.06987798160484576,0.04338023189980132,-0.24709003793842746,0.1262500371161661,-0.30814364035470054,0.24001317676279105,-0.05581694400702096,0.03541346166702457,-0.05548255775476846,-0.04981656402300021,0.07412970079788124,-0.1388315597726928,0.03494981406524791,-0.04256086930420812,-0.06575037234791241,0.07841158904838187,0.003896341991262207,-0.012293988984302812,0.054570625755611724,-0.12120603323718293,0.06421192387521088,-0.044158926936143525,-0.024370434794640322,0.10791530206873687,0.07196400987145563,-0.06305145455460548,-0.023814291922276187,0.01698298961073655,-0.039966517838063875,0.05766242281314055,0.015486234258493789,0.02775781474714873,0.016417416765310153,-0.05158302626166178,0.04708039713016333,-0.2336209455094549,0.004984233370655359,-0.08492716144705248,0.09583594140509115,-0.1467245742298957,0.11972490862145438,9.858773848449819e-05,0.16470247138242047,-0.028984497832351325,0.11048335938819413,-0.04904264485978852,-0.027002899731933473,0.05332334376908177,-0.0027839423086632245,0.08322919569193211,0.078521496317123,-0.0598052014883066,-0.05279056319250959,-0.00740580144961573,-0.03752276652788964,0.01750503107181136,0.14273080375213143,0.09920002568915975,0.08482318823373704,-0.032390459894315826,-0.03501156517380772,-0.005094453861599941,-0.0761207876243765,0.1567942406891779,0.06353069783423762
140.78909301757812,0.950103759765625,0.05308189757740337,-0.00460052794348695,-0.025589248242773942,-0.012160458200377268,0.04613619331984689,-0.018956101101235856,0.018490797433586212,0.04555864588957404,-0.03349046516204464,-0.07930245241606464,0.07268948256065252,0.46544997476115013,-0.3761702713808102,0.028897802095751005,-0.005401629070799783,-0.05383080111179497,-0.1299010676474945,-0.09477601402498857,0.015371859246892473,0.03270131394599436,-0.06789806112373026,0.040071812641524485,0.14848874329704084,-0.09054255325827265,0.1827257873751912,0.08471743621860098,0.04514800594741166,0.01354484892128938,0.0580012295159439,-0.016786646483798878,-0.07567138110691969,0.0960788088396952,-0.0950897118712531,0.1554215571907018,-0.2791683574876585,-0.2891566572205259,-0.021557367953199753,-0.08444353812367689,0.02376597710979106,-0.04959856197668321,0.031879947672221194,-0.05593457728899665,0.03567991838109086,0.15114776452990786,-0.0497947271870076,0.11432962737890559,-0.041710962490242566,0.11326587840825621,-0.08486749991395112,0.029239299595861794,0.03204722142022906,-0.07028366516542801,-0.019146256862207035,0.055999457958698214,-0.15975387466531907,0.04369275672768154,-0.08197837242969602,0.028063554608915797,0.07127291360487341,-0.08629850120278294,-0.013279432426198778,0.07113640515780503,0.0561525099981723,0.008247241508391321,0.001497152810334604,-0.06761147299637012,-0.0074428553936371315,0.025757889977920816,-0.07839873474230558,0.07849155376170164,0.02546877788417462,0.07427114133260299,-0.08796490529021808,0.308618871266147,-0.5306374614824175,0.040419715205420176,-0.09860127366928226,0.13966299027337137,0.07440212152608931,-0.16195472475181147,0.046826903328824374,0.010937186113221413,-0.018248058207326046,0.004336347658337172,-0.021207792712717517,0.04525335181244702,-0.06974057880612183,-0.04090368015377491,-0.014888736443205493,0.04613670003691747,0.09463226965471289,-0.1521046296017213,-0.07617116954890138,-0.08505263959862136,-0.030222659611473055,-0.011640744582340596,-0.05627224084571804,-0.06662107921695615,0.03616912168892846,-0.140061549733067
141.73919677734375,0.950103759765625,-0.15791862474100543,-0.05368259426685083,0.12544581891607895,-0.14600428337997842,0.08983104318791119,-0.01229530341911956,-0.19551078325622123,-0.11980142675848358,0.15269698003497306,0.2660097199143606,0.2864138898627629,-0.1577302564258573,0.3679472259977469,-0.18991680850160214,0.047714425534483934,0.028573517152419806,-0.06835686629770513,-0.04518483286185861,-0.02418207918594773,0.04180729214463574,-0.012676863872560028,-0.062169462007802594,0.008078718728018545,0.007172817069078041,-0.02415737497321107,-0.04364040798520788,0.12882657392165692,0.029678798788196868,0.028775482474233262,-0.03430134881599501,-0.029998882296246133,-0.002441844782640694,0.08358314551881725,-0.06656268187761843,0.01727724946772074,-0.02861974733440034,-0.05900803637695577,0.0030799156680530668,0.12612447988656947,-0.013025287964864733,-0.019746441364505082,0.050602494984258214,-0.022779971058645345,-0.005480663828827215,0.018217484269761497,-0.0158812119705008,-0.06698722939377955,-0.04756116190907813,0.018299430978523844,0.006414383293242876,-0.01727747867627516,0.05946577932970367,0.02720251148403248,-0.003176297445359038,-0.11411116312246386,0.07884309980930956,-0.03826465224817963,0.025508413804511642,-0.13077529121498813,0.08107755913125547,0.056428682656742224,0.006561557461213896,0.009982583266810102,0.05768915387779115,0.04270505761219044,-0.027969822074434596,0.08168021860684976,0.04885434994312083,0.12490283884379284,-0.024829867697672613,0.018412771101700087,-0.10784939818515071,-0.008506669250998428,0.20143569646548526,-0.2209328527169996,0.09556442832917528,-0.1264346865053535,-0.0900766566683219,0.04286666556219217,-0.014813749521076183,0.05073546823985895,-0.029703519738509477,-0.03780021305339808,0.0039849201150191915,-0.00563951962464242,0.017419412459427297,0.02042333973786065,0.005186178198790881,0.05137882703363424,-0.024727381981033063,-0.01048173742542439,-0.14760448311897026,-0.05235452601719378,0.029521227829378518,-0.03150483313590192,-0.08048688668186567,-0.015498913114221795,0.10117148929758948,0.02441325899919304,0.07591318860841688
142.68930053710938,0.9297943115234375,0.0635566006380574,-0.00891652890674897,-0.001023609358768593,-0.01540667140605836,-0.11271610192655068,0.04584279364775785,-0.014193993489442652,-0.23693534504106523,0.12809645988034796,0.14271984373084912,0.18197978968729128,0.5014054397614404,-0.3399084790417921,0.4005834981039904,-0.1569445187413923,-0.25840941387962874,-0.00017703121483755857,0.19874607385353787,-0.04111193156528926,-0.008149497511594215,0.023704572499881442,-0.06422103929498818,0.05705024596451401,-0.02325651536815591,0.03490608406242703,-0.017469506340287475,0.03285868699003968,0.003904600863040138,-0.04214478137759066,-0.012289538625228788,0.02273189161269412,-0.013734698468688914,0.06165392142031468,-0.066145593247056,0.06212692877987948,-0.006324955716719732,0.02662882892068596,0.06874534888559045,0.04218925605028111,0.03687305808410437,0.008539754493561598,-0.06191585743652965,0.11131921011521381,-0.023640742298121638,0.07948705518738544,-0.0342589427651155,-0.03711709202147847,0.003259439703355337,-0.04564927800153781,-0.04139825964348485,-0.003995538330849832,-0.02971867164524302,0.007722616615254613,-0.005291112424568818,-0.00029516799460393983,0.009224836300013972,0.06358010183824771,0.04368189341342743,0.01911940187469878,-0.014676634359593238,-0.0029907020854665206,-0.22696861443710759,-0.023238819488556505,0.13165124132593545,-0.07678594594678116,-0.014279171086079429,0.026448980377616164,-0.12781628892366195,0.07209420313153281,0.055832063630992974,-0.062193440339348476,0.0807024974635383,-0.06127126689269179,-0.08267075858876209,-0.10843847756918112,0.0359324037776801,0.2087274677429537,-0.027323787370864043,-0.03533897151529011,-0.019578137372481808,-0.012314927931873821,0.040104741687939,-0.0009773237675038179,0.0157349653676489,-0.022836020278395847,-0.05263746096949089,0.0010414080245145993,-0.04934499757418506,-0.01599251426475904,-0.01301911243822599,-0.006564347865421538,0.006177518035036789,-0.005824593991767568,-0.06815439754654949,-0.013473944803735139,0.15412233793262584,0.03268702006312005,-0.06814843469556213,-0.10509079875013481,0.1316877863004455
143.6190948486328,0.950103759765625,0.11870257684840818,-0.09504236521519639,0.04781357533528344,-0.057237197987989236,0.08436939377678601,-0.01360928163733716,-0.15631904035881866,-0.15154784516465902,-0.25820663885702855,0.3904115683851181,-0.16178913241270632,0.05828347664124954,-0.475527091469116,-0.025761742054859628,0.0026101238133961037,0.1283390435043613,0.09646517500054945,0.04296143868713011,0.004339401383957123,0.003848174517606612,0.05430378146549657,-0.04360364058566667,0.02449319541719832,0.020893537038442402,0.03129916097698621,-0.019052344240460744,0.022567352938101113,0.0374434755341926,-0.020503453085633096,-0.025531301661833428,0.0759109151820256,-0.07273237477557418,0.08905320526878664,-0.13532374895925153,0.019862405811301824,0.0355193593285335,-0.09608396011920092,-0.08942599543447602,0.003775827889816689,0.03691281986731664,-0.09965723380812655,0.025984903368350628,-0.047548570856523,-0.04338727300703749,0.0038026046004025153,-0.034038913943749825,-0.14574405951045408,0.08261409303949613,0.029614241230900982,-0.031479816846338396,-0.010752160937570287,0.0022722207339177236,0.024746880250309314,-0.022206914245270545,-0.09384171613057438,-0.04914878803464094,-0.02660671075644613,0.01544513538888994,-0.10834303521885665,0.0730686996016287,0.06905444563014401,0.0333365822593374,-0.04370253220070098,0.02279639618043993,-0.027734745878517035,0.03399481688242472,-0.07615488416051241,-0.11762765553463997,-0.15097960871147473,-0.027675140237947836,-0.058850237139653955,0.0633956772753583,0.029448629709903,0.321596520817178,-0.08515626202956073,-0.02255941331845853,-0.07110340044927041,0.08074261645087974,-0.07712280916891548,0.00845002346138772,-0.0016710435252418158,-0.022524321251976405,-0.022357207368263333,0.05937690729138516,-0.09099748112281247,-0.061018935602644,0.03738440077953038,0.04006725462046618,0.0033013725638448843,0.01109932152410915,0.051120479472104186,0.04646781820330512,0.00498986632122328,-0.027756647101850454,-0.039996714558573065,0.02143782603727326,-0.08842510778298655,-0.054249759495084926,-0.04770823281092803,-0.05473779052355188
144.56919860839844,0.9402008056640625,-0.06435237134452092,-0.09556152742986447,0.06423810598452499,-0.04244124826394639,0.050143345108379596,-0.07548915509333598,0.10817235039319806,0.11320792517409463,0.057009771852664204,-0.15328764046025756,0.11265851994559745,-0.20597912601365137,0.1878590106780427,0.011537109367551045,-0.07945542990900505,-0.05386784427526146,0.006704329144423453,0.06327504846727791,-0.08535416046294285,0.22757518621562828,-0.18685073875873554,0.13802889976548452,-0.022413892582621227,-0.16273056709110645,0.05708085024648116,0.044508940327991506,0.13894268970728602,-0.010376325446846512,0.14453335813354934,0.0170630428841237,-0.118408010525112,-0.033172824510350106,0.13374745147064465,0.015148317155581566,-0.09601290027823126,0.11382610636844476,0.01103572702534713,-0.006173225376794961,0.039648052707190566,-0.12222381359499052,0.18214020073730797,0.05093535923134361,-0.04277167018847436,0.06076975882045738,-0.006691590013015203,0.00996103689030546,-0.03227424071138106,-0.02494900772514089,-0.03424712289942551,0.0009947396544863398,-0.03984617378578238,0.03928248970528975,-0.03933545665039534,-0.01829363967213244,0.008865732380745044,-0.07551724336778558,-0.020451503519978754,-0.08189430106988133,0.019649184339287907,0.10737747832501468,0.11063310000690202,-0.03476872233445476,0.03374207628712187,0.010698377198329334,-0.11606886401079673,0.11477863611145507,-0.032698402860452565,0.09647185305880608,0.014796451749109353,0.09894236464432515,-0.13145810908669106,0.24677622705084404,-0.12438228299148518,0.004010602627277647,-0.38145011791603284,0.29596411580791926,-0.1776046539692605,0.026724942080326476,-0.10720064852525713,-0.07663127312973125,-0.05429963247804491,0.0019191857271528348,-0.010715287430580648,0.0057635585934943945,0.00149351401003922,0.02186231007058303,-0.046846548687455865,-0.020216381213575985,-0.03975815602656783,0.1182571482904679,-0.07623426908942543,0.08081346133749348,-0.08896490190171598,0.05552186222694318,0.022749979319302012,0.05036258058336989,0.022031155097338544,0.03157080148382101,0.1583477380905022,-0.036417672623175704
145.5093994140625,0.9595947265625,-0.048895545873589095,0.11974077122183466,-0.1055750759444118,-0.008316704748099396,0.00365995717143081,0.020764633546804818,-0.12719875728301627,-0.16173481939148615,0.22523784294248522,-0.32256184709438246,-0.35899194075791524,-0.025577537489157018,0.10515377108991511,-0.15015064873722145,0.09075535031998418,-0.021564195724661082,-0.022213010232531274,-0.02057492263961566,-0.05664827561195175,0.07365698607665601,-0.18540424079602758,0.13254223439939525,-0.10775515002613437,-0.023908651920765273,-0.050048456869819354,0.02691958778799725,-0.019163713574244137,0.0328925200960905,0.0033625719568870192,0.0036221585276821344,0.07628516146505977,0.05737846705119563,-0.06748438986982251,-0.02696672749728536,0.01765698855155702,0.0556213397727035,-0.06495945171757841,0.0902332787889734,-0.0522651299258617,0.0700586858358938,0.008673371918435757,-0.0331407148149237,0.12715663631941318,0.03689565235902786,-0.0609425686361718,-0.0801482739135277,-0.07457790389882141,0.07619168488452056,-0.2045565314247533,0.2357426255094681,-0.1610140194400222,0.03706514008831879,-0.02302242027574914,0.04884517150240487,-0.04998704444864427,0.06205115938328172,-0.01071679612878114,0.0063615192708789655,-0.025563049947916267,-0.05647247931949798,-0.16307518114382577,0.14408862999129926,-0.12024684138540404,-0.06357001667256475,0.05944614813025719,-0.021385881862817938,-0.005104461637792233,-0.004311354321648727,-0.12787431891470535,0.011135765494215896,-0.024795076765418155,-0.02273570814983301,0.11626064807335824,-0.005792108280945977,-0.03971551904021088,0.1290674229008374,-0.07923968303204709,0.22559785808311847,-0.31743785597592705,0.03291038696406212,-0.007967709611656933,0.07485563201592284,-0.07141329773129103,0.043166708425561154,-0.07918995896790476,0.00911930480043982,-0.005773498632779098,-0.007542277315080665,-0.031213571392591535,-0.06871668813933735,0.019589516026107166,0.02933235758752841,0.000852488333861893,-0.048999298853765284,-0.03512348671758039,0.06368713835025397,0.15451738944862914,-0.005464262820393471,0.014736503687652534,0.05550404069717242
146.468994140625,0.9105072021484375,0.04861006542724217,0.010904032605958687,0.040429716997413524,0.10341913572625078,-0.04082788163294779,0.07049255904974584,-0.3063784691616436,0.045615805876715,0.105565396215825,-0.06502227195994324,-0.1594736824875047,0.17310136571469475,-0.2087841728450938,-0.05002507136133531,0.04610098123300532,-0.03328424946660383,-0.14659839786422563,0.08973692893851196,0.0441713511017575,-0.020763001012954946,0.004080612717648684,-0.052716465125736224,0.02095450923087839,0.06664060375806419,-0.06491659893797602,0.06336040992111104,0.005521967682141086,0.053395837297333035,0.00337775357354159,-0.06798754405754974,0.00531738542883149,0.02399954940103602,0.010411538202244108,0.008238856401453429,0.03355861380036884,-0.011866274654057455,-0.036517215596643,0.01529787905793932,0.03607348276799651,-0.02264299227062659,-0.00849404579998815,-0.039101552789734026,-0.02109638479103973,0.037471717511466406,-0.03429784662264996,0.05546824618562256,0.07485208587762866,-0.04788092579655271,0.04695686403258098,-0.0042107119220560485,-0.09221842664910615,0.025614758173605298,0.015127986294176993,0.06586123385689041,-0.042502240772419306,0.08990808409961706,-0.050704540905343695,0.04415567166383703,0.06504521298590146,-0.03726896977605449,-0.23043419454309197,0.19401748127844853,-0.08097330364125235,0.027325639679028905,0.06690876393947447,0.0037687493636104196,-0.04623375365598785,0.08112530055848712,-0.00422226583719644,-0.09519383833157699,0.00821474194515782,-0.004423178520215558,0.08184381605524553,0.07517791444668136,0.042283185787093586,-0.12460770980465205,0.08976312653190202,-0.1035131447588227,0.007711848202030525,0.07024131881427506,0.05144922306341425,0.06298449717211181,0.035392439597781794,-0.009109226441530463,0.03492465713781763,-0.01597334283293876,0.02124806491153891,-0.04411873576352005,0.003216963349137054,0.033817534962313864,-0.004488642438442065,0.05152756353248678,0.007894156815900813,0.11144027834890566,-0.04109207152253162,0.07527289328897653,-0.025164622693981245,-0.05740826646209378,-0.10624404461002028,0.05667442377692599
147.37950134277344,1.000091552734375,-0.0795781440751105,0.07232203980811361,-0.02967522058566202,0.22604709522775027,0.1060324076471508,-0.1049857965813077,0.2613197169852032,-0.18814828712247844,-0.13535557455473324,0.20646072544859143,0.22607531220956076,-9.661015421169594e-05,0.10202366636139294,0.07686793335699338,-0.11692070394723708,-0.12283171968061253,0.02791654595033514,-0.03727649972908204,-0.0011343636376657806,-0.04927181879045893,0.020364107727454263,0.02933509814345832,-0.05007801585253219,-0.0025246819616449043,-0.14184316550508969,-0.002317520885461194,-0.021453551578176574,0.06915302936701105,-0.16152121828691843,0.0018499843338050416,-0.0011401054539754638,0.021038570333231893,0.031557731904088074,-0.007398196054280437,0.03703952752512849,0.03411292058116064,-0.07041043492835539,0.03987618760116017,-0.18797788893344045,0.12400294861117538,-0.0826402246643105,0.06916016343683566,-0.138108350618433,0.10644990189170177,-0.09042482138336255,-0.0041057554346249775,-0.10409854546726366,0.10128760971262173,0.06438208931761989,-0.03381646761808897,0.12313946169122122,-0.03301213583345838,-0.05878726721144528,-0.010619606431318021,-0.032609689144996554,-0.003441057180395823,0.08239089664136613,-0.08584582189968341,0.0360652985435986,0.02895955666160039,0.027181846586693762,0.11171336198461113,0.25252179610122594,-0.16235478432547407,0.25413010143207754,-0.03822822764684483,0.15121618239817305,-0.1373668759973094,0.002014653176206343,-0.07527690751653965,-0.012239905694859832,0.1169085012415188,-0.04355196613100809,0.06917275195329964,-0.1577648261509376,-0.04044511214664462,-0.023494371076246384,0.10408797923856636,0.045923465880797064,0.05878481600832642,0.009928211835027838,-0.02911773888112458,-0.005049685453165757,-0.020361996804107545,-0.02493764254996838,0.047002749207302484,0.03633349646210203,-0.035818410024620315,-0.033472411243227355,-0.0773194135468093,0.02710365684647477,0.059791438734591786,0.09137730867730945,0.03387222206504392,0.04823200179057711,0.02521290036797081,0.09367409801766434,-0.0037560230856619053,-0.027441799953899088,0.04740288067201988
148.3795928955078,1.0601043701171875,0.028710340181175853,-0.025412228404076222,-0.005149231227934856,-0.06273912264001806,-0.09316758724643,0.010823708719696444,-0.04970433800778181,-0.02309479941593567,0.03583563583481703,-0.43117637825185484,0.2630863201435647,0.034692358406711185,-0.2817079958610471,0.06093418345248461,-0.1209908294183976,0.11366508859122805,0.1793398859703058,-0.07364306648831803,-0.0263979928512342,0.19370609873350886,0.25801584114327203,-0.3553669583321687,0.2572894065603074,-0.026757591726867785,-0.002696635301572068,0.0515994736742733,0.0004639739755234705,0.042673986889863076,0.0005236035432736188,-0.00908848303761196,-0.06868451516509103,-0.02103150708364805,-0.27119091879883056,0.15294509483634822,-0.13760882943109387,-0.013281595337173805,0.06295685039289817,0.0016240205286958756,-0.026358866342458584,0.035526483251934415,-0.06767638404575582,-0.056833914638306976,-0.03205264542474025,0.027892000804792746,-0.09293758944993388,0.02021063072797058,0.002508617464815538,-0.031665332607846215,-0.054910858147407614,0.047118787181488916,0.04742446644928422,-0.08071613329642197,0.04042690556933446,-0.07218143079475585,-0.04331538103713685,0.004292800049917243,0.03680937999545906,0.11943740753081604,0.08233817478247511,0.06598610997061477,0.04914028449786706,-0.05560249700737595,-0.008733515181046134,-0.055429731243739,0.024125225107888563,-0.006432541353899668,0.0774966266378995,-0.008691283900540678,-0.03253308450911491,0.032160517081258756,-0.012355903490809726,0.056010872924709076,0.00030507645216420326,0.07626691301275489,-0.06757981895760556,0.07337793724572499,-0.015607610389326938,0.034996372204275324,0.03572656626837965,-0.0204212195059766,0.005830918987628891,0.0106913914990064,0.06803432755853091,-0.11744261590375306,-0.012815009621635162,-0.06409181684552509,0.0331869975938379,-0.03536023767929559,-0.03853657802533028,0.037829235564654305,-0.0018031703901744273,-0.02864036559390795,0.0581277702722011,-0.010153591488092889,-0.014658061569329365,-0.08622399504173289,-0.15740923072017607,0.040748031132761174,0.028511842393324396,-0.017638989323868218
149.439697265625,0.9300994873046875,-0.017791926375075345,-0.16570375851454283,0.002369460140348306,0.03187536979247775,-0.05384740635788496,0.05397808039173106,0.04850083835534931,-0.1300862211198654,-0.37513459208386774,-0.40665254263192935,-0.11525967605163519,-0.05232853713820975,-0.03646090324554854,0.07917947965392275,0.03870384002305457,-0.0315373047365868,-0.041387507120005745,-0.12390555266721676,0.14080833893498484,0.023298340855493926,0.06724129429715467,0.09312152688625809,0.1108286491913452,-0.030562709228689627,-0.08889661398072182,0.006153236045303068,0.06062986112220757,-0.027779899114467595,-0.048166238864698147,0.02886539734894473,0.042447044374955945,-0.03015002413246544,0.1804608441739491,0.029129428455840257,0.03472520118001092,0.03495229098653945,0.06887174110436163,0.04121144714922233,0.040399301758819284,0.0377649677303956,0.0160145898110782,0.08022799417480421,0.000919001778296796,-0.038048855249222996,0.01898982483734874,-0.029687638565518655,-0.05478674788809346,0.1781624622539649,-0.016616944693435713,0.03868176884349319,0.03592864471167329,-0.022715783256447283,-0.08786168816133161,-0.018918887678716086,0.09002985442992043,0.021239661861715428,-0.020816032182597474,-1.175339624633065e-05,-0.13541886983422624,0.058582690862220184,0.013980656450767492,-0.1703892916293614,0.0607717587071558,-0.0507745351290306,-0.029301518734956688,0.045257050816930156,-0.07620880867985212,0.0758602789533598,-0.03496617873552481,-0.004269368076462856,-0.08452419682662983,0.08450470331440832,-0.03330369455782018,0.024564077492401665,-0.02250321892247488,-0.01308634777449663,0.06279332371177754,0.08486829246723455,0.0014665305796294562,-0.0917113095021097,-0.030447359286227865,-0.007983609536308512,-0.07476967090933348,0.003803700814237659,-0.05721575505685284,0.09819543319598813,-0.015500047414932957,0.02541009596554801,-0.039523094188777155,0.053866796404099956,0.048105660415652035,0.015066953825480418,-0.0682987852152864,-0.10787948708862606,0.00743240627428158,-0.15849679556247864,0.008740158974377715,-0.06486747650954491,-0.013771385613924422,0.08135441188253077
150.3697967529297,0.929901123046875,-0.06649904428186008,0.05205360217707277,-0.07792475924467977,-0.005066865259615964,0.01763028530071041,0.11372814154644989,-0.09626299964559185,0.09549603278175134,0.03033509749801946,-0.3027958230170317,0.12105142903115003,-0.09585654402790329,-0.07821296549614286,0.03962692910611583,-0.0026159923164047385,0.12094547846256701,0.003303350883903499,-0.11576473605526043,-0.008262815619684227,0.07010523081639103,-0.05338762498507197,0.047435901757378204,-0.10911717484091896,0.03436101901930952,-0.03134367232939909,-0.0013552027990183756,-0.13414085812755086,0.08839783559589087,-0.0702867416820725,-0.0009116744027336723,-0.18086155979874324,0.1465352721982506,-0.11468749936332796,-0.01648806853991935,-0.005384843754314264,-0.013888228636762215,0.019033271050291435,-0.005154126483753483,0.0547877007407628,-0.03942497371452894,0.04380903190696504,0.02927360691079543,-0.045544400221221,-0.06050503315193295,0.010342589691186538,-0.0009612177568156539,-0.010865157724673868,0.005699467676330255,-0.0358179247626845,-0.01041213844624517,-0.058607605267864626,-0.030096480809178053,0.044026909213476274,-0.2570502618908016,0.119741283280778,-0.028852400176406383,-0.012443394613510603,-0.015772964310260106,-0.13401751356716363,0.1334612375907114,0.030889892757272303,0.07501081353701207,-0.028720661391709715,0.041940592137683065,-0.028212838030492043,0.002661254751810522,-0.012733666380338553,0.0873701149189603,-0.00960446048591337,-0.46384565947963446,-0.16020267724390885,0.11232876031226208,-0.13720148138111432,0.14347057714915906,-0.049733689192104136,0.03212039488375189,0.03739978377929766,0.0024600722288034248,0.07251213704028556,0.01673673436661998,-0.014220113594289069,0.02266288284418204,0.01883106834930439,0.011695126323880383,-0.025448197895105704,-0.00851738896277137,-0.07654237087733345,0.017048758461521474,0.063607854605508,0.052550952208920705,0.0029330630031654285,-0.03428060839517143,0.1586265705346394,0.020671057720389033,0.09850017931554006,0.1677560582528645,0.03332683097044932,0.08194576205076827,0.07240121726376475,0.11646101590604355
151.29969787597656,0.9499969482421875,0.1129107409039858,0.018656282366570114,-0.06816904172281563,-0.05802294470539912,0.05454734105907025,-0.02820392459451581,-0.08058663594805662,0.10136702193117453,-0.05433889830748871,0.5455952124823452,-0.06511421307900013,0.367525622981903,-0.06104648781374468,-0.058074770341136804,-0.08088613415063606,0.0901711078056707,0.1919586442772928,0.16137489427675106,-0.07902362932644698,0.006867802911841492,0.023640855741307018,-0.033273560430984166,-0.0014822000515659697,0.03851862584528534,-0.013312468211881825,-0.031990197182708846,0.023186484384993065,-0.08050810481568739,0.02780102309311638,-0.03638002931384551,-0.009819688424636139,-0.025180235828692044,-0.07133843590497747,0.08913399427798022,-0.0030929117340716544,0.1917354884662857,-0.2506095723515056,-0.011894137821425961,0.07691892426429053,0.11405497246700871,-0.006854353109422909,0.04568962025880399,-0.07138366851839571,-0.062105446288038976,0.04888172259025275,-0.017663318287618374,0.0183615340480357,0.0558753341358736,0.0261452185539194,-0.020393254641593507,-0.07131683629235432,0.15591945216546804,0.007359794365442405,0.06529609404281463,-0.07047805870660433,0.07281858237994596,-0.10601701651475232,0.045532978968932686,-0.32883439003767784,0.05940990753929221,0.00554918015370836,0.06530194884003498,-0.06866471071305974,0.04071780769195066,-0.0361225109417755,-0.04582305937666625,0.013636073647872098,-0.0168685185337775,0.052913631808340494,0.06490511702507921,-0.05209508835526882,-0.1015494462555282,0.1348063409882022,-0.08123882812479484,0.2567063203725901,-0.19533775901633504,0.2232477596792177,0.17652170382955565,-0.011248404876907973,0.01220445168063367,-0.02861657965895617,0.014959734554738507,0.059991747587727545,0.0269189726973615,0.00137784343721894,0.07294785489517722,0.013724140629129336,-0.10016059361345553,0.006409665476772207,-0.0336029522395554,-0.02000349472243044,-0.01092797793912515,-0.04054152514132016,0.1346912279230726,-0.006201787808849031,0.09979837219401769,-0.011212584033547985,-0.07289821969701629,-0.0006405940863486491,0.019133321626425462
152.24969482421875,0.9401092529296875,0.012199905983007547,-0.01758172217177945,-0.012231034217466782,0.017760450259081892,0.10400789881835343,-0.017026730670945643,0.05919825845586373,-0.052618478973036696,-0.15148541490452588,0.3970705884762667,-0.6914226713731051,-0.09954073227664618,-0.17392691183559675,0.05987483331030598,-0.11750329605667896,0.1270871136890145,-0.07498312950842312,-0.03572667988058529,-0.0036003245833833297,-0.07495783018982807,0.05547034626553218,-0.05761096244508403,-0.0005622888616102246,0.08149153285093919,-0.008471635183701351,0.058321691336994594,0.01592505145818826,-0.0030976012628327,0.036531174158646144,0.04199403031185566,-0.1798734935352419,-0.01594379095576337,-0.03150323298721048,0.06223038252667446,0.0305053252438693,-0.04170452043780722,0.04361948966491227,-0.16398611216779269,0.08648676545341091,-0.016510065346347025,-0.0085134708372086,-0.02395971138206621,-0.011861707213894363,0.0019441317607465113,-0.024881829895777745,0.11122475855535706,0.009763659144029123,-0.0016354087198069823,0.040893750406771984,-0.01260620532433692,0.021732266227119587,0.04933306269858236,0.05550195604397121,0.05997030853619233,-0.07618656016595658,-0.02096802673875861,0.03630300461078531,0.07050035170846378,-0.07076220182393528,0.19384862555095617,-0.015025324700842,0.053825384105582935,-0.08277153317452633,0.03501483269607114,0.013783101154633062,-0.03029317092657012,0.07763858005296984,-0.04489081698036066,-0.02567880946366668,-0.05544802954986221,-0.020649138770515944,-0.14244544576702944,-0.042600737632764334,0.2960427124042134,0.3619412447286453,-0.01235215441338313,0.1700548102741483,-0.18348788341510036,0.1429880954165845,-0.02107253490868382,-0.010734413281741297,-0.030838298900932766,-0.00016396127342718173,-0.026743029395076404,-0.017992092356769792,-0.11839856795714167,-0.06143484131923746,0.03922355640723111,0.000911964451315393,0.01414013332882936,0.0030279140404149835,-0.046683055053749034,0.1315723659233632,-0.08995633514506486,-0.025406720320049245,-0.0760422074944748,-0.07665387815293317,-0.044906045457415264,0.037909579272434435,0.11888275570323766
153.18980407714844,0.92999267578125,-0.025054059729537878,-0.09402897625866846,0.09358610441419343,0.0359396860490966,-0.10593688011147442,0.024926459859504237,0.24314702131632268,0.21111703267647552,0.019364200443756488,-0.4506088948176178,-0.3443272744306358,-0.08672544681152211,-0.019153349819628664,0.024098393601474734,0.05388248690592445,-0.05323135702606423,0.23440585479073245,0.00022500657025195919,-0.011970466765285216,0.03105678292728365,-0.058138180027619536,-0.011487928709880899,0.006449735732530561,-0.09616239451138645,-0.03778982306977049,0.03537937345106571,0.016194645558208758,-0.023650309780655666,-0.01134829993028368,-0.11068805604366004,-0.08731768119371355,-0.005872372555121744,0.05540885081885397,0.013426568257498727,-0.053165158781985716,-0.08548175806127588,-0.019876096904262334,-0.258626097097648,0.05557515680919728,0.04407716066819125,0.009130792011282932,-0.0035669334340815047,0.05278718571677512,0.08103113131597821,-0.02292003108137277,0.025583562223004896,0.06186771079367297,-0.01976043422771004,0.014973364853233827,-0.026434534564110247,-0.06270651567109961,-0.019841412789679866,-0.04794036782265096,0.08382585997770739,-0.045573675703476105,-0.0038704754454874446,-0.09575687981557798,0.17927498319910604,0.09684679786387321,0.05506542355279789,-0.025802628097736285,-0.04071120179443958,0.032106553246856205,0.01070597278473,0.028175862521390833,-0.005433028964268559,-0.009062182029922025,-0.11860084392227645,0.014630569727221794,-0.00536564908601772,0.032553339981899264,-0.10652779062092546,0.43899389789744464,-0.6366361138586687,1.6813800192584387,-0.5462815595624346,0.14846486898682149,-0.11556108016688081,0.06387468404919151,0.024717700313273538,0.018905420822541423,-0.06595101474802678,-0.03259401568176446,-0.05289945742730547,-0.023112263482040655,-0.030313354345562673,0.062354686332663084,0.03583603612921826,0.031533277637085064,0.06080805436810817,-0.011052597582622354,0.02251823363350433,-0.025510873911134376,-0.030306701247807485,0.002000310901759353,-0.04927483556247108,-0.07352633638147459,0.0971527275902527,-0.011496385322305885,0.03984514196845062
154.1197967529297,0.9402008056640625,0.04444159046281288,-0.0390601490109987,-0.04428371801917647,0.0613401682745033,-0.02665153125635767,0.017494069888862318,0.06299989131630764,0.0047300795168424906,0.26563456401420926,0.12860747941345996,-0.46216023971436804,0.5069501368449959,-0.8185223518085476,0.1398300808291651,-0.061107167697949674,0.07275405918574332,-0.02275561506324903,0.03243136748739875,-0.06484874744617543,0.08093013124024548,-0.1924820388003528,-0.04457002950781083,-0.061434352451270824,-0.06583909026903731,0.018127393949448567,0.03951898441736989,-0.13055209750201077,-0.07145305547508549,0.08748499284988126,-0.017429987269971844,0.11071066299925662,0.050798139807505395,0.090500130524147,-0.12473142171771336,0.16286440871901042,-0.29004044253349426,0.24236399862146643,0.30363333584954344,-0.32570826719861995,0.1634637647152132,-0.06366851865599411,0.029472104695065816,-0.04753444318670577,0.03016487047187037,0.02780595541983706,0.07289740281642518,0.15219068922382986,-0.5067670180660514,0.13309914846160958,0.0037072401059057448,0.07219938914663264,-0.06383861939628395,0.09387448031659212,-0.23034105659864518,0.10985111290661813,0.08189729508520502,0.03276711336732868,-3.2623081584221e-05,-0.09744513017785554,0.13897888632555502,-0.058988269040739734,0.16351928504546842,-0.05561180760599415,0.0018841212040742543,0.06056570678500724,-0.02477761944180438,-0.06852242271583425,0.01739743573929279,-0.12870362965655158,-0.005725901151500255,-0.06754468750098612,0.30866864558934914,0.018495182139991767,0.14182171235839655,-0.37887120716609063,-0.16015182039781872,-0.23784116620060275,0.24666778228851644,-0.006560708378962596,0.09202143972901733,-0.03453073301719963,0.04514339198415007,0.043867535588281784,-0.010903543859771993,-0.023673131917688647,0.03299469035168303,-0.04943623158911631,0.041058248806630455,0.008986882842330804,-0.0012977101273577568,0.012976408208679839,-0.00784807534790227,0.04376139169473439,-0.021300687363847687,0.0021952658678002293,0.006998991701778824,0.030630753940807786,0.05846011522092649,-0.06295252995352676,0.07385189044689329
155.05999755859375,0.92010498046875,0.06737186836022573,-0.06297858085799843,-0.11589912323289467,-0.039349831632092096,-0.054672937061410534,-0.1424330103530009,-0.13326984155603272,0.11932987473079286,-0.08152245278520903,0.6813837353198857,-0.012249627281768108,-1.0214991952277714,-0.19262440311530266,-0.14086817387402092,-0.0075811498053913184,-0.08478483067012578,-0.05477631171875064,-0.03492489062342772,0.053619699194803395,-0.01767982197650146,-0.2424868663115014,0.18798059372160175,-0.20891441008699277,0.04317162408285932,-0.0811870440866229,0.08422446776909337,-0.16492273371089344,0.04905942763447896,-0.07269361673953328,0.06638388309501912,-0.029822158538412843,0.09198001218275159,-0.08283865365594859,0.1864316710111047,-0.14645977001803073,0.12832007277194363,0.08965448119911468,-0.013913314059167799,-0.07836401464640291,0.12949135877170465,-0.15049330276581063,0.06697861822223328,-0.12272007840970679,0.03972276528196561,-0.048870184862549744,0.037600411846517245,0.0027205759298769084,0.007773407590842516,0.06699304313684634,-0.03438465272356454,-0.029304296291357473,-0.005551212707214891,-0.003589145866154178,-0.06507747904719216,0.15747272959191033,0.10309819172991382,-0.006061483814091121,0.04510557622721761,0.04347497078832727,0.0531312691227495,-0.023392745549943486,0.024548835820944956,-0.0546492666638694,0.3221826805290749,-0.11018023862747255,-0.030639373807091898,-0.11781497386111622,0.16548280770796253,-0.008247085471648659,0.09478538785577621,-0.08236956315903972,0.04917682413374725,-0.05314046005953126,0.30846017603077375,0.1183076371169258,-0.21063621666010157,0.22122435968376847,-0.09195459068412645,-0.02605016158036922,0.09311144128803521,0.04113138134668615,0.0009134004709478241,0.03871630244505084,0.07737454181920633,0.01956900165862089,0.06087366345743447,0.03051072186817759,-0.009697926871537449,-0.05056294797705842,-0.021675999633996353,-0.036784719948309084,0.024182567789673752,0.02121994551428807,0.10364982457667708,0.05635063935210396,0.08895379476429027,0.04910983538446817,-0.0757028149871521,0.02155421448256735,0.07497504733105356
155.9801025390625,0.899993896484375,0.04934130921388402,-0.044747214060694276,0.11133328939814585,0.04585290042265025,0.08394393472041717,0.2037032195891713,-0.11217701898827363,0.06743475913406488,0.03940747719965023,-0.7103158881806001,0.5244897868597527,0.21203866909086735,-0.3912324252201148,-0.10404590938775851,0.26382498940465987,-0.03209190485614372,0.04802803590201782,-0.07811233891116919,-0.056620092258268,0.06654924078803226,-0.20144920047350956,0.190769095219045,-0.016626268285274304,0.09181185422579288,0.0028785638423506534,0.02341781526704213,-0.14666271017128432,-0.02192083797035907,0.052747090847465546,-0.049605615687613826,0.02702415090623904,-0.034374964095822594,0.13613640865171786,0.0038577803625119214,0.0859984958738388,-0.02361578476703667,-0.031075280764618886,0.22745545455750302,-0.30027747163436164,0.2581904924908329,-0.4288413346853755,0.02248046021673717,-0.09100945775984119,0.10045708001864748,-0.08298244782495583,0.07545993138073072,-0.14727471592351798,0.045175915730640316,0.02376737860870046,0.04708069943002238,-0.027139997943996408,0.03184789301972123,0.014561452779192742,-0.05151039153998132,0.023241419031209173,0.09470062846352227,0.0235902716692061,-0.008484849322725462,0.1391220550348596,0.04168090860341784,-0.05298744518177817,0.0006094437233242697,0.11999375207317191,0.029207442488056,-0.09631830825688571,-0.01386383936251127,-0.12453841268955437,-0.2630245326813325,0.14098469258302473,-0.09955029452329243,0.06549129589790038,-0.12081440919557265,0.07618856577568865,0.1472047629029024,-0.10075234047639443,-0.02813761947016536,0.0572512994769727,-0.12092629961482071,0.028243279989951922,0.0392392224990486,0.038156737546135265,-0.04446162333796988,0.023645969303026128,0.07254252330917765,-0.06862753629428656,0.009684311786114806,-0.06367449860461422,0.01049903286089658,0.0453895999731159,-0.03484518654366183,0.05653969371207362,-0.015534527308561802,0.00463755349039562,0.009187137158974411,0.14566649588774622,-0.10663809915202879,-0.018901016366840474,-0.08785508259779773,0.0229026658097552,0.013521861933867722
156.88009643554688,0.9297027587890625,0.14535133055564356,0.11465215909647795,0.02398889586735328,0.01469431756221557,0.04591544550271376,0.07918454158130725,0.09717022350431985,0.3550890386060881,0.0840258553358301,-0.1859092332030353,-0.2718015107996972,-0.4124625853168405,0.20159932644892836,-0.11040607558511185,0.2420962472107671,-0.08956852166630815,0.0016916388869227385,-0.030665350484641175,-0.030138841493266042,0.007901527675300593,-0.018082070481175994,-0.05085117292914376,0.015729180719751865,-0.032604082745039384,-0.03221311897002449,-0.03419629830380065,-0.04687654823160399,-0.06330548584160048,-0.13882430954934236,0.002855841149928898,-0.044138748108731723,0.03368611477319294,-0.07864564750197038,0.045663647525442774,-0.016269840171067466,-0.012325934897038038,0.05557969648422122,-0.1507601639795832,0.10352671632842872,-0.1922514685842852,0.18677797508286642,-0.12768712945540955,-0.008872855655590567,-0.03141852507643723,0.021956027027062886,-0.09645195811700613,-0.004691205042811196,0.010394429196797117,0.09919824383337723,-0.07543706031321966,0.01600544223559118,-0.10531864879757667,-0.012406631641152993,-0.018784492539899722,0.09775815210449555,-0.14195488720248992,0.0010975621377995598,0.09051458212890677,-0.12462110726825214,0.08417252325639311,0.030229399419185655,-0.19877240562198548,0.03618431051269386,-0.06322736204582094,-0.0035718414336150866,-0.037860531174246204,0.002805061696458201,-0.17314292839601175,0.23168576490954781,0.09020450778715439,-0.0005466429301921386,-0.055479293241795055,0.20960732817453426,-0.09045901493517655,0.011413130405355583,-0.18144365728357603,0.13265064890776884,-0.15139219033569667,-0.014644279155613504,0.07771620214253808,-0.08592246836157807,0.009099785714384342,0.04981659893870057,0.04355855712838398,0.019765663075362736,0.05106859563822389,-0.014313282233732585,0.004839961843616602,-0.010507007472675158,-0.02324083208167551,0.04449055127644821,0.05454824099149387,0.1173498408172459,-0.0037002620882886535,-0.1113881687037102,-0.01347619002254655,-0.1104614292614257,-0.15175083817482365,0.0582524113360998,-0.11002550513374976
157.80979919433594,0.9105072021484375,0.01406155875686483,-0.04731630183370035,0.03896533344532531,-0.14085539115551532,-0.08783129852614557,-0.046787944510164374,0.2928429797231049,0.04308712175831248,-0.3705406781804501,0.15365757548077685,0.39120497765197604,-0.41175060432864324,0.30500249624203035,-0.02956114096048716,-0.06848932792964159,0.13080298768801793,-0.07347604292630341,-0.029931869093683346,0.0421967004067054,-0.037242031203897935,0.09356882766957098,-0.13655487642806693,0.10984805015205772,-0.042389660295299274,0.015586334088582267,0.0029087943138015465,0.048801635720155646,-0.03353115084185525,0.03799576375040705,-0.12548616601236298,7.459530603828174e-05,0.1706059569653916,-0.02086203184427851,0.02490797357887249,0.025703633815263395,-0.10564768952807727,0.131999152951181,0.08145472285272144,-0.14481696226129753,-0.07108412679050363,0.14581006277333952,-0.05061614503382553,-0.06855467609203929,-0.11759602437214538,0.04072518595368679,-0.15802176025824916,0.11003958783309993,0.059655745751644666,0.006697725058965811,-0.05219093954229162,-0.08220437319939347,-0.04740547650857359,-0.01688515303801888,0.04312172684056257,-0.12869515594319764,0.04910240590671885,0.03593300951893223,-0.04196595072475754,0.12748579805205557,-0.2704708108203723,-0.022641333304103006,0.016122092115331575,-0.07449078808209932,0.05030961219478997,-0.03485020702423526,-0.038227027021492124,0.006958252017911913,0.014876513989581834,0.014573576690486298,0.025983278721097,-0.05240509362555103,0.07890798030959409,-0.10409423865250451,0.23457000253351662,-0.2270582908669156,-0.08880972511725199,0.0372175686765198,-0.06739841884109511,0.01456605043245513,-0.09698417948411996,0.011938154824202227,0.0035753216638306426,-0.06465194166843115,-0.0011402507130265501,0.0691622198382956,-0.022370946395071298,0.054805461591972277,0.026369156762764013,0.017065690856440857,0.04445772250551345,0.043731318972638815,-0.012060407955357531,0.08476910679256432,-0.01521298896353713,0.08075425124064967,0.009575628745688234,0.08223535416538472,0.017429544896805746,0.012142334847777679,-0.04416583139925728
