start,duration,0,1,2,3,4,5,6,7,8,9,10,11,12,13,14,15,16,17,18,19,20,21,22,23,24,25,26,27,28,29,30,31,32,33,34,35,36,37,38,39,40,41,42,43,44,45,46,47,48,49,50,51,52,53,54,55,56,57,58,59,60,61,62,63,64,65,66,67,68,69,70,71,72,73,74,75,76,77,78,79,80,81,82,83,84,85,86,87,88,89,90,91,92,93,94,95,96,97,98,99
36.56610107421875,1.9217987060546875,-130.4728984088638,46.86488001099325,-37.608678065991526,-36.28360858842224,-42.17814597769886,126.86920985013498,43.891726926091714,-221.75257452370278,-194.5321011748914,-29.484148527362915,-24.098732646679117,12.790472373784187,0.9243945556716063,-25.474019823346012,4.2271313681303795,95.55012312430237,64.34920875148315,14.089036942917138,-97.56682771110444,-53.00196750936322,102.34415766298956,42.800322773618234,70.68162418639808,69.94326998308692,68.1963165729019,6.760533330782618,-27.057196903904085,-23.194254809965855,-59.371166746951666,25.274765321260922,56.58324439338535,74.28450779148503,-42.08795674550633,55.77079469000158,21.435313741677696,-11.647781767148292,-18.801949449661695,-25.7986463297076,15.450466435899656,7.586230662826267,-7.547324189393184,-74.83010535827229,-158.40057734464582,-10.624575455058675,1.3472116906159883,-48.435073363153805,-3.8708738447823414,-36.75211792796731,-50.48233571991997,24.966740583817213,-70.33762017288235,-1.8154766609555972,-5.576713169809507,21.637468350805143,-21.664503344666684,9.273591673097775,5.972050653068188,-6.3208116482317696,-6.216094128614725,37.70763533727295,-12.792926913786898,10.440209489003287,4.404987711475298,21.818499651355044,12.755052395331482,-11.376860341724667,-16.907045703055488,-19.04285903990666,-1.814554827515709,7.335657475507932,-10.275239482395236,8.657375433598599,-17.22002552730193,-28.676322600546246,19.460292641287854,11.326590510297214,-4.097512216410436,-9.445601094118626,0.13981353587267709,31.391964346428296,-12.464159235647774,10.883018897572711,-4.5758291681809915,1.3452556024969606,9.960498881597669,-7.441641097458006,4.096579606807498,5.537112559129494,5.715707952583477,-4.851296135778247,20.407192063595414,3.192515233693385,-0.3354506009072321,0.5722153441610969,-19.044220932451488,0.4484668819110138,-1.2288181702300458,-24.16184394903444,-13.470389045674619,-13.164291818392247
38.48789978027344,2.03179931640625,-12.621200532973168,32.24703718087734,-19.80422928791312,5.049363340724162,-20.48223145016037,4.719538522881102,-8.255194134053685,-13.140201758413438,6.516450058000518,10.980225699664366,4.301862305726893,39.59555066661526,9.167931450435445,67.54038583065174,-79.06015954297439,211.5379083765088,-13.479299169855281,27.2297622526888,-106.42325493418818,12.2762001809803,110.46624086126884,16.574459488930334,159.02360333742047,-166.6823350699565,-40.78471945594753,194.06702382478787,-132.3545300171104,78.36906568460718,102.42977474587184,499.95054409976933,178.9849303685555,32.017567185866454,63.96431164948882,-41.02560883476245,-55.75224578871251,60.53163861169045,-105.47896575523416,58.099046760424535,6.3374687351957775,22.792362899036185,31.671338270309857,95.16680951081452,112.24811359709616,-23.778439144372047,35.58166103140644,-80.20423966091113,-55.536034542710816,-97.96149578783675,84.39761098702127,-30.0643188814791,12.607395500728128,33.57347283171692,2.9258570055309594,-7.387547763488524,-17.029541031044108,65.8252244079839,30.87049677087711,95.42739974016385,42.56520276111821,-32.109870222112484,181.38187100241763,12.364064876092279,-174.19373618060388,150.2675178514345,-197.71369490657366,73.43423319970822,36.69309720129673,69.8147364557385,-28.735279841632302,-1.3168180543215438,15.23034937109018,-8.470997405557272,3.5961494882953673,-17.6533270537345,17.38438792714554,-10.241698428211567,32.18615163578615,17.753619777040527,-31.156292389656546,3.2380622852562735,-0.5367627589749637,-17.789309391640924,1.704432353818909,20.29561202846729,-10.993386680962772,15.897831821075819,-15.278281566596949,8.21779426147913,-11.395436634942666,-8.313575782541596,-5.493024940772333,3.5516194883084697,-17.64975617167075,2.0644074004634665,6.632013400210275,7.153554083565515,-4.1213644445150095,2.226435958561364,14.730130754270707,-6.0383289250157794
40.51969909667969,1.8921012878417969,-18.282412708072492,3.170673382231077,5.6285012955095395,-1.5520308506450826,-6.078745947443486,-5.136422632720662,-2.505434900511365,0.3871527881537915,-37.20345037633668,-43.675554461095686,-11.098823280190896,-45.08646558714419,33.81754614780822,9.17953351505893,0.8928715866698074,-11.218867909370653,-97.41387226791544,-49.37320333788152,55.068194042033696,128.74065663041367,115.07970750423131,-120.61239888027964,-221.83962235433364,-123.05170136995034,199.0010648884853,-82.05388352590492,-80.21793920165607,312.45244987532107,-163.43905857016412,-161.95053503624518,320.88914243279953,-223.22484817767446,-25.195475653351025,67.83953171929582,-85.65224946987558,-202.91298220147254,49.760890465062666,147.06854563364644,-10.491314013936961,40.39262579461445,178.40797561655643,-67.77869773281216,-6.788586823335928,74.91254379455954,3.01997457761561,51.70285680311518,10.160712532804883,-17.66851936616007,-10.980878833891964,94.99568313094854,-106.65375590556143,-96.47895377093444,23.551324157616538,41.99561963922846,-65.93016263023358,-101.68800890598017,-320.00935115033246,88.78465671742606,-192.61775468256633,128.04649021748293,14.434971126446268,6.869299501770628,-30.968366469891706,135.16968115357807,10.127490948654257,66.95925110978195,-30.112272592237378,6.41290793725662,3.012255662042012,24.429280340803636,4.556397486163589,-16.241156795824484,-34.41137953928938,18.870869961795414,-22.174559793258133,-3.890727072127995,-0.49225061986466556,-2.0779192325612854,-6.066057073487933,-19.93247758847513,-8.269609092501376,2.129430855941491,14.645340754478642,-31.41592042635077,-1.0289757404718607,-1.3335838951305872,-10.841319524446753,-2.3303674702143464,1.2278926976109434,-7.754932210817632,-0.8022178202598063,-0.692743037071551,-3.2358722866931955,3.908246896658397,6.661100444361861,3.4099519517825727,2.0871662355832825,-9.461164617595864,24.20825335958403,-9.627632392499626
42.411800384521484,0.6208000183105469,-17.260594114793186,0.12705382704314294,29.935049889440673,34.61212826375866,77.58328911490851,-87.50233693370208,78.85524531370164,168.38986828813478,-62.85720560396739,-16.343424818900672,91.32182179075527,-74.48488045894966,14.54658276076741,57.60786130089914,-19.243895913597953,12.428057776536875,-216.08639347749812,8.864340246664284,-21.978329099329713,125.21608850522068,5.98643090103505,152.19399902127213,86.62011050290121,-328.0318872967844,1.8309926033471093,-211.4628947279749,39.007502945153426,-276.7714893832238,-79.09673584796373,165.05296010888844,31.0897277877022,-65.85845309904586,-55.0726487169813,-80.1224612405651,36.9352467882167,-37.77370457050709,-26.84799442297628,-23.881730216956253,2.237961476104097,-207.15780513610264,148.92521686123962,4.216067746845325,5.492360316115363,64.2276627295065,18.346279926600438,11.26721507912555,-38.347910832845926,18.469959366403913,21.149871074171806,-120.25393075845274,45.13462191504157,30.89826760112652,44.74014181095773,-143.4907888350136,103.32043239494332,-90.660430479306,35.45528056687976,75.88117457596573,155.36643423326257,-17.277267696200187,63.08606178998872,45.930107566028006,8.942260154440712,78.15330092983562,5.752077187424575,-11.602030280102582,16.005971702642377,49.99628691454925,-1.7406069521368135,-26.981665796830676,-6.042963026993,-14.438613129307651,-13.318373850517336,11.58420233088772,10.574910644335603,12.041310853204315,11.183254642693628,-14.187883008241588,-22.46196156280414,-33.00191154472912,13.756520735031943,-14.656667205716886,7.391822374709985,-16.24857967564962,6.3926978815878215,-19.108198606949795,-8.511807237068972,7.0503699234261745,-0.2502401419810494,7.25517610678971,5.658095830544398,-2.509209074843197,-2.5845028442555114,-0.1942190873454854,-11.170056231403239,-4.653825758912032,1.949771357188711,-31.020204210027487,-22.633957103835474,1.5970170383724156
43.03260040283203,1.3614006042480469,2.4433438471540203,3.864605342329069,-11.39130520361026,11.756506657004644,-4.439899883977196,7.378234847537925,-0.4811496541995248,-20.74153203964875,31.57069962481461,10.063753286603351,-30.37318694692385,43.360502332551384,174.58492699321545,-201.24762791864146,71.6379559571968,-60.55357242870718,65.96176663577815,-118.65441935714948,110.05384352044078,-96.20754521522092,99.89717633683877,-29.16198728906378,44.994080926205484,44.66944279246164,-56.152752458882006,50.120478212434946,-30.373140885685345,-13.351809435072598,42.24644174006983,31.126286096837617,-131.98610611692553,108.64639197297339,-10.0871127200422,-31.82514426399745,-24.38807235575407,50.03388345526433,-35.396703298184185,19.401315533597888,-9.966484737287548,29.82359130913621,-32.41043139437883,-2.4381093616885794,62.44064052822607,47.12406103668896,150.95920493508578,-41.92985456260731,124.43016392511146,-6.141632509584966,113.60978333642724,-108.30117933275294,34.05972304345358,180.76007182586696,-261.6893691621763,88.54462531497681,-95.74591668645355,98.76352343993146,-165.80001944143945,-54.761282005236424,306.9890639044539,-184.58771806325643,105.22180052395814,202.32817492736575,-314.82043114310807,338.024796469729,-136.57378067045144,-11.303607981133474,33.44356650342523,70.187967104664,-139.7957132263906,76.67187279886637,69.24681504034854,-61.37777617899248,156.62150258579388,-433.8783817224512,422.84141976477395,-458.067731074078,112.28164344761115,-140.8761845619638,180.95134330535203,-202.1721416924297,235.65721458957876,-239.7882262094875,178.6730529428454,-76.77697903509882,169.59626527845708,130.24103405850735,-152.82765622175262,93.58237098663139,-31.09395042298842,-15.444173049114944,64.16686553101816,-93.98236916490717,199.4361952373242,-303.33538289580906,134.0832233726564,100.705641920532,-105.66480814066885,72.63392462824713,71.15922711462463,-43.57327134821537
44.39400100708008,1.9511985778808594,-70.29851718725732,-240.00979586147787,-15.760656308134482,-12.523699077961147,-10.980415634850232,-171.26042127763296,38.170400024712364,-6.514906464676319,-52.29751319759905,74.92896745910316,28.087658957087353,-32.77997483145252,5.230758891604239,-40.89830527960449,-189.02531663730522,-99.36132424985243,-4.045478675844469,-51.67047890733218,-87.88390067430163,44.40604310054272,110.0585022326709,22.48173145496144,-4.036264617584443,-34.39771181420187,24.34561363402861,-73.8710317276836,-41.72358602133391,-32.509899142788214,-53.56879923010826,-144.7525221159203,-71.98435498499657,45.304225443803325,-53.997102455804196,-109.77810888436098,-103.74960690808487,56.35920982507304,116.18524855566785,-45.099711182812015,-79.3885950154696,-59.2595566447906,-59.13013405264917,1.823895724682353,5.9497538825071015,116.12340117197712,17.41002939158814,-75.60437374389991,34.316108815376694,-37.034614868008276,45.34980959533577,61.39814056666464,12.576040718687103,9.194835084776491,2.6494369137468277,-10.554108303745483,-11.60131359618794,-13.05576590398169,0.8546588273826088,-4.536500184089227,25.659833278460134,37.6450930480901,38.04747663937587,9.890096712082928,19.35706128581668,-9.916171341680503,15.60906209646984,-15.424111398271508,-25.82947305250657,11.346073636748994,-14.451093728695998,-15.003610890750382,-14.17098507370722,-1.2000020164160068,-24.307986979949096,29.95278990900007,-6.345810380112789,27.420508606298636,-17.38133549682937,19.46302204241434,9.161647243450137,17.776576112859523,-6.006298402660822,5.689441051920028,-0.04681374107141456,15.04634670205438,4.379207333081779,9.26492018843317,5.0777758442818035,10.455730556608708,-16.392584984250814,16.619945934723546,-2.0969626618685853,6.481276187221349,3.5939740828378715,28.61715739686881,6.099589652257559,8.889320435117117,-2.310819024013571,-35.03972996111073,-3.0508016264161846,15.462575766267777
46.34519958496094,2.0027008056640625,14.085855887208595,1.2039139306871915,-22.957807654141877,-3.6510484870379862,3.981718304316648,-1.4413581777614635,18.156833095606316,-2.504904008571325,-18.098857321378762,-26.479584413300273,30.08574138356514,-4.71994391190972,116.62189200437848,41.58468988995374,19.34810494572985,-72.36233426753591,-54.70041451530244,148.86746004853967,87.28734504112934,171.4357370793559,-295.9736200095198,-156.17285029803384,-66.5641969594257,-51.969372053157,-45.01881460079868,-226.2342213931297,208.40255170403796,396.4707410061043,-0.4426694627982499,115.0057520029759,126.81542161735914,-92.54027516817325,367.548589311324,-300.45508972217164,202.46325895255492,1.0726886736854295,-86.93668637262616,82.29922939048957,152.4617122301664,91.481833393466,98.01147998467539,0.46733180912825745,19.75875310627816,-37.82802889133524,-31.488625109274164,32.47788863050195,95.13658712413574,-38.31760903916832,-11.350585139190045,4.496834819956966,-39.73325852439081,-7.21709524116856,29.341677055251566,86.14742412779817,-79.41358304738071,-15.43325141604101,8.673115555626225,28.3614837597582,-65.69788160222333,-59.9525323383624,-4.623453181754357,-8.911336569339554,26.899190054342807,-127.89858187875798,62.228987839892724,-126.23651356889292,12.054067560382052,40.92014227047036,-6.720491051204888,0.8431505688928427,-3.9114101072898455,-2.5210406839626,11.525828535609536,-12.433755479373866,-7.418481243239723,5.306341060440684,19.926801834813627,22.823379440461885,-26.7033110498715,7.9391977100230395,-10.255086280636807,-49.00083797989619,8.31196116267663,-31.386516089123187,9.574324267209743,-5.728548157187512,0.6570599240093646,-16.84562196448033,-16.342670527579916,-23.097416647912905,2.9220747857649965,11.169266024588387,-3.152836426377852,18.160482036848435,2.0941610369528516,0.69447889484276,14.234605254159643,1.0965961515655416,-4.088248584004184,-18.77995786510367
48.347900390625,1.9516983032226562,-20.981424315685405,16.424960346916194,-9.935640458817812,-5.615930879035607,9.57691256447566,17.23023835581391,9.940623561701933,-11.109062236983215,4.033644433367246,21.045717204752552,7.892822721520273,-41.76443296677511,108.07789056961562,-150.89507347220498,77.26363740850356,-38.320193146357774,-21.732095994747638,-58.72592830345111,-198.74729842935332,75.76635165096445,162.8695948139988,162.4194606790396,-9.744017433430713,109.27505470206314,318.29659792585323,-7.107260297369276,-146.34316480114677,-5.4931404000032344,110.47538813843788,-258.8784249328811,-198.08819932509573,387.11457688982404,-167.92946638254128,-237.6244224885706,-176.49083998183212,-77.31506841313976,26.641405911419415,17.968923815585413,116.27069483044427,103.45602227512441,60.79839983327047,-3.2522428738523175,-11.623603449869618,80.84663867536307,-83.5080247926501,-20.923359353093563,-77.37934556374958,44.37314286737893,12.622646268213813,9.677144979937154,60.202292295920245,4.937175273995635,-51.92904196639473,26.380753794354458,-29.33340961603974,56.0297481092421,135.52303369492915,-41.994625853265575,102.13885827758013,-52.76360514818874,159.09908190646632,6.058105931785894,136.5820352510881,-66.28219083507658,-100.4861490675564,2.561888171636514,-21.85537816473374,-14.796462370407736,8.282566962690574,38.66008974310337,-22.6465192497298,-5.4413110998232295,-47.79166100714993,1.5426619354894648,-25.262499880909125,32.966708195366955,-32.40182740324115,4.679802625571672,-26.102899849969777,-2.1383669874718163,2.287649360164012,0.17357209176211974,-25.006495918180345,22.612054628432794,-13.306319739859735,24.544020860646896,-2.200782323162672,-7.175256927481898,2.526743796631142,-11.70244894518811,-1.9572400048529948,-3.344343130225755,1.9362158128768194,-7.3711466063501145,-4.336113044617679,19.73008761342762,10.500150352091904,5.243419388065845,-32.194983479816464,-54.70776216463691
50.299598693847656,2.2019004821777344,-49.87727470147286,-15.237536895538067,36.442808984188986,-3.4700222124692455,-5.314188464816686,53.80822664024913,-29.41072720749225,4.100134912755539,6.789239873643099,-87.48051293025456,-43.39122387069263,166.16298893116235,-33.16004846879641,101.99653058678895,-56.39740950666734,97.15754556698684,6.994949412525079,-88.3629949741553,79.57686707402718,-0.015586424313234204,79.368895965077,-142.2926134781457,165.61307647469604,88.13768819121634,19.82878039775191,-80.90369261769662,-262.20347449669316,10.568553341249238,136.18694141642783,123.78535716607,260.3086729439866,-88.56601122547427,-4.92019315725056,91.43536038184683,-130.61177634546368,-68.22783195495495,28.640084285519258,-175.45610258824158,-14.325998256358567,-138.7915571138431,-110.63247835858068,26.826567571967665,71.4971707638041,56.51002128623611,7.860900011413392,-28.926351109103052,3.7532712408658426,21.878256626112634,84.2883936165754,100.77669311078827,-76.88494376003618,-21.340795836194513,-19.722793905270997,12.973722070771426,54.93572654394518,67.38522053579571,-32.75322815973976,8.249802384979548,-0.4382023906871977,-2.548267992957559,-160.4734600665025,-96.85664787005348,15.125102312451144,18.219507362200524,12.737487648915328,8.322354274494272,-17.91895214671313,24.4314598248114,19.102803676975174,-6.315359210310534,7.906738509969703,24.459239895638195,-10.289701110215205,7.659502386625849,-3.0897764836661525,0.16180107808359434,6.258542695529553,3.049279834618129,26.703282586118853,2.4686043462827563,22.285378008514947,44.715752185302705,9.19268671705492,-22.435509066489473,6.199560701950694,-17.06532787038887,-30.495432664359598,8.008504226751224,-2.482891681062616,-1.0406448543463496,1.1739904464805742,-10.720960196890925,-12.603385569241523,1.7224822349767916,-6.03970384669665,-1.9814750910639816,8.050439163058273,-10.444876522411256,-11.341279042225096,-3.2686336527179094
