start,duration,0,1,2,3,4,5,6,7,8,9,10,11,12,13,14,15,16,17,18,19,20,21,22,23,24,25,26,27,28,29,30,31,32,33,34,35,36,37,38,39,40,41,42,43,44,45,46,47,48,49,50,51,52,53,54,55,56,57,58,59,60,61,62,63,64,65,66,67,68,69,70,71,72,73,74,75,76,77,78,79,80,81,82,83,84,85,86,87,88,89,90,91,92,93,94,95,96,97,98,99
96.8949966430664,1.6825027465820312,-552.6971101428513,-220.76612543188506,-101.43710072813136,-29.097369801421507,-79.63668717383868,-161.35090468202924,-240.6111198322257,-413.7794436411575,208.96418333538173,-288.6543054258734,-178.11823098879444,-48.46855188115842,-559.9953264476546,-71.75719513602228,-210.9624059076652,412.3577026429044,236.8848164326585,-471.5273143454081,39.78272053146577,-33.73515633632581,78.92513509686069,-242.4617227928209,35.55620110547659,-146.20146776757358,56.043944021368816,-401.6425724424029,79.36298072312391,119.59469964084023,-500.709211769866,-242.56685933439658,247.65439695890163,-111.80323404364768,20.43795003334253,-50.82271043053383,-178.3563302671941,120.99318486211013,-91.22137789414487,16.39698456556806,194.34190723956107,174.68470750377946,1.2344614106388576,-40.890466754126706,329.98331766574074,325.64827748692386,715.640670505504,362.5488169049189,211.26534099446326,937.9349418194972,773.1283732783228,703.5231012614197,630.0520258595137,1105.3527835455884,1207.406365923553,559.4054336472691,1177.5220357957683,1350.4713241095294,1651.086276318731,2106.5106088560833,2089.216144569693,2945.04669067998,2811.3168150480788,2197.4655991276964,2601.3525965939943,2738.457107195956,2995.9146446202803,2552.523556174511,3400.2771651668895,2859.451769873747,3589.1116969867726,4637.735415865267,5161.809986079711,4732.953813109242,3570.2274732621754,3777.9404028252675,1724.92014752407,1380.120164889243,1345.5056474599435,1476.0600748648474,1389.3827039631444,1533.8848162471234,1190.9932916635776,1205.0553887851738,1561.5208496562304,927.020524905169,1001.1871249790512,1481.2366858612866,1754.4207135746421,1219.801253209275,1490.5471977059146,1153.1444847308471,1380.3422262627867,1091.9790629848762,3854.7926384971124,2234.5206981971533,3095.5717026982556,2005.5557434500781,2126.8436448890684,-684.49654246952,4260.286791287023,4003.528518261308
98.57749938964844,1.5923004150390625,532.7053559000542,566.9446959325809,-1304.7027258302473,-1854.4521517662224,2787.017846698317,-148.04541298491054,-130.46431580009948,2223.21448633559,-435.5947725605856,-1486.8539953973752,-2524.9605579757963,-8.854066030800468,-737.8098713604835,-39.85642292764487,3580.8386347178816,-12.723979308641105,-464.45798396588,2278.6967508902844,-254.34444662131676,-1951.0048171327392,-1625.8464014081962,-507.8812339227892,-764.4366567166771,1610.2717447937232,3447.452676146565,-298.7140868590833,-1428.648746908413,-2.687040931379215,-253.7794013104067,-960.473584150547,-1349.7350433229637,325.28506733552956,-350.55061334441734,1607.6575729066553,3678.222910078078,-379.0392509153093,-1377.001842771058,-1231.0885269992748,174.4917294508316,-814.3910240897161,-1095.0380889782634,1310.9345614996848,-515.5834214628605,255.17018051235527,2739.5926147039063,-360.32671911266664,-1774.3225934914112,-2049.884647217786,-100.12281759117722,-964.0324266030602,-664.4000592277646,3115.9252298818055,-793.5627867207202,-750.5680865908097,2317.75726413126,-30.557092103446426,-1198.1430689109807,-1768.3786098376152,357.47526737988466,-216.61915373414314,1177.14560321622,3418.161489528189,-1050.5398865428947,-1725.3452458148663,1267.2851266608027,473.3455330467906,-1625.01139940308,-2021.0005162786654,-8.75753476769546,-749.199993369384,1670.3729447967771,3856.456797027148,396.47420253944364,-1479.086984285751,-1613.1461153434348,-22.877753888072107,-1124.557518572035,-3420.666051598585,1302.069244464824,-391.73628200478686,776.0333564010377,3626.0779889434966,90.9561131292001,-412.4727058573195,-1021.3843773445957,-735.8343514351058,-500.1037910024535,-355.5437487958511,1226.7023991273213,15.197112368679399,142.22200622365335,702.4975134157513,-665.6849749367059,-1458.1435745256908,-1083.0887690168934,916.1459012935525,2002.7351748891315,842.4551062062819,1356.469368062802,-431.01451577360604
100.1697998046875,1.6223983764648438,-158.3736143271737,738.0834033391772,3015.7177230875795,-1044.2040337099472,-2341.1544768500366,-265.9487676217558,-2000.6896773811725,4591.274232475341,-852.1036166766899,-1384.3712961672961,-65.06553399897906,-1968.8273530262118,2169.451926275398,-833.2010466464423,894.8767368812859,326.68735816665213,-1269.2867438638445,-1535.8623861806523,-213.0828733913993,678.4719861265198,3187.193227880713,-565.5672800323566,-2512.51222634496,-9.429931031986612,-934.6921938161572,4611.454485133967,-680.3561813596115,-1415.2209851109967,-12.26794410448315,-1080.4782525293942,1755.966130140922,-281.53603237859187,1451.3825311764404,1064.392732795531,-937.3085361470115,-1506.478255706494,-423.29158495070556,157.45622227244803,2799.2171970342433,-579.6971908406763,-1778.685283400188,-264.48126578756495,-736.5022565458398,1921.92503359719,-206.72328138128185,-490.54317496532383,-80.30682888883473,-535.1269975582404,1076.0783471486543,-377.7674335982522,1495.677963926583,639.6185541095994,-1210.516443687809,-1163.418544657761,166.85748291579105,-31.33362286077113,2350.4543063539186,-695.521633102436,-1582.159187406103,-202.52741355656627,-1283.6277794475072,3512.867437262457,-1054.0437819037254,-508.54177188972903,64.03128110032873,-1429.960475780765,1612.0074587266977,-621.4537199801254,2431.1160512592314,527.7218867342228,-1132.2075138368305,-566.0495288993307,87.9138866196752,-167.24074298962978,3106.5829372649323,-767.7340745532708,-2202.3500568092168,507.8270333558017,-1981.4748698991082,3444.1176314958484,-298.0644620634638,-1436.9943970998256,-662.9231562549296,-3630.874823453773,17.099308415904716,-531.8886443994678,369.531976869472,417.1457378806509,-381.9206612090119,-1072.8481137682236,-264.8991314337693,161.33200978959172,1963.564900255913,-18.611628812698864,-592.8943673911981,629.9299718074337,-960.5513425984992,1708.5465927266982,-2221.1284439510923,-821.2808425288965
101.79219818115234,0.6511001586914062,2526.6178007538897,1031.6271005089304,-3548.540881054647,-701.83808370592,400.9711937758366,-1387.577703865279,-2789.4599471713004,-421.60504864760765,-1585.8502359278637,1591.771224262533,506.4249913200477,-516.213837326615,1472.3354858355256,-43.9026106753558,-145.7963824302069,1773.4188721209189,-704.5877903760422,-1725.6191528494735,-756.8523568448607,-1176.3418714179768,-1665.068651761445,58.26789349014312,-1611.2151716103183,1898.6837814133314,-318.74615328020604,1647.3191361291035,3881.337177565228,-490.1572588966559,516.2698201845069,926.0114749592934,-1095.2089894306632,-1892.8543490093623,67.10642962108034,-1228.8879459364773,-958.4928011775922,-186.3172209946521,-583.2871985491504,2079.889017109784,-186.06677651960507,469.86151708958255,3338.5510951013057,-537.981151214164,182.98869507059862,626.4414649436178,-894.224670639944,-1636.9672079144802,5.1605458212995,-886.5172151959615,-280.0391675712481,-610.5060267552586,-953.8629899576595,3423.826495350705,-777.8340089120752,1364.209224104532,2050.638312434433,-40.50993630437483,-495.9158314797403,-69.17906728646037,-652.4177482447319,-2515.4300586348186,-94.55653458723384,-1285.1451012051868,1009.4931915278607,-580.4036904494455,470.92212596111733,3483.0655374506314,-449.41366437404804,1370.880160836645,1302.0736044748098,-770.6880176111563,-1709.6714092041334,521.0095391030127,-1631.7265264223859,-2061.833787987666,-682.12369140618,-2094.11908518496,3346.9142516316397,1380.3751360777765,-1185.8342715189801,4757.071155104871,-9.03472302438044,1558.747148441334,406.71732547844584,-239.8764608177103,-1025.3949553104035,69.09806595677682,-217.8350107490208,-210.78254036282118,-235.4436797057176,-671.8728153515156,681.0157770199352,-511.89058902847256,-1344.3953513722206,1392.9123366939516,-73.4927352613584,769.8158595010358,1805.2211434097871,-441.44874687288006,-6397.580667092812,499.89965221870557
102.44329833984375,1.03179931640625,476.0029587698348,252.82662764183254,-3059.735599004813,128.4128146930533,-217.9653575581046,-3351.477423664118,126.91474336904349,-1842.4760211839894,-2653.0635387843126,-572.7278484782273,-1686.7087137384585,-1665.9787444652666,57.04052901391228,-2286.450852879013,591.385797103489,-207.52897050446728,-2578.082689977403,2196.06429076315,59.18052260242173,-1397.62594373076,3239.8679602912457,-41.752314939244684,43.85457468071286,3778.0759706196177,104.5514767830042,-75.65858457368432,3357.9649437296403,-704.4057012429046,1212.531838533653,3129.6392837449157,-735.665758853605,1500.7892115176094,2515.5871826743287,-339.093154709487,890.4437085083548,1385.5591944443509,-1540.4800459222372,-1439.8775522466624,679.0716401212758,-878.4615557240738,-1629.630618075254,142.7137774360423,-1499.051240167786,-2195.9434664284545,-136.4061702107486,-1618.5880753355805,-2498.5606117578573,21.97860533046157,-1550.1283037841367,-2396.901523734126,320.3531810477791,-1618.380781710426,-1456.344587503793,-261.89599592462434,-1403.9281698895845,-307.1866050078884,-304.0064972864272,-1509.8747574107542,1295.866296996202,-34.37550075858963,-2098.241058764055,2796.831355219467,-353.0439392676586,-237.06586316102698,3762.017837408304,-623.4332626026744,196.91589819726659,3643.4322916582673,-459.25247566285344,1423.591164677119,3795.693838231795,-242.41759771758956,1725.4624836522505,2727.68137647353,-1038.919255097643,585.2278259874643,1839.9754908410728,-582.90043311239,53.37055848200998,923.8140019863783,-983.4600227828272,-1871.9604386788287,40.56914844732438,-1034.8074050344587,-1567.3060548123462,302.034841477073,-1533.2280906970495,-1527.7847386030799,-16.84189014818098,-1111.994137453545,-1467.4745238837465,265.67472403927707,-1737.6042891454795,-1077.3196805491325,-320.7320930651075,-978.7046963172999,-196.31750732792807,-300.3458671450801,-1010.2395229256624,639.2971672475094
103.47509765625,1.6023025512695312,-1674.8086890580353,-1798.277440766879,-1397.8369838650137,-82.73589046516531,1546.9167565521589,58.67824488408405,-1179.7452849847264,-1633.7309690602478,-1147.408633549464,-1179.6815297026155,-798.9972575160637,-1072.6951337151202,-186.50594204877217,-8.6538731749947,-376.5200203384043,146.83490029340726,587.163549841925,318.384869316831,1460.8330960675964,2419.7998448468998,4046.744696244067,2511.3574239705385,108.60305735033717,-1658.6487421340253,-1756.6666880859273,-2009.9939137350996,-62.54352069436527,1304.5953193033474,-409.041695577035,-1776.6786114338083,-1638.2695212667754,-756.4782332165006,-753.3992079532326,-1078.6104647124655,-697.9970331522704,-408.4159865903506,-292.2395456205795,-503.8207037025064,-339.5918563055251,709.0805606626886,-132.89186372190443,1961.2666095877512,3108.769474317901,3914.167813642549,2500.1575329796096,-847.3478065727274,-2055.7513458803064,-1474.4105190009618,-806.5779847432451,1038.1408014826538,2332.654828867485,-411.98826760407496,-1515.1538740109168,-1479.4944270258766,-1586.0788812002845,-1582.74081611867,-506.135008313949,-787.6167582222764,-668.1661429054152,204.95956020622043,344.688746662825,-681.8684101602321,759.2084497459687,103.65631368569376,2793.366906049958,3853.1450007210947,3967.955234747303,1362.57902772639,-1382.1078804460021,-3138.5048472088074,-3163.358632653826,-402.81247684496157,-378.2313844397722,-260.67682309224335,-98.205485059604,188.60490002626995,-327.99192478772557,-489.0200835817727,-366.8050206536687,-115.2733156767609,-144.72579928126697,-147.0875669710873,-132.22824647550874,-171.63188036839756,94.79489442875722,-134.36150235298896,891.1820449137082,1158.599370330494,2105.8036976713647,1634.522750317815,-119.06249551886208,-1145.749767263553,-2335.7443116771374,183.57437094260627,1643.798122414846,2380.9123919269077,134.09986778998336,-1581.0897797633854,-3436.996569479966,-2666.7698184995115
105.07740020751953,0.720703125,-1956.676290819476,-2389.119126964354,850.2586487286441,-2556.157794368915,4958.448594116027,-969.3010068259651,-118.31933184851346,695.1998904173868,-1450.6292634976257,-592.3548375211146,-561.4023165574421,-10.047034887809673,3343.194375366762,-717.3994703564601,-1108.1653228938071,-534.3734894727643,-2280.252989428131,164.37225824584516,-537.1111681109309,526.6664328203069,2407.664706634468,-973.573245026252,-2056.0310566293465,398.664249494671,-1280.6586327571972,1699.66281762948,-281.6246165160799,1507.3949744967865,1546.0239143612969,-477.35832649592015,-2093.4560338350025,139.98733667424636,-977.0461226764244,3225.450746332543,-237.84574179744146,1110.1914771343338,294.7219398988264,-1328.3020674740164,-1783.4682833661964,-61.08326523369473,-879.0579557301942,2599.070428840309,-519.3485174044799,-315.5955711868873,420.81408645405133,-1114.4440901602272,-1216.4208076443165,-394.2967558852265,-242.1423793352053,3537.7385611907525,-540.4919275456347,-1656.4564186331181,-213.63922451805593,-1078.6254752567131,1159.5419460646385,130.94849532161544,1060.8657546195318,2470.532864807656,-351.1361000311874,-2322.6762488276413,57.25689682294063,-1454.8566037260005,2408.544424602577,-839.0551087649835,1499.8053008509344,1575.5878978908029,-1629.5066073674227,-2170.944754266347,20.493485594814103,-1802.7501682696015,3446.598385581262,117.93797300752925,-252.97940540019772,-134.72798364199366,-1106.886264154585,-1993.0577321004805,-55.98870668671194,-747.5969511901326,4040.153753054571,125.11922204834411,-263.3928026166892,-184.74766155278058,-2575.315142743892,-792.0335272723012,-372.1371652552483,-360.59118323057874,1582.7082451520928,68.79123601412697,-362.5891366708909,164.00510969465506,-552.2519224501389,-107.21748174349887,-50.0725779021852,287.1231111963961,947.7166192588402,-399.19522088700865,184.50294598213,357.698343782222,-2076.9274455507875,969.7692431383266
105.79810333251953,0.90179443359375,962.3894846026851,431.5560156112251,-1026.353795250824,3781.47779071277,2060.905713592376,-354.0116014874648,-1948.3593900906696,-2292.526854710998,2272.788732887708,-1551.2056257555225,-1881.477852677571,-2604.644902146582,877.8082433427777,-644.5889058433644,1243.8446603914604,4129.43494721038,416.33632794806385,-2001.7650970001787,-755.2382835834899,3268.3053766842077,154.17565634149219,-2398.8464316227655,-2081.124962706599,-322.73623613220116,-559.8426881350788,1893.3442049870023,2659.1609129713456,-387.08843054603267,-1058.528738596964,-1031.5822068574425,3836.640522639757,-580.7043562766169,-1862.0739828171015,-2678.255432482413,-41.09358027534151,-1035.8247677390686,-1089.9037686127363,1347.1021252295423,288.9537223729222,-1014.5769337363442,407.3551731335816,4123.685348922923,78.91108804226299,-1709.3490228277067,-2143.5202520359085,688.2620418588976,-584.2326726287849,-1137.7418061191606,120.73178751454577,-73.85023782253182,-1688.3668357937868,2370.3573907084156,4230.573711996249,470.05155038242106,-1517.2745656497866,-2024.084156945248,1755.0629857355018,-131.48358815028143,-964.3275130177528,-2161.1487758315934,-200.07789514443505,-1258.537250662512,1515.5631383601744,3547.9368940095405,3.357055293349788,-1721.6813503628941,-2141.1314719565785,3080.66687747173,-388.8549256014595,-1616.6456593359844,-2225.4359574655987,389.60399641373607,-1254.5888032462801,1720.4902760941807,2897.611596111744,-401.8393606722796,-1158.9539673841657,-1016.9276514392325,4146.577957008711,-286.4255788104888,-1764.882154820797,-1831.7672312705122,364.2970423507384,-556.5736562742252,574.8308769188463,1706.5637165601172,250.64611296483488,-1270.635985139835,-655.3657786936191,3764.0692722622016,104.31138422237714,-1324.5719714185502,-2949.6940370701236,644.4675275831587,-272.5576517621032,-992.5960598392783,617.7275052155071,406.92514233005045,-1068.0936417648618,1883.4481903931865
106.69989776611328,0.6010055541992188,1050.9936717027772,-1284.1471418380252,-1722.2573008390234,1726.3168670590637,3447.2811358550002,814.2540245584387,-74.12086537714949,63.394575277770905,-570.9711728199292,-550.2016362934278,-1388.2266420428855,-686.1709991921508,1522.3656851107305,-1630.6553625485903,-41.01091095888387,3139.6722572507265,1470.853017455132,-20.71696569485652,351.683683932597,-839.574000778022,-494.4083340348163,-915.4173118942787,-1223.4948830816897,1032.0254412497998,-820.1726425698564,-1954.0146255680197,2453.211216718524,3494.7803062199246,439.0456865968275,27.13593743181596,-627.9958051465326,-906.342611709339,-1063.3381642002478,-1341.768481888605,-129.37484353782645,462.28723055431317,-2263.0308751182542,214.5015334755244,3865.8132705106277,1680.1835050941406,561.6320962801078,-773.9030116461535,-348.13102323490955,-599.4018356326536,-1769.5558351108573,-1299.2189635639656,1856.1344972829595,-1333.4496392712301,-1690.634812836077,2336.1818953807933,3957.46662365286,149.75863731874597,461.79694630234906,-338.3323462815781,-315.736198776567,-467.50138398004424,-1316.6860812901393,477.5665092606489,1044.5259527202502,-2079.3699358481194,169.33027256082096,5016.878892029946,1828.9606410241367,-142.9086990959829,-464.4596352984758,-898.1318925660782,-1010.0639165120572,-1295.6846538071668,-1400.7988930958977,1198.7609534267172,-420.91807632915766,-2015.6546010908448,404.1769519758711,1659.6906034742674,-271.6293387367834,169.10827538526792,-469.91926106268113,-103.20948621694157,-385.53003685247904,-230.6068912707399,-33.29076669553319,-60.78544597458426,-661.0665693097584,662.7255568034029,1407.2645581083684,1632.8204630286732,-580.0223028171378,211.27390082917339,-793.7976480220183,-312.3590942959948,-987.5214807448909,-904.8151992053097,2991.0263301643686,2331.6498221628494,-2507.4796385269956,4902.436345264038,-431.48807747102364,-1256.5897705054035,1484.5067697912475,-1479.7902291624769
107.3009033203125,1.0114974975585938,-1391.0979206834959,1619.134015612195,2632.6844710172727,-2459.147806969732,-1340.1197710387885,-743.1970393857874,-1662.8312161751883,4857.449862232939,-1294.5236694087105,-1941.095376195376,138.16395202958583,-1620.7580831371956,4516.357438673133,-950.9100665395047,-967.7928960432544,-252.12484942626438,-1376.0045643773037,2043.5851461283569,505.32476541115,1672.1262738430094,1184.4027108008672,-1157.0355624771416,265.1834567365156,-419.2542264665666,341.38880835429825,1457.6706631298814,-987.4582505487247,-2244.803423077911,-16.541511400884513,-634.1577835958292,2591.838831271984,-934.4427730522182,-2364.0792230936904,167.44990563644473,-1787.348873306059,3975.8084331668497,-567.8947305174659,-1562.7124507673295,-72.31211669549809,-1736.226054344317,2482.0678621552725,-275.02392835212834,787.2110973061203,1046.5128698200997,-1521.8069907265517,957.9093959534865,15.486324883360918,1621.4134361892918,938.0365017773089,-1063.6430743680041,-1352.653591258917,-252.64993378816894,393.4539893420306,2162.6233606613337,-319.3598168418365,-2686.7709086381296,-422.61056483871073,-1143.1704904016967,3181.708658846033,-777.3712274114243,-1924.3702161487709,-184.60143734183788,-1444.8237534860373,3348.1113375912937,-863.6512793094956,-878.4433552358237,59.75511168353766,-1283.8732810270483,1981.0767121165857,-465.6170148561198,1533.0075058777597,-264.955499662742,-1115.2483241359168,-712.4774591863131,-114.23616808592588,859.459433781043,1937.631408066311,-1126.2031335974107,-1878.267854162265,-132.7399828475492,-1069.6864649154058,3224.644151026163,-409.10206325880915,-2223.716743195078,-18.906084091656084,-1166.2396517664315,2956.6774507100354,-645.9652974520973,-1297.7026261521576,397.93639622146725,-1233.773998419536,2066.619510630188,-161.05957782503367,323.82111346663703,-50.74491455145693,-738.7743427290013,494.3260149924688,-80.45540554671902,1535.3101044693487,298.351942384621
108.3124008178711,1.4922027587890625,2143.9001965500765,2200.0628619742256,2001.7474147699036,1775.2959906015608,1153.0190265012184,406.7519917359514,-258.44770792837085,-786.797148622023,-1190.6248059709872,-1254.4465826002713,-1282.8666670365146,-1287.621067057346,-871.0194797653864,-677.5934092339049,842.7309775074275,1433.558791528388,1312.7611765642337,-244.8791718982451,-399.3658006972455,-1503.3547500601355,-1475.7502697718205,-1111.715692100104,-1460.3878493954153,-1326.500198592617,-856.7151396871585,-1239.412360359611,-998.0126444826317,-527.6810658459276,-862.6366093357882,123.10855853574701,24.724604086588656,128.60237360931103,3.7113765165273804,-145.71647958182822,39.14657289480491,147.81899078118843,180.7209640474843,-18.018644651216746,-50.30183690447154,407.29418013974293,288.0315133985661,483.1812351006979,1834.732578824674,2695.5883445885484,3133.4729315364953,3671.3817603440834,2543.8489870557805,2616.7204636705696,1619.4984120215554,170.63225339089922,-711.6450075005891,-2475.625122599631,-2048.1332936757467,-2120.4886395696244,-1193.240458214087,-1706.4550309712936,-61.71876564276613,2137.68386811465,1800.2793960706404,2040.4972372399584,-67.79687707704541,-1266.0290215088821,-2914.3222016876207,-2787.782010838222,-1405.1530519044968,-1597.3719623190418,-1548.905395483922,-829.4552798566953,-1222.6322483137442,783.5761219190922,-1068.7902378221609,-111.40989470419663,-94.30306475557585,-208.649953098713,73.73312953125044,-121.76596832416861,-199.41137184371635,494.6334985305468,-229.08434204886578,-196.88222586790428,31.143815336885893,171.25049785182532,-94.56676948008155,-135.13388102505346,907.0605409829938,822.9901942290649,1110.0612073712991,1041.0985881078425,2776.1661159687483,2099.676235088837,2057.2182064963645,678.6867974174365,-13.45135179958288,-2139.684601461254,-1603.6422305707124,-3622.357841934901,-1387.1487425936386,-1413.7225184762774,407.09727884014137,-2810.739630403297
109.80460357666016,1.7425003051757812,1812.7364292566508,700.9879303002475,2282.4211012323813,-15.65918284378062,-1163.624118973103,-595.6127358931649,-662.0073311136282,-386.6182143860766,-767.0080996432425,1050.0768356580545,-1259.512764400965,1031.0581693390463,-1823.4452987064606,951.6035962130237,-1634.2860243515318,2050.559894005704,-1995.123355670112,2572.0549930064835,-1183.167469442859,3690.9915216799095,-1721.0708061369965,3877.871164289343,-381.2767861910935,2993.405074480358,-1268.7305667752419,3238.3937406075115,-802.7171369363725,1588.015798385424,-569.4712828037799,605.6856124138787,-256.3272862187909,-845.1546290805718,-265.02379554783664,-1531.1541096334772,-921.2794785401909,-2423.263423212873,-279.1546091459339,-2165.6182453249453,250.8015573103903,-1716.9441198215427,0.7424025149358542,-1300.5289715891317,-23.729822538015867,-1177.8401433799124,-133.94910802649397,-134.94682692183414,-247.42073581048666,944.859855199579,106.17237707238363,1629.357479248472,318.1961844139548,1815.298698387485,-21.03168713735522,1532.461887944472,59.20181010292509,-9.616740938380417,461.11329960361155,-923.0202065682499,146.31587126262642,-1381.1607978680804,290.2654608847267,-1697.7497168300745,859.1621512166568,-1864.5872158926584,1256.432491075739,-1605.3032455315156,2863.747454819729,-1656.7444832035185,2540.0891352256735,-1110.813154482032,4190.031414613594,-1341.326687114022,3397.181735765146,-393.8910365003099,3915.561592125083,-1090.5534028608997,3231.978804073351,-2004.828108322653,769.2607952515523,1346.7706850840455,-542.5177245571363,-944.7055044620234,-463.6746418151579,-2079.8033120116747,-1776.0647306843716,75.9954790741025,-542.7872651184207,79.91643009026795,-878.079421561617,-400.9640944320098,-462.9488365169159,-589.9190293291807,-535.9433059131532,536.2625963198888,447.7982943644166,619.2448372071624,2342.805254153232,131.49952278321217,-594.9966831303941,-4132.701576785348
111.54710388183594,0.8213958740234375,-3581.2237725766763,-128.64728768763456,640.4482278083432,459.88289357279405,-494.1772634610594,-1737.7889870816657,-2484.469346821639,-2553.0919154335834,2208.7133286335907,-440.95955196419743,-1237.8839295437665,-656.4819885821721,4027.9492596234722,284.8005984619994,-593.8708802604953,2580.3327984560665,2648.4226410495735,-404.5018060110034,-1118.3352149749148,1012.4376145830422,-618.3622591242706,-47.41525006880454,-165.95290437735122,-1749.5054918851354,-1718.951465219608,629.7142071540748,-46.35940723821733,-1009.9563106060372,-1474.9983127723617,3575.7408236940555,152.41417109351573,-794.2049253660257,-56.948302998303916,3519.419637036852,-305.989738796261,-777.1164647962843,1368.470931517831,1127.4459318429601,-110.16299748444729,-168.15328787758605,-572.790749277201,-1033.690469480934,322.4802130997317,-153.2991746141904,-1469.6870516699794,-1759.171229665751,2127.250731005611,395.5514172990887,-1282.9685321273123,-772.6172934503029,3388.3078485140804,39.2798988707317,-1128.2859572337875,1741.8212990090615,2180.2629049882744,38.29030837879945,-774.5791336838482,74.42074900809735,-688.7610826538585,265.08596689571846,-809.579130363371,-1484.3204897625433,-1962.9638894277077,1480.637686088411,-274.08750256125734,-1571.4435977969824,-1636.1956486131198,4410.611097192136,-669.5003410654793,-1008.0889519530476,-425.00795934270485,2106.8800270420115,-634.2146905055397,-1244.4503533012141,-146.53872302391187,-394.2125972748381,-656.2227615617604,-1891.6225892003547,-1470.7706948275597,-2414.712641280436,1231.4150377995227,-140.8840273189951,-1162.5467938123059,-1717.644974391944,1588.590380549491,-32.684801212979494,-319.8258731497245,111.60519097718606,1685.3525704533877,-541.7225637393955,-638.5395513140021,885.6896292799839,1640.9686112101483,276.60816728772915,230.14049856720854,-502.459945338747,-1023.6985838887983,-1335.1149033246052,3221.443947831133,-1024.198240621232
112.36849975585938,0.9415969848632812,-143.6255709893867,1700.410661848749,-1076.7806491872004,2061.6791944030006,-367.33165338526135,-580.3972816253023,-1525.2914235705955,1045.1117963343108,-135.4407652586135,1888.8904695079668,-468.8936704611357,-1004.4046438192311,-1439.194184641491,406.2759515813008,509.7354830906238,1513.0088156653678,-1141.4375432873562,-669.1578235675877,-1694.0581519227287,420.4783214942754,1531.1583306060277,1340.9402139348672,-181.1057016248403,-1149.7358857050776,-2059.0043376158865,-685.0484000270935,1505.3033988609527,211.68878299275337,-606.7318845867095,-895.2057232923613,-1232.7352751549001,-2233.0801860832366,2847.253943149946,65.79212174370429,-319.5600723622616,-912.3836176315936,-1566.1700854313337,-2487.5518490537543,3452.6674754280293,-159.51189974879605,-737.327801079808,-851.1723280907356,-1125.1906593661245,-1968.2220843578446,3527.7166602551342,657.5698321438521,-301.65138538972064,-985.2252322622719,665.0304528384393,-2127.6779939600383,4355.399095312032,1425.6551554706218,-525.6247803674937,-1253.3933017123218,1871.3476497309869,-2258.150012132941,3669.8877200935012,-425.048211770023,-635.1246936679147,-971.865688831118,1109.3352306926497,-1651.7692856867748,3096.454406764865,58.047905190680936,-178.54790334053692,-1523.6668637437408,1390.6749057895302,-1985.7882582585758,3306.2501831710806,5.247084724674842,-1265.5418447635338,-1521.4250287004018,2292.8968838829296,-1723.3175332655692,2295.480348631412,358.77929031117253,-178.39569006930031,-1362.1281709380842,96.69668844703051,-632.7471533876128,1809.5303052943298,1278.2677693625728,-546.3531800913346,-1309.8903375882487,515.6039499005692,1016.7653763475986,509.5908750556571,99.64124661195316,-1419.9174648638698,-1216.039167553918,-948.7483499768307,1491.518194093122,786.5540071068781,69.57042536032492,-1181.0606158237217,-855.511207874486,-754.5735541012939,2033.610289501556,369.7579297429555,-31.636647306093323
113.31009674072266,0.6910018920898438,61.69039104638864,-138.38302644201605,-251.87698051255813,-903.150194087451,-854.7609564699293,-932.2534494053205,-1130.0013230571794,-1325.0344877810744,-1545.4291018733948,-70.02103843106056,1427.6384462377416,270.86169988484994,-1729.1278071945935,-1828.9461524150843,-895.1406089107204,1571.503966201366,3492.8569223049376,2649.9691247372393,1276.24467551416,114.87528422524056,266.13345744857145,482.5343822488514,-452.79683635246,-598.2188867561183,-616.7289009755084,-604.0105336227091,-1131.249435518883,-1269.6157809268802,-928.3840111441832,-1471.2615455801151,-99.08568871602574,1445.4507853281634,-230.45742754963203,-1086.8676995541296,-2091.9349311828973,-463.7651844201323,1082.4660368968443,3575.543381729441,3616.5650152313847,1700.2962306283302,280.4426193367038,464.47182501994024,890.1983783303115,-601.9111886992216,728.5254146206422,-688.5167935823054,-921.8119417696859,125.30457074122951,-777.6164783297277,-1120.1649592599902,-981.959895140864,-423.3546430861145,1424.6766078102526,2114.1612516661016,-2008.1202989801068,-2632.0278172503267,-1192.0093182147825,184.53817501658932,3847.8370856461756,3008.0012065383326,1045.6007025743302,807.2217779908901,13.198725204423965,905.4052827676201,-418.80440734763346,709.2984438725799,-242.60432499295104,337.09942785704874,-901.6039489154766,-229.41816178927485,-1497.774249505582,-473.5378425743496,-337.18992307584426,103.27311390231546,369.75540981905516,-453.2435600438094,13.532757537590806,-490.6945056553721,-202.47420909227947,1229.3427325877683,1710.41675343584,846.0694753628295,103.66239909471665,-69.68274713011543,152.16490481369112,-83.95556256275836,-843.2077359063318,197.74682486118962,-410.79706354471705,-523.3652046981908,-611.4605842645536,-544.5822718956837,-1557.340333329036,-246.7231252110467,-3589.9120744936845,1120.172687263821,-1765.948188824643,-3846.857188245138,-3224.0393378656427,-1471.7585830755354
114.0010986328125,1.0916976928710938,-3324.2209637640212,1121.0305543608974,-1504.58712257887,-1210.0191820357995,2427.486201518412,-425.12104743439943,2425.6817641335165,3565.418659238332,99.57810121714604,-1747.9090387959495,-2281.4077186259874,524.1125363841047,-1563.7769112183144,-1823.7549870611958,1511.5342752092838,-697.4104007110773,1289.458764262264,2663.3491549998894,561.610393531076,-2139.7324833389102,-665.79073004631,-661.5548724402586,-380.58191672181465,-2069.7180288919317,1351.7774847721394,207.92552235793937,994.8586866499188,3732.216306846112,-144.89527374416957,-1535.6766544564007,-1200.3506064381122,-244.59568965486176,-817.5132499030066,-1348.5804602266157,928.9288620851272,-351.51347950195156,1309.0595703172692,4166.3140777114695,-1043.5524209820987,-1883.8798426061865,-582.7882922425736,-1050.838769542451,-1120.769574845528,-2619.715554717431,1068.4940666202542,-1303.3152478731586,2243.884965457385,3330.5100527605414,-338.03243930084034,-1695.2068286528447,-643.9937990633941,513.6406893083262,-1727.4668808698393,-2150.6016907547764,820.1225850821711,-1276.767834190142,1935.8560354893689,4497.695790330012,-282.90438543823427,-1550.7873565589105,194.3614572487595,678.2896958139856,-2216.1448474760955,-1852.953352163887,33.96169429870554,-568.3819947128467,1942.0206827451143,3664.621421280463,-266.22361105101646,-1481.3255846458385,1012.1134297068868,-389.4830921564755,-2114.8096800546377,-1796.6646374892262,-810.6709750615461,-709.9722340050037,1475.1974767070017,3757.0657405308525,-119.19568562594,-1102.5910533644214,1740.5855221044324,12.099946215115665,-1732.8550239768963,-2187.3834623270604,-313.15763710618916,-25.265010871193,706.3072437750782,3406.1615713560846,-356.3756213113502,-970.7890744942354,2717.9062968029157,-150.83209728165806,-1443.5778606148888,-2608.829008928864,-93.84735269635917,-1246.2855739617696,499.96275900495795,2691.8920644496156,-677.2105174409202,-725.5310834544778
115.0927963256836,1.462005615234375,-1211.7384934984425,-665.1609652952098,-352.58285648014885,-181.46775858504438,137.08322193987078,986.659196840051,2351.2518209004297,-1646.758315823457,-339.10456332235145,555.324942620338,-1705.6323179492279,-1016.4330366807952,-397.2167978541821,-313.31692444124764,-7.067646819434714,3439.123937080761,792.5692271696125,-2343.096142812972,1950.7755065120314,-1524.154642788859,-839.3601471135764,-141.50167125104005,-202.21246186701933,252.34108800517436,1424.8061196600183,2653.3433295023224,-1252.625746982063,-1151.3104352172127,652.9077822028311,-1367.7941558327482,-199.2820180246288,-718.1410712844427,-54.162465067254246,522.216190678758,2664.4463388227996,1272.1403322024094,-1762.045888274636,1082.5554213344903,-2031.5562143216507,-1142.849763389892,-1059.6973372509708,481.2684866421008,648.5809154087385,803.602030553265,3892.4054043913084,-1848.77648908924,-1585.5577424675341,741.489097369086,-1809.5314900199326,-1524.0267732845814,57.10242372031698,-239.86997946972056,-160.539271243183,3792.505739458012,2167.6846902374964,-2968.6244112283002,1579.1376070195697,-741.7669876302756,-2133.316773780918,135.80910389755616,-310.8326422274474,-339.6342920024136,892.266848284275,2725.3190788671627,-1009.1087833146596,-1457.0885517466777,1265.2115238226784,-2716.952821133736,-679.8515008199339,-710.988279621292,387.95629010861956,279.0894437614514,1559.2812748498172,1137.4228469700042,-1244.2250205223918,488.4384625350184,-726.7836611285665,-869.614004332854,-74.48668664257313,189.51149945491105,-172.6893756388338,-6.981629178123654,997.4350959404462,-895.3567614447206,-63.49206183917923,261.24330789689714,-848.1956747567465,-215.03356855125645,-181.49434230811042,800.209746957517,-616.1938920790614,1155.9256593447562,2648.4857982378526,1244.5627529026115,144.5330407538877,2399.5255104067674,-7318.989566517047,2338.6880785796357,-1782.2341506495466,-50.4713105040164
116.55480194091797,1.5423965454101562,-335.5425514132803,1251.698083329199,362.9027084201458,1364.3554345745433,-352.5661507709181,-1163.18472598045,637.4340900950383,-2554.7248363585795,-781.0780567292951,-2283.834008610784,-763.5345925469957,5.345819583442903,-421.5027612071532,2498.3666931415823,-128.8934956886485,4044.7644909017913,-1062.490451094523,3769.202529315827,-1395.2580091512955,1971.3208146939285,-1183.2831887216253,-131.2095550962881,-802.6306990017083,68.36344512530084,595.3710519317422,-468.4425816711932,1139.5007376688973,57.641384708561986,-423.38812494365993,-266.09523642201134,-630.6430082146468,-87.80228763490793,-2062.193128014677,-101.19695696485601,-1717.925757406053,-720.1910811193347,210.03939267924403,-762.973190048023,2651.1803067863716,-1181.97793007574,3943.178834345362,-1437.7207023879234,3021.1456587420303,-1977.6052647407384,1315.563331075462,-1507.4699703381461,-269.48514018445474,-849.6079436522701,205.52736814909088,1947.3972475729347,-79.19173330845348,1806.4178441589008,-12.05605658629645,-759.5170252179549,-526.7621500657187,-2310.4648040836073,313.6972141631247,-2578.8328098134857,-727.0981375437339,-1956.6052490820418,-1051.689205877623,1707.2317604105656,-520.4987578110183,3355.726451720858,-923.7762068091145,3555.9948106777347,-1615.26244875307,1972.3354356864013,-1318.0327075168098,789.6393221211063,-2170.6025022786584,-439.5491830980687,-758.3081696172142,1681.4544057259031,1432.4875502817597,93.14023278728621,978.7471094265021,345.77400352772685,146.19333141967545,-99.26795743108525,-815.1794953846122,-325.75612429814294,-1094.4360010538776,-112.42914812430915,-670.4716138277151,-272.61026226846457,649.602639658329,-425.27207615352086,1495.1245080048786,-1240.1957728392838,2156.4905477655184,-835.5703888623045,1877.182677573678,-1119.1330541472528,487.38960978233877,-1219.72697337416,-174.6819525630199,-1054.8576033594097,-1266.8261022118597,2803.452060350778
128.20289611816406,0.700897216796875,1460.85093494385,-1437.4711072908906,1789.4523158603624,1380.171549435505,8.248905031922746,-256.00234457099555,-877.0895831641353,-883.2892024777506,2133.7860191696045,-1914.8915076633684,2851.2168066006307,767.531645113341,-310.9845206067121,-529.9666969666245,-1177.316060910848,-1264.7633129875,1638.1943734754161,-1829.5998386348733,3412.4654991095654,-168.80802740509392,44.89656843768795,-684.2833424822007,-1197.9719376708063,-944.7094971345534,-439.14713634927443,-1157.9229417159513,3461.458742998689,104.20887229038776,-457.33098772411034,-557.385460223979,-1492.6879079970574,449.23680041967737,-1279.8630968892378,30.49803081675429,2795.4189779384583,120.06293293442107,-335.8013280594803,-1043.6857908978532,-716.275614512117,1467.2226754860226,-2446.520512287042,2385.5808044313267,1590.8892877951369,170.08729629460242,-1014.9259654789014,-221.8704490067321,-1359.757166813614,2384.2776721930604,-2629.812679279498,2925.202965103952,-51.49809686728639,466.00214090952346,-793.4244755120412,-805.2514728381716,-1109.9038930051586,1426.3624836815932,-2003.0455366128135,3917.7392601897955,484.1400430784788,-199.36869236222338,-1425.1071120329489,-787.0333623426826,-690.1507341066367,-354.01061357368576,-576.9805725704899,6025.849105928076,-872.1465481905997,-476.8204247297284,143.3550335283606,-751.218158308619,1187.0462152721173,-805.1905206290455,164.73323635821725,1136.1347114383134,-294.73656974726765,-191.43673620325563,-335.87625070163756,-878.6305008473006,496.9132019261615,-925.7783651444421,949.3304819819848,844.1999615102097,-142.23141862904916,-148.83405728154386,-507.88122388505053,-1652.6266323315078,333.7261386164536,-1047.8565540058019,1643.5982198052322,-79.78304798383567,-895.807968568532,-115.36781870972013,-4559.321762544312,-1689.3436011321633,404.3954832775182,-967.2637541025265,4251.432540033006,-3333.8101742124554,3448.775074887484,-1283.1884072681673
128.90379333496094,1.1317138671875,-717.7486223670999,-131.15533782226458,1352.7329325681826,-667.5899145063731,-1225.4063223352432,-959.8327763068228,155.08061174602813,-77.57958449154307,3719.5011527053584,4415.642214439755,-564.2994894977131,-1085.5665296825318,-3346.134796946752,388.0260154645198,-902.6068152926807,2269.3695415901625,4221.9532576242145,586.5516902854066,-2015.4917020684761,-861.9976090935089,-199.16935339725052,-1243.6045593441204,1415.6410879393065,2945.8759894999566,-891.6815948696616,-773.5047389353042,323.16422383610865,-609.4150488251587,-696.3450592771028,-1906.9205829042553,1393.5720524318579,-91.44478089413113,1352.7653569676222,2668.0193115779566,-736.3364257251346,-1554.5138954308009,-1535.3800144586821,-267.6391360877543,-446.20449322564235,2244.099606167983,3950.6549559366103,-351.1891049888192,-2020.518819936639,-2657.5215454046197,-993.2200527272813,-592.6466881380534,489.3392011789683,4102.477441327785,-1.8963565102019402,-1805.7686560760228,-501.7648875761977,-898.671949444358,-1046.3388251325769,-1185.1600442475224,1496.8086630759472,-227.43390990285044,555.8388516731329,2662.047856209603,255.38181795480497,-278.4045698331155,-1904.560928372945,445.78241662243863,-546.6767133460119,1717.1259958426338,3571.0878901454653,-636.4285952282765,-1479.5871453754974,-1935.549514687075,-111.28325617711783,-348.50047081956393,1273.9844224934432,3824.4902630565202,-181.54302506953587,-1299.3907023213164,-850.4295426799654,-760.3702900508328,-1091.0443125049874,59.50237835717735,2304.855661063356,-629.3302775067162,1461.008482016948,1751.5100298996704,453.54771662502117,-1414.833096151266,-1954.1616823863874,832.6714781108819,-772.9748697499489,1133.2494737041495,2750.128293528587,-572.4126150751501,-1215.9988048170515,-2287.1355909922427,217.20221524846585,-604.3243027712668,1455.455429973544,4147.931678702105,-612.5941424562332,-784.3149346129361,-1653.8284663778466,56.77907636651659
130.03550720214844,0.62109375,-307.4501318395516,3332.9317363037185,-2739.3960316966336,1560.3707146120191,-698.0557684903624,-700.6582515093609,-49.29758620621874,246.70506695567735,2730.5399484494155,-1540.7042200415292,1501.9703778398564,-797.439339983458,-920.145567973937,-264.34412901562393,1125.6411207428466,2217.6298176333175,-2048.105730996737,-499.95137822688775,-1041.7721520088771,-324.4527980799135,-525.997415960016,1569.0847729018749,1278.056434644654,-1466.55068847103,-680.8086211673121,-487.2209216943952,-335.3686701234705,40.93544791555171,2067.006600381006,713.1155547270332,-651.1870387666285,-1875.8047563062244,-182.33256688911536,-172.65269202170245,-153.25182314856934,2835.934788076306,-862.7693053965503,-331.00304631342397,-1468.0032921324566,-437.43240530006307,-852.7777868198426,26.251388268226492,3562.1172597066347,-1627.930069036709,1142.1704826603395,-1473.2419502415578,-773.8896573195134,-893.0071536506257,-106.54661752342399,3921.0196531228016,-1735.5861195108478,1802.1260955639134,-1490.7416515433954,-1462.1498309658964,-676.0093012884906,-437.0023528850742,4041.6257426670004,-1970.264881314392,1303.8557707081254,-1690.3779936631606,-225.2254958364089,328.1026091602323,-160.05106559703216,2783.573470772376,-1737.038405241063,1314.7928315507938,-936.8123320991413,-625.1339509481214,-2029.3279435846225,-3215.0197055682256,2279.1826569589657,-1839.1281916396247,-12.887792129267382,-862.0346496500713,-658.3277233747497,169.20399876424568,939.1576189397533,113.8812806834346,-988.2027692658348,-327.7725800641932,-440.4750619106993,-1.6235836792387768,-561.0673923443818,1102.4131980668733,131.99323840716943,-938.506013662439,-330.86352000489006,1229.5642683749807,326.000068183126,192.20136348622512,2461.5099209865903,-402.01104869574795,63.88927880531162,-1407.2638804959095,-796.4065041341771,444.2357418473845,-1671.8806098411726,5354.319922401534,1555.6762244878357,961.7573828575519
130.65660095214844,1.0214996337890625,2344.02055491604,3133.644900703356,-1305.0545630541012,-1875.5122963522936,139.10956972229582,-2379.039610109848,1645.9713364234904,-2270.750805630545,724.7209729850081,3379.2256056145334,-431.75657609738477,-1198.794963794041,-519.4507935050304,-1343.9966828560923,-1273.6595105642746,-1095.2752660044034,-1290.70031304208,4571.2573505398395,-1110.5663369771871,1014.9953500329148,-455.1438923749584,-33.95663055627365,-2524.150496036931,-430.1861991439593,-1492.182724079928,3830.11092193283,-703.6654005694221,1497.5941970046433,1178.3971003121305,-888.0246582128134,-824.4795627275168,-230.20021036559163,-750.0055199225999,2328.11467580118,-736.2778520852185,2342.382510291398,1902.0395402964477,-728.2748844055734,-2242.8698506643605,-235.74362867897344,-1585.8060796453233,1940.5636263359631,-205.08273064050616,471.05826297251235,2546.601869913779,-884.6576656599208,-1496.9367980193974,-284.81964893452096,-1394.118360561766,200.00254437186823,-115.43903571160217,470.908457531988,3142.8299756813512,-632.1190041891412,-629.6494122750528,-84.19066572517028,-484.6860686435548,-1436.2371778500155,168.64453980030072,-1421.508563251894,3207.9324012509387,-464.0713961545427,1294.4406609718735,196.49343976801669,-632.249749061648,-2264.6600680832394,-55.02022389765956,-2002.0690915689925,3900.2981440173508,-430.3343413896629,1858.1375659076816,933.9935320629778,-854.8034167757378,-2649.276099250299,222.81290147341008,-1539.5571268358651,3016.365396643179,-132.29527376064948,1385.1735451235795,1605.2054763653207,-265.94726981155674,-1191.1957971441452,211.90341199058065,-1438.70572538397,564.2788805721221,-305.6312469699202,638.3729243907055,2980.2605488444433,-532.630687207307,-1947.7028716832021,-248.58828163348954,-1247.1619298447185,-411.8672641760679,-266.4894161724595,-249.93815934453983,3711.48488052045,-826.8627768037705,-804.1075657462059,-195.36038931237408,-553.1400863259112
131.6781005859375,1.8827056884765625,-578.1820404845689,-569.9318124339306,-685.4389469983788,-471.3807222570149,-433.1275931815955,-384.2185883242832,-579.6539338343865,-701.034834461729,-111.6093764345761,-111.91340161822885,-337.0444102387523,1146.7074342751825,2999.285158808423,3077.6898209567707,3260.1938231585927,2590.5586311577567,445.122531992075,-1364.5360253968418,-1967.6296766776402,-2019.352822151526,-1543.8790034213682,312.7527360210013,2322.9868366162636,1188.2943962981503,-365.9631533934063,-806.4355098278446,-979.780488138947,-1186.6415614393052,-1043.231374585713,-371.5526786513366,-855.4121713928689,-606.5669698852815,-723.6996052046836,-497.1781418285379,-389.902809786591,-677.3540802534613,-802.3899628512323,-460.87530961032815,-676.992087718469,-122.04934505301438,206.04209316774973,829.7327583329514,2580.6082700467787,3661.9565485591716,3888.516433012135,3039.044229672973,514.2429290310793,-953.7041153102653,-1919.2943936609875,-1905.086601554301,-1669.475969248308,-614.5964418982305,1315.5340011206963,1694.634055587073,-1221.5761427495756,-852.2594901984669,-404.133142652965,-1881.1011865128403,-576.2881867306827,-1738.3198605211633,-743.5367811433158,-748.6471694760681,-1529.2604446702092,-273.9514435273909,-630.4219754345804,-328.8464640240866,824.5701204696971,-25.772444486908853,322.64176959005255,416.4582733013166,-217.8518114108006,2174.39571875017,2211.831118135179,2155.828466322251,1386.4197849937843,1076.5551732312042,-2161.229913832728,-925.221263520338,-696.7965305392003,-1237.9723325405744,-462.0211839939461,-225.76142227732475,866.325644468372,466.10658974572937,-384.6076593721221,-727.9478188009241,-5.91130039600484,-165.2530175208122,-632.7025366901316,-55.93484006188227,-664.5527006478741,-781.3719440925436,-176.45837825476704,623.6318106197774,79.32991202177871,-1593.682104261071,596.5165299282631,632.4999003860282,-3253.899445275754,17.431057777512137
133.56080627441406,1.4723968505859375,-96.99896084090892,441.9135664819146,-74.57957785164933,224.29737726837948,-1901.2549999386567,-1647.7392627832917,684.85610385872,-723.7335811074067,-1801.5330236955065,3314.170391759352,2840.150543098725,-73.63664499820342,-179.32738874506958,-1107.2485685702206,49.932748574417445,-1462.1734015839231,-926.3640855260855,472.16398870257274,-1454.2697217958046,-378.3598586323591,3702.651173970848,576.1784522780198,-147.04094195183723,-411.0167444300187,-315.56967112199607,-389.4357529334621,-1355.2340339641823,257.1187093626995,41.154410628048936,-1756.1259466928243,1859.2521032214875,2485.8038113174616,33.197268752291905,-148.1517462040265,-369.7448193678498,-635.7573478363001,-1263.257184491464,-1447.1631702817251,1858.2605306952378,-1061.099072366358,-536.4069296838848,3183.472887958356,709.6947504900254,-181.42808020051365,-38.69944614812536,-709.2280120730737,-844.2482734386651,-1151.9321659425366,-318.9923664130305,663.7767151572407,-1853.839676807056,1394.5296350850203,3285.4695376420814,160.01586452707159,-138.90767822609243,-555.8540050524767,-778.8524569671172,-799.0387034454362,-1232.1800819214202,1353.1425819267206,-1290.1474843993126,-695.9002174436122,3331.042978334975,1620.2665275488475,57.2431413702664,-280.7583513701874,-540.7503448619434,-1067.3513397232625,-1581.8551334408862,-588.6992861916414,1136.8768630517425,-2001.7956252635652,1788.900804214848,3927.239514646481,-278.3976718563186,-1024.6300415345281,71.21592363741341,-1477.2340245335267,-929.3598920066488,-854.4161389938122,2506.736473617714,-1953.9093663723197,-1982.6543377185164,3262.732001836504,3342.8876646519866,-122.781494086433,5.6532552213747636,-313.4993974529128,-26.24799702158726,-620.6915028764939,-547.669021109502,529.5087352891013,-1220.102333178747,258.58849407722244,2554.7983565686045,930.5846536157924,-628.7433082582256,-1357.0330913047314,2175.3063942718513,-3652.136778589681
135.033203125,1.4720916748046875,-3905.1352321448658,1732.1207286789122,-936.471018765272,3175.038342902246,-2723.666358260118,3120.933101142922,-1666.9094869700998,3780.449618597659,-1522.2974989692714,4022.026633555634,-1110.6027729481486,3519.7464947404983,-351.67722686386986,1197.5179683727915,-729.9312384595033,592.2340057251348,-636.8796080198287,723.2673510692797,-1068.8753804113744,129.3999633911838,-508.86932494523035,-532.4389499333971,-651.8291573274169,10.401508233946231,247.03345123268048,-365.39369361688915,792.271596731202,-277.7840737439923,775.1952262968884,-157.6947031736259,532.3526535422068,-160.3949474888513,264.14978326959806,-252.28813512962626,-169.918941326972,-113.27448639879464,-481.2225839639219,-64.18517638089288,-872.7894725378594,-190.8040536843618,-953.387158899671,-122.3571158927397,-968.9153880404808,-102.65167207632163,-1325.82087312166,-319.37774622274185,-835.3384614953883,-396.2659977970191,-524.6136174445842,-313.9399266213328,446.0003452285762,-272.25444453419414,965.0902066334683,-526.8306604614717,2230.186418427711,-515.4916880333615,3127.580904982708,-1261.4564607457698,3582.721273738141,-1191.2595011216847,3644.0070012774795,-1727.4663196894012,3075.1651008025046,-1823.2160792759378,1989.1837232586481,-1171.2616736051882,1004.3525895545465,-1329.6344960070514,905.1247460759615,-1501.912331797136,-276.24062934194905,-1290.2240070160212,-196.66734714837264,814.8134679323801,-621.5155295725352,540.6449028427055,265.90768058129845,464.87314268285627,-761.2639487632742,2008.056271310205,77.291945387756,1142.7028731774067,393.2683815122934,-1129.315973853742,-508.27824178736853,-463.38437463035666,-372.58947776719776,-536.2099810009902,134.61536723742202,-632.5543555844375,685.6641041209426,-46.29177891046943,386.7053337638323,-1689.1756556520706,621.7741821875752,-1453.2571883240462,-2151.297821184351,-2178.0117255417363,536.6907891185866,1526.508284774627
136.5052947998047,1.462310791015625,-899.1925552372804,-1217.478274655972,-3201.9444436822814,-575.818839871611,630.1779706080515,-663.923640736083,676.9126035255947,-992.6650659796719,1773.2938616479883,-1236.1328078641257,3337.257388177401,-1898.0617308385777,3535.5348285964983,-688.3952696936717,3703.2096813855874,-1158.3160811530984,4092.5251828095325,-2123.4071364663123,2952.043429064757,-1238.2889242874694,2221.005370236153,-1676.938033465584,1406.7917911879374,-760.1324909589543,1012.001493885242,-1183.873118262015,90.70324537626271,-1367.3532838859296,-461.19413868031,-84.45873259093923,88.65924777729606,2442.5039025044603,360.89876028888114,2026.6855778094296,22.903156253522813,896.8962817010694,-132.0252696830109,118.57085957546512,-42.166671194414675,50.326303189703935,-254.76580229578707,-754.4318490620328,-89.62049217421732,-843.5961894210659,-245.3785782116525,-1380.275144333057,-403.6880193535741,-1748.3133482509281,-669.9411534476969,-1516.852716050818,-593.0422364126297,-723.3434379098294,-764.4046332405948,5.035784283182238,-525.4002401010042,934.7058579930078,-1769.5558615260002,2210.1482053023556,-1274.5237922298174,4255.374703677177,-1304.098180777257,4219.587810346837,-681.1266861514721,3160.4259311764044,-2299.899440404168,3615.5454058932723,-1348.1409231870903,2380.4875302468245,-1350.8128371368914,2127.080004487343,-967.2789438855474,312.7556391588132,-1113.8840440714816,-596.9977351100458,-108.60749272334697,-937.5758983382807,1529.6915870943094,2.7402931603585117,358.6675584824652,-245.6200490123834,1877.9931350941795,-6.218870647915097,634.8413897565539,-343.29004701003106,568.9240751969198,-109.48733380164424,61.05490835934404,58.30630944191961,-495.8320730929317,436.37130756207017,-810.8418268523269,-862.873738506563,-1592.001889846209,382.4192548632275,-1593.9416764723155,-1971.6849699011318,-3167.768785176414,-527.9700962522488,-2485.624860195558,-390.43622145391953
137.9676055908203,0.6208953857421875,155.26482104738045,-2654.4083793223417,-1264.2025755662137,-84.61748689278625,-1529.781948483365,2886.870243757974,-1171.0116546041288,4073.549865646482,-684.5608163049559,3343.4789169100154,-1632.3077314574823,1941.40128118663,-1457.046121799411,846.8717338854659,-1168.8588224894465,550.9948545993118,430.3286043973717,-312.27216537573497,2515.81770391153,-702.5781696174892,1042.707093802338,-723.2290712024404,-1016.2856194910066,-193.28680668183853,-1308.9139662349364,100.53104620917132,-1221.398737643896,-769.0848086160405,-431.89985020275503,-981.6845705602308,2191.6747231607987,-573.8829223144763,3038.1779220897056,-694.9597186702179,2632.9502191447204,-662.9156009249001,1280.156175600473,-628.3152870806441,321.0201417184455,-776.6037581330684,6.392250571753152,373.9421723200794,-54.88483247943395,1241.282184630428,-222.07362834140864,944.2543952662304,-556.6753016937771,-909.9304509682188,-222.99192574886843,-1771.6657491614158,-400.7554783195706,-1346.730397409235,-581.5960514121953,-562.5487306882824,-870.1154469443572,1664.1221977372777,-1178.3608643057014,3030.5478333400915,-946.0578956964215,3397.181123705904,-967.9914448969871,2077.3736346515593,-1529.1824172984743,841.8839483080613,-351.8716947541183,-210.45142505661443,933.607913819,-488.05380062686396,2424.497260250541,-326.3285291196258,-1617.3376791937305,-951.5389569829999,-1270.443929596473,-489.4241723391139,-1980.5644864951178,-713.7365087900772,-2331.1030205333523,1440.7788059226043,-2924.3252569668407,-1473.224977012729,3430.465335029103,-48.3545724445641,2189.7822986512615,321.3703467373119,1257.37408077047,-1040.2234957576325,1269.6005985024694,-712.6399089659928,352.9125751420795,-941.5126370728071,-275.53323217852466,-104.04209225543056,-406.2145218326133,854.1086724932554,-317.64932744505836,909.0538137414475,903.5737484385273,-1587.478308101576,-2250.126195390893,-2674.1529569302843
138.5885009765625,0.9514923095703125,-1569.628629284771,286.2708964890781,889.8591583613518,-3708.4965830631713,1886.2681469829395,-1704.9637932547635,4219.971645488751,-1592.6220976792654,265.5252868641352,-159.8955547876106,-2037.3586148759377,-890.0069430048733,-1805.1446767669593,-398.157638150243,2744.845418187417,226.90544667605667,1789.864391629052,510.3365640664093,-1142.5477620200481,-2345.401415352211,-144.21919527408193,-1304.6786988441645,2485.051515419269,-1370.160567616421,2155.551463567527,1730.528936084063,-1163.703640476802,-2234.4476251930073,-255.45244231324494,-1428.134978042733,1101.044621438879,1.702254916176571,1201.6907962886635,3400.568590930802,-768.8024784386754,-1557.7747136306748,125.8775710562486,-1706.0613423107975,-626.2846985240317,195.62045977274286,19.529978312044477,4187.906098661589,-1149.6423651274083,-484.4670155381162,493.95232454897825,-328.31646407458925,-1234.3295668580927,-342.488428710617,-791.129274944223,3822.0455535664,-855.5037908526518,1191.5564976923456,501.05875520080804,-1614.335430881445,-1944.077411156723,81.87499194148512,-2191.753211264274,3379.3737937444134,-31.934184120867997,1499.1127894155507,1876.9227597015229,-1425.3388970289343,-2215.401111347431,-66.06448894260991,-1538.2398515925468,2139.295095399214,-912.9741361421751,1884.944191944886,2976.925405455522,-2024.9074975289996,-1803.417700177163,31.80147481965433,-2070.9417499034967,1191.924080592683,-498.5428937073966,1172.3382956073174,3779.108735766941,-1189.1458883889457,-683.5335999769114,-24.75743837093188,-2118.493348176631,-180.88717264149545,-419.1714113507893,-869.0966823576491,5099.909917907513,-1309.0885872227627,381.4761107601969,-490.182638098031,-1445.9921706013738,-1511.8327329224717,-20.3707029250064,-1710.7718378970678,3829.208898571256,-658.7214350997936,683.4488528481738,987.2975369196138,-1967.4097479576544,-593.2584542510489,-739.7604979909896,-1444.6920858291203
139.5399932861328,1.4321136474609375,-1209.9751006246972,-1545.5767380379607,-1127.0413710368236,567.5840672668905,2139.579469805969,1715.5459356732983,-483.1638555139322,-1806.7448424745235,-2172.54121604301,-1200.6879762685126,168.72712301982256,2208.369957383283,2944.0035970279155,3051.747244048523,1485.01316178681,585.585867201024,-136.02014515163233,-896.419827212953,448.23804235987546,-93.61908361672806,-1085.3575449086727,-63.57494961927023,-718.2158191437704,-603.2823001030013,-967.5880378858393,-959.9397542055088,-1251.0861026328198,-1641.7518432603345,-1462.3646773532423,-1071.4499709834063,961.6265410197028,1574.3544835999426,-638.8854308189957,-441.6068975318493,-1821.1786921103703,-1892.280864249792,-805.153649573265,1950.3228032315478,3194.3136565214695,4157.172890847549,2879.691223545361,268.25307815635296,-99.50779947431036,-862.7500453922911,-41.944431182565864,-973.9094057839661,-599.8216311543712,347.7912298257863,-620.1399655119749,-1100.9320274052534,-958.4386534638971,-339.7984783337856,-1684.940621935992,-1648.2984480628284,-2273.2638860313346,-1404.309071014362,396.4670134784278,1303.962134027768,2608.3275715145164,-834.3669077689595,-1624.566363999636,-1644.53049577314,-1345.5396152555625,48.50568067760378,1844.546511396524,4899.70488382677,5343.821898679098,1507.9886505677919,799.3562025514474,120.89081537192108,-98.39785377367663,-447.9706425350229,-757.9773998001319,-1370.760538000549,306.079371239799,-173.82601719665584,120.19520448783052,-297.6373393131523,-537.6239269594826,-662.3258618573918,-594.3511562388718,-793.8336936269404,-1065.3104189630556,211.15472984558866,1044.0959805578239,872.454307323007,-912.4294394865894,-820.7088162437885,-1211.1199335382623,-769.3657195637361,393.34104752122767,1839.7466019148649,2388.359642164855,2181.039514565846,1721.238839634827,1518.3532974634659,-282.51441694355645,-1228.617780080898,-1752.548444885505,-1469.9024592154308
140.97210693359375,1.6326904296875,-853.244702944517,-1048.0099147348126,-987.4248728689638,-1184.627414048107,-2017.5371890381384,3655.54951234348,-1934.622817886058,1064.5804960416895,-1705.932314463538,-331.43456116226537,972.5347872452836,-747.4943783055954,-1698.5374207384723,-730.5437378060469,276.92977902454095,-388.708196026324,2365.6767640823236,-641.2038549918016,196.92052258265267,432.0223052174704,-276.8174624066741,-511.574004753139,-185.42923171204242,-942.0591160867108,-525.4321165494769,1613.463259067832,-382.8714586076307,770.2900494813426,-672.5651586915982,-129.59795169241033,360.611628321491,-73.19451144358743,-1042.9964076314727,-254.8936974926375,559.6892536348032,-443.33299378245795,1675.223269790585,-744.2834621762617,6.7975878613943905,533.2123967424432,-65.97471261063963,-746.6624001510713,-233.86131770465443,-862.717222933564,-290.1529623432975,1602.9105123581064,-601.038344307644,587.9224312099892,-680.7934154751699,-116.5404419278002,120.29948347113896,-181.17222885567244,-1221.5206925822583,-308.78449600189697,1182.1698482204356,-723.0609290912045,1998.8454652956777,-892.7867161719597,-152.79255103836817,1984.1635192411559,-86.78265623680915,-2024.1414689481935,-839.0445804423342,-927.8102594654819,-984.5380958691046,4369.863770051293,-867.7282050970207,-64.67135249843159,-231.57291257621682,-430.0186653976179,893.915236168508,49.2033122665419,-1852.132428465636,145.07878391940778,1859.8264475673564,-3440.606908841204,5240.017305173566,-2343.8458826802057,-192.66309963418448,1666.1460927839698,111.23706414450588,-96.81354904343391,-898.3235285668673,-182.63645301511337,-398.3498406336028,1926.44065376547,-338.30510863967237,179.9957001246564,-674.8876057185856,193.68153580863157,-1013.1787595309454,50.348217107689436,-1321.1358665949751,-129.35085825941007,1077.3971005875442,-1506.911392236599,1765.2034520879406,-2250.4924979455404,-568.2759977362894,-3389.183405322513
142.60479736328125,1.54180908203125,-5370.581877654749,4063.5214671256617,-105.67000202876997,217.18535448788293,2668.8742382771475,-2092.9459820204183,-478.4303631380426,377.91297412013193,-1988.7270037160085,-1336.8312865983212,379.65494413115425,-1026.595030379944,-1135.9978329494452,-1495.3126716833144,-1358.9928535756526,-1719.853026245592,-397.8321460821063,-1485.1594541930963,947.1856792843948,-942.1594694764635,-1752.2888523441425,1669.3856769112015,56.63125551465943,261.17406007748957,3583.687686604468,-817.1351376901777,2366.14873084512,1924.5184511508296,68.55685273626362,203.04759738965913,612.3631939448509,-325.51564326594604,-711.3929460558861,-31.59430484231764,-448.07692941048026,-1449.9136633142316,-218.24656128866175,-1072.0330209766335,-1358.3239265877398,-163.23414566351147,-1165.4606159913371,269.245536104954,-0.6537769776825346,-980.6942212940803,1908.412156964495,-273.1167784567222,325.25514503582065,2928.9398730905814,-560.0156457163795,1821.97172836218,2474.6898340614753,-154.53218446359665,1143.0855615650535,1095.4282869539122,-734.177632715527,-1022.1744568214992,-80.27359198791743,-1138.237895008533,-1854.7549018911386,-16.723243634829725,-1026.0234396629962,-907.4576944911428,-435.8119681492219,-1317.450801224646,660.0940680283688,-296.2327250592254,-834.731439678478,3424.5044544966668,-295.2964103641018,-180.64384728607672,4340.587484765921,-1027.6921899285603,1747.3524676275242,2255.137516384522,-378.7228664012046,1521.6189614879033,593.2465387208356,-1582.6105845024008,-958.6220924986931,322.932159844119,-883.0559590368723,-2976.12022208294,83.8810231365147,-496.6882809155041,-1046.6961783196855,-165.571344775467,-381.5784707549241,-137.2838378783781,9.361279782025946,-576.1346784511635,1222.447096561149,316.03060219506955,156.8065208216418,1966.6095425970254,497.09717169156795,748.4518495055797,3006.6016130545186,-1456.5831462219571,-2503.3311435104742,267.81680249069836
144.1466064453125,0.6114959716796875,3325.81044854426,-3148.48348254726,319.4822133831268,-1144.9005021781004,-849.2177377871651,-798.7536693161425,984.4065075778219,944.6945554186045,-1518.0186554722432,4003.178304743863,-317.85249160473654,-2076.4369535501687,-311.1891077244405,167.93552975799082,-58.5350794333026,-850.5536915374155,1906.4757407811921,-1561.9347889511148,2622.560692345733,-466.93503921764466,-1913.942639314781,-518.3753096400637,1436.163721723627,298.0605940390617,-1841.2229161757225,3023.4891794710993,-1036.7242770711628,515.6394697142466,-459.31431089400076,-1370.8169867083648,-215.48562688322585,370.8716395242682,810.5264382572088,-1625.5176360383637,3541.301058319804,-385.9892110524208,-1309.1017145845958,-216.06457710902347,84.38558234551324,-79.27412893414402,-884.8208303017692,938.7344248056263,-393.7860800840855,945.0894960117147,-444.7717045725959,-1286.5173202466333,-331.09718391184134,1541.815090064557,-341.2732121649805,-1170.8397373032044,3402.2031146823856,-1018.3233725652537,187.2416616117639,-356.11473951664294,-1052.2443676654227,-100.22915955805819,531.017845931312,-45.774724593003725,-1649.668079842927,3955.007849411409,-1113.1436114078258,-1786.2243525518945,-708.8428765174107,-935.1496381060481,-758.446666198723,-1241.8053538740312,1768.3728047424668,-1341.1299798417483,1274.5057818530634,-503.00544946001753,-1197.724398926834,-290.84355749391295,2615.9762523955133,-166.9755555124159,-1246.8568748022035,3914.3298149364828,-1428.2830485717227,-247.38712143562293,-272.64684798535825,-1273.9893479429766,-349.36810796360373,1138.5385117298415,957.199420328519,-279.36258682447385,1486.1608443658824,-291.5311463244811,-1256.196767700751,-195.0248211127713,502.9662811649349,-315.92795416270724,-560.4654338353679,1356.73341911243,-576.5425815194404,1440.3533817770021,113.02506585640627,-982.6181997074908,2386.60051349558,2378.783920958158,648.9800350509113,-3099.90796413734
144.7581024169922,0.981292724609375,-3086.384847938811,731.3916382411496,-642.8349540748511,2757.7772979605907,2305.8407946178695,-545.969276366338,-2137.329423312616,927.1317755352468,-1508.1488777893446,3731.263569280126,-570.314714526264,892.3969200417364,833.2341683595228,-1167.5746654463949,-962.9397518676695,-792.5402880329973,-1269.5543721900847,4403.978007782376,-936.1931375134088,-939.3929862008038,-743.4286409526264,-1914.8274432356334,2284.967130522064,-623.5590130317971,1663.0204073533187,1852.286991263835,-1740.5162732408933,-1665.5184026363097,-430.249405194179,-1889.403662049623,3772.207307953178,-1143.921119757375,245.3893114269972,132.6087180475692,-1742.7924397416637,-597.5694890174054,-80.72341995626923,-1120.0777425363008,3830.7763298569553,-1134.5019243867828,-1665.6490999499358,-487.74439008989594,-2283.6013078459528,3153.7571661463035,-231.72055465363772,1771.765769298623,1689.6983505823603,-1406.049777685159,-1947.6471719044916,-622.2471607527866,-2138.258161980301,4710.396321250777,-864.8950020605259,675.7564500261178,-190.6580559776063,-2142.603239373828,-79.3267733000163,-284.5127274975621,-1.040808328301864,3129.0622760773795,-1514.6742272174508,-2123.0110395104716,-684.507498574081,-1646.269138329592,2484.7236581657758,-1038.6952277181051,1694.6822941986397,1177.3620538554085,-1443.5835687912568,-1767.2263696351504,-14.440728292784314,-1474.7298062451778,4411.879083770818,-868.5498120055181,-1239.976011896916,378.9432879860185,-1927.644758240097,-201.1782902157397,173.6907330217741,1099.3875214207367,2617.416800693414,-328.8361869325582,-2300.997080678536,45.65878199276064,-1668.7405243633282,2484.9542779852777,-53.2894138461842,1572.1175855110785,490.91557759542866,-1036.2632358558292,-1683.4658503658313,-451.21393833278046,-1105.0450677032331,3564.6516917671656,-391.6694138669725,-550.4028427849172,-82.9975047147011,-964.7687353272614,160.0750550271648,185.9054113316729
145.73939514160156,0.6309051513671875,227.03013194901462,-254.55767520115722,-54.06378898137385,87.47671944449122,-133.25639023376658,-399.1412179396651,-482.6690751301352,-195.62291098368314,-457.4434173643974,-493.8751821445138,-464.41888965308266,-352.2649514480832,-338.62094490951586,-242.3663432041186,-355.01198472831237,-528.9417958047599,-355.9785026504722,-651.4162766665307,-357.27911230179734,-613.0124482893712,-656.6022455326957,-684.0889947215486,-410.38219537928336,-748.4131783720036,-696.4930551925877,-857.8814804543888,-1075.6765259782023,-1354.1328126138299,-1037.7815162396068,-1309.1400150045647,-939.3408366785014,-1153.8988850704177,-1136.9498314815555,-1298.9786852938266,-1099.2531230437423,-1903.163704959669,-1404.308001200436,-1607.2441968873602,-1632.8700319897298,-1946.3862873403061,-1970.1888349943983,-1702.5483438078058,-2250.5560320891555,-2037.0005458624405,-2185.609042167454,-1419.8761535804474,-1672.0992147800152,-1640.9094763582727,-1912.1816237032583,-1702.5314712836323,-1692.1010126495275,-1696.2030924763415,-1589.0894289973617,-1593.1620445591334,-481.47950600833155,-824.7091807886118,46.10953734852069,782.4902426207086,1262.7839778259604,1152.3272879328863,1192.899357668136,1469.4272787475602,2046.1887599006689,1689.0014245647594,1833.883168845299,-809.3040510676835,952.89320123052,2.7863712432201027,4168.576011087584,506.1183080708506,564.3796124184357,-1325.745226022464,-2287.1026063342374,-362.4771241111691,-499.59972130944084,-382.6207554931256,-1594.31780028557,-1226.2066720160674,-392.754236041924,-1070.347686282155,-925.7506063497922,-944.237173961403,-568.3098019791612,-1002.296369886347,-1022.3661151379935,-1369.5910699846168,-1507.875126349184,-830.5083057342813,-481.5869863338824,-1840.135280183527,-823.0445826374587,-830.2309222381377,463.0310455758147,-37.562193212912234,1552.667505030812,-954.9811694804046,2576.3833385303815,902.5472566759038,-330.02289219207086,7488.981617238653
146.37030029296875,1.0814056396484375,5751.659425649193,-2982.1011946747067,-691.4334610146847,4454.598452188601,-549.6970519018455,2523.289431973628,2732.1593855526207,-2370.956470941738,-2556.038255988378,-323.7791890264295,-1400.4748177786735,-620.6295856825382,62.51494763885157,-2488.618146466282,4938.456049683728,-557.6450004194528,1273.7567898125951,1869.29141895336,-1433.5458154339947,-1440.894745400527,-837.8385321437983,-2157.7376900017175,-1953.1919171101354,120.8168270560712,-2700.2657569391686,2984.0331893381326,-790.880825566031,1255.6884396777755,2741.666224866966,-892.8592754415243,-662.52172404,207.91755760498955,-924.6163347235407,-1472.5370829797894,-530.2148384996104,-1489.0542702603657,1591.85665716344,-222.76330613568894,-190.09198589876996,3856.333113611717,-379.6646644127771,934.3688489637835,-193.7409410593602,-1068.8425248313165,-1351.3653228301973,-359.8230504243431,-1707.5123437214545,956.6801334699412,-582.1020488305317,638.631698440935,3775.1806598254148,-320.3382406510264,1444.3277535075772,844.2158580692497,-1221.0507446552233,-1913.8863047529007,-347.5382218788838,-1930.7395979791377,-610.1053371818898,-169.00665682505627,-1858.067671662504,4398.544799502513,196.54926361493006,1024.5802033963344,2318.672176599338,-844.4259328500216,-1135.7413865779822,-312.311423860377,-1124.0610586764114,-1205.5866945881876,-490.7170280913359,-2203.308803840984,3726.9708480352265,-824.1938855859338,816.0861293818422,3435.3857793149,-960.57623655364,-1295.1579935325096,-623.6780180761791,-798.4669177730591,-1496.0577889818046,-383.717095363097,-2254.2079028166468,1550.5648217665712,96.72249568674769,592.7855446543458,3301.920731228123,0.6818643993459261,396.4320627004649,-62.16163364360477,-407.4226651372836,-1163.1758111578638,-15.525116477058855,-854.4881955447394,334.5774728617663,-93.08396276022032,-985.8210034706833,2508.449840594112,-374.47989901572913,1010.7518626754959
147.4517059326172,1.6728973388671875,1237.9765123040743,-1546.915112279929,-1090.9734813470686,-865.8009505718476,-240.39730840855455,-357.7452608354895,495.29521374615376,3188.282258907918,730.2272748757205,-995.5330232756774,917.4672783154008,-1121.153479543631,-1355.2567212777349,-1147.125899566303,-810.887327824705,-46.5564864726515,99.56596269081024,2142.0125917520927,3196.169920916858,-1038.1984281591908,-1213.0026959768086,1478.9115578507017,-1768.2796728071487,-1358.3099722064512,-202.37757312376743,-185.08133964081205,-289.26454023667645,339.9036352381231,2958.330225915147,2815.2448800459442,-1611.1644258265283,39.540406413922256,58.8844699792096,-1766.664791986465,-539.9480249139947,-1000.3030307465756,-372.25327229378115,-286.1694850015915,809.7543127168269,3702.7993281810586,115.26094000934745,-1924.2813543343204,1204.5879856058377,-1164.911765891252,-1181.9316929283812,-656.1319485413464,-1384.4769176943378,-354.286838160696,-525.8525959893904,2368.1993034559473,4509.133571255171,-462.6788610331839,-1110.2215830804216,1093.7268319494553,-791.8666222389783,-1261.380214103807,368.64732338233,-1096.1562112766078,-289.52793267023367,661.7061927327051,4567.697598466844,1935.216028424171,-2329.6450278105863,804.3851173700301,98.77202241743987,-2270.8986473965783,-800.6567491941023,-407.58860650070665,-270.7641509859489,-381.02926801889197,778.7954741064469,4482.746282057765,-1410.557932496761,1185.636344970649,404.81887422510135,-453.16398449933104,-1922.6493731646883,-150.14628762721688,-651.2767975608115,-3663.7790199299866,299.0267208468801,1090.9168346797046,988.739995190752,-1122.4805365672462,-251.84091523564294,-579.660244919402,-837.8973681953852,-130.40013630793482,58.5079375917719,246.85774401693337,-262.0134993008256,411.6810217667361,1672.0721337058544,158.82778273518937,-1397.8333774945716,767.7512394293843,-52.33102459397787,252.83662732689308,-1634.4048438601385,-2150.085587549099
149.12460327148438,1.5623931884765625,-2415.2194416698803,-386.70185477908217,2240.0924056036974,-1836.4020343596717,-3248.874677834041,-3447.953493914119,-657.982426008552,-1391.8991963343892,-1230.2796317867383,1813.6145777156821,170.64591553718736,1300.4136740786598,1643.153259098171,-568.900574001206,-1678.1838410392709,142.9059852592104,-392.5150558669817,-1492.539132720441,-2042.2934633556633,429.01331704771803,-481.89724816051637,-231.80252407674686,2255.5143566166885,-818.0819700037027,826.8288949780206,3656.8206295466784,-450.76928157233573,-1403.6318251889152,-293.9116034290241,-74.108074376296,-920.0465849442066,-1283.6335235975514,-29.105052864925426,-555.5539978771066,668.2705428220626,1878.5470261501018,-100.28106514876141,106.26284500642419,2265.4317748213093,-165.2062751605326,-1254.020640108879,-303.75143718585014,-81.8061120838864,-1181.6353572828489,-1538.1046024688337,131.47234828623297,-598.2840674062609,573.2269645710929,2762.6402030024065,-413.4579421770744,288.7072298779941,3130.11607555664,-155.0858832588809,-1641.8681482175355,-557.585296531762,61.91762221699659,-1024.6448026162668,-1744.3443761552485,334.1610743216504,-526.4462647485544,1259.1067423981046,2815.33730473528,-782.9824846622702,-132.50715537202905,2317.840903966535,-645.4781056827011,-2616.1492941197084,-923.0917601478761,-410.44913910868945,-1166.9456587553434,-2036.615861099552,345.17739589871405,-621.647630586839,2370.950216349407,3854.8159162258617,-475.3095290422284,-832.6490686571437,3343.6486506354877,-177.02107133846852,-1490.5641286897821,-1993.706472399581,544.9501764370583,-1912.3121651696279,-648.7605190496024,779.3473115182082,-52.35753532087375,760.5441488933259,1862.9921409579345,-32.40242404633335,-336.73618597935194,698.784796775175,466.0776691859671,-99.32329949799248,-1004.4757636456934,330.26142923474237,-582.7723771593911,-1095.0277100205853,1376.6104579710864,3607.5211839441013,1648.9261159819016
