start,duration,0,1,2,3,4,5,6,7,8,9,10,11,12,13,14,15,16,17,18,19,20,21,22,23,24,25,26,27,28,29,30,31,32,33,34,35,36,37,38,39,40,41,42,43,44,45,46,47,48,49,50,51,52,53,54,55,56,57,58,59,60,61,62,63,64,65,66,67,68,69,70,71,72,73,74,75,76,77,78,79,80,81,82,83,84,85,86,87,88,89,90,91,92,93,94,95,96,97,98,99
106.24669647216797,0.9200057983398438,0.12074562792155458,0.2024450207077883,0.9341808104663123,-1.0985813483321965,-0.10397975241764901,0.2726094877795519,-0.2730742246145104,0.4421068327849331,-0.4460176829057278,-0.5588311864092773,-0.007446516116696583,0.0248122670461557,0.9193514848942512,-0.4119951415375301,-0.07363573931212511,-0.06201947582586087,0.005636308642805857,0.06264683337442967,0.13677820819883485,-0.04990058956600564,0.06769015637480016,-0.00937400575219323,-0.0004550048168085347,-0.06379395561890025,-0.20931902389965332,0.07011730699593562,0.10297174038366758,-0.18249897882055013,-0.002345682083555007,-0.021126507749715792,-0.00166886432525461,0.01720068083614236,-0.009637205369741681,-0.051123525023041405,-0.39507635887151665,0.06724473341538184,0.06176219111990663,-0.0029621756176061017,0.31228220887973585,-0.12979219498651573,-0.22968089012906612,0.3669260836146038,-0.09082454159920843,0.20467933152115378,0.23263532026760725,-0.13947316138166263,0.0822982264183851,-0.1483815395270574,-0.028818219896805837,0.17989755000950342,-0.16281912092548484,-0.0002960999427213426,-0.009788583543555385,0.008889882700528349,0.022400544531751262,-0.09861309101438863,-0.05733956307827705,-0.28191175742957575,-0.11651976548676302,-0.5788915172772238,-0.5313305005741035,0.010976464236299846,0.06104154408075914,0.2681720103010571,0.15191919251241284,0.9917158507665214,0.06753964323729805,-0.3100345979787188,0.3067888946089646,-0.023027709243279182,0.342498590282996,-0.32073459069464405,0.5993970516959131,-0.6834707975740051,-0.11824762439837808,0.22657310243652395,0.145895964931729,-0.0591993664395489,0.10854113184914643,-0.15029782127753316,-0.22598129027197383,0.47561172915367,-0.27909248335237197,0.09877077887842796,0.5623040419004182,0.24915698545200232,0.328880515900896,0.06885864447866635,0.3318437101648982,0.1369098111123651,-0.5175006372691674,-0.024997853470894615,-0.05729960215423412,0.07767549874327666,1.130001124466578,-0.2636463336176729,0.7351720170040837,0.21273940835521216,-0.37561653969412717,-0.11688267697351667
107.16670227050781,0.9001998901367188,-0.25895878061047445,0.11540571559754856,0.5142229709290966,-0.18848485571998277,-0.18386302334019133,-0.11666735409013321,0.1256701996027459,0.5109257678284967,-0.35196246858131813,-0.1633602022467644,0.4792811638020694,0.7127020794893804,-0.49887658820014247,-0.41014372763076423,0.14764743711052392,-0.03447749929840042,0.016182350768676745,-0.11272110017350817,0.2030149889997799,0.030932912791380593,0.2628348652798133,-0.044706711854085306,0.12201633544864317,-0.061695710361695896,-0.08501857812554581,0.055332608371654574,0.05686448901401387,0.015019106734477341,0.02766782874953682,0.09088467210440572,-0.003895359475213776,0.16244574570350295,-0.0024302302303737602,-0.06966012699912663,0.3078295507752243,-0.07592992018391548,-0.14532138716972848,-0.12036164008928649,0.01789727174385014,-0.1798050282270241,0.2436578996221937,-0.018777030505217458,-0.0004604290393837203,-0.07891291334254523,0.21299347123553167,0.23544474263952866,0.025009607176881624,-0.3532772833862868,0.014308948476691955,-0.06827761525648834,-0.06654768137066153,-0.24569171337796178,0.10956297700063486,0.006930515166717638,0.013198345277581652,-0.08255239220404641,-0.04804754470127112,0.01278093548782105,0.18327939290136253,-0.7296351582804438,0.8894786622550006,-0.19670007260603398,0.4533443792379306,-0.06759491197543818,-0.09040525942291235,-0.6965374871653942,1.4424670274549414,0.237081150784669,-0.740115942235813,1.0936449257521148,-0.17580125255131712,-0.37019602432208343,-0.6378519018224117,-0.17424515685549907,0.12341856178671831,1.0695514604428398,0.06891985873531623,-0.286226242526483,0.032592293248408497,-0.7232813233840255,0.12925669822102123,-0.300102926899467,-0.40197477277162263,0.3662207114957698,0.05957038196014406,-0.0530016678516398,-0.17862188810011195,0.1943013868911948,-0.09009259223354647,0.6435348080643123,0.21096242228313855,-0.27043315092918246,0.33798762540843114,0.5823926936784465,-0.19550186910545822,0.3158482525539747,-0.7614205099956206,0.07580146111955263,0.3167077018086051,0.306335829594345
108.06690216064453,0.880096435546875,0.5631920949407195,-0.49303989593017433,-0.3731228140067577,0.9475101625139587,-0.5345201937183208,0.2676561623834071,0.26442228901308745,0.9293770565605773,0.21966455180435224,-1.192159227906009,-0.060693250351920774,0.6970504077278774,0.17019213588206075,0.02451153819697388,0.14282519687309453,0.07286988631781721,-0.1387696973291938,0.003513262366052984,-0.027326995678946305,-0.13228519044111378,0.11777886960183795,-0.15487131662073564,-0.1065193944284414,0.1408037748791628,0.07174858103256046,-0.042351188907730306,0.14780839890926337,-0.11051433752283582,-0.21443955316474944,-0.04865712567127558,0.3901734558748509,-0.351734249447474,0.18331681909266867,-0.1439724843454801,0.18979165734922215,0.2571796574323211,-0.07364221780310286,0.07510213939630934,-0.020591123102656612,0.31463192442152776,0.06249136502144238,-0.030384393282375795,0.10147238453447867,-0.016014825035039162,0.12478028312371678,0.020988650246975445,-0.011973344935249708,0.038998919381958735,0.07299637340200718,-0.11777779697625328,0.05104178463430481,-0.05453408773474265,0.06129751758153911,0.09515748956483878,-0.035960990649931066,0.002601465798803827,0.2611869996882382,0.16267702321584515,-0.4605038070831319,-0.36944305629222973,0.09625525855493294,1.6110635533843705,-0.7318244095052874,-0.28598009663586127,0.4803945746304067,-0.6686904936031439,0.0748532945107721,0.4473822346453363,-0.09111786487299992,-0.10509753221698641,-0.26387443815607226,-0.3928328443495356,0.6079844105719681,0.12552235047114407,0.8536169422634463,0.6369426369357358,-0.27104760108103226,-0.19687753264958163,0.5844106913775163,0.08097403576725198,0.1894005798789993,0.362244516258925,0.8199547306497681,-0.3902987902114883,-0.4953010003873363,-0.15996923110396538,-0.1680080327296311,-0.29941623605381784,-0.058472893273846686,0.05339294415594486,0.33151193867572704,-0.8126439435985731,0.047310452664035885,0.14194096259083602,0.011475744238309868,-0.37433474900902497,-0.12175676346339526,-0.5250153133550071,0.6149023404548096,-0.2594682905442627
108.9469985961914,0.9095993041992188,-0.2190665927651595,0.3569393860354282,-0.5849259683444176,0.2620613619974647,-1.2100796290232565,0.019627403546439447,-0.1129855284391389,0.2233764495066241,-0.025596464703197822,-0.4190044998479092,-0.08600968347143284,0.5714923968531238,-1.045914399506513,-0.3776751067631761,0.15664232568412537,-0.11382220738298521,0.07116754772660638,-0.07215946814579359,0.04251161480453874,0.1812167571633429,-0.03952797148479292,0.0850711207426273,-0.1662576973564043,-0.05298271224859244,0.023156724082274302,-0.21486552274658094,-0.0402611111463205,0.059719591836302204,0.2123058691824724,-0.021438858126616167,-0.03727607931876966,-0.053858744689133306,0.08299590974885622,-0.05051444005902799,-0.13673049664791947,0.018024407747546628,-0.0059246179612789706,0.06420159959232193,-0.0760483328289775,-0.1332496484196262,-0.05613003582153308,-0.08584933249908384,-0.09918061841335511,-0.024026704573027274,-0.16656554845574556,0.2318664332830844,-0.05080178354419072,0.023605097125154777,0.12545231316049935,0.04199876573937446,0.1209461245458634,-0.06940667232786725,-0.07222317175371352,-0.05735158731341742,-0.23807541870880639,0.25900536269246677,0.8463899239409449,0.08014931829569447,-0.247895744351512,-0.396674120488437,-0.07000708869220804,0.29566976073192025,0.535709254666464,0.8692168818917099,0.18547988856938077,-0.3743925876708242,0.5943792899433529,-0.10790958587083235,0.1899515617435977,-0.10707004538060205,-0.09986349923473911,-0.5027733010590352,0.8047452600681381,0.6380866895039683,0.02751987066945427,-0.7742007004411285,-0.5213938505800586,0.4043477818310315,0.263438698556188,-0.8142543039528506,0.43750111462068747,-0.16615917551890702,-0.002317524372037829,-0.4248213431867935,0.07789556336030208,-0.1504213781116724,-0.26369532059845047,0.4510583317146172,0.06825690805816967,0.22274977265223161,-0.24670633388921342,-0.4393810490763656,0.07575651247238381,-0.07618719121133652,0.45630745808855633,-0.2039952850851059,-0.04954792965673016,0.1350032028314806,0.7854513341736413,0.2611147080223489
109.85659790039062,0.9101028442382812,0.22476595687393142,0.12151803700233063,0.5078952120903346,0.8802111853284108,-0.27514597857192735,1.1666256711128653,-0.5999230002720224,0.16727749483083582,-0.24193061689618767,0.1295230805637258,-0.43117087230675677,0.4481292130241893,-0.3951812459541484,-0.15039157741935763,-0.33723492583992665,0.17125755094264095,0.0600206247200947,0.03250434999194461,-0.037818995762180445,0.025821666967663304,0.14405972612781517,0.029236835377123536,0.12218521793935637,0.02965054749001871,-0.100595111808747,0.10933349534792061,-0.11806657221877834,0.002633358215792553,-0.007702466844957456,-0.11351543579422198,0.01333148349467752,-0.07336515620224553,-0.23369073756484193,-0.016942689835263848,0.02309274928195347,0.05864982817761024,0.20837487176306319,-0.09938501185996346,0.03438587333744516,0.18877367107582485,-0.010374431185507346,-0.010542998953545017,-0.06099011439932898,0.09956297890583075,-0.1043747327228858,-0.04371095602685803,-0.1691855905537513,0.17224733059689332,0.005080026422457293,-0.2680787317172104,0.10909815257095402,0.04984034324455906,0.03708803723075414,0.042782525086543045,-0.12225237604397696,-0.24197978665921763,0.2651271448621439,0.20790245988673442,0.8971292254349501,-1.3511683565021573,0.5605257037897573,-0.1628288209334126,0.4134323873238229,0.13434537443371275,-0.2168843667423739,0.18328296091598512,0.6397988427871243,0.1917064141769549,0.06291807538794966,-0.25358475141568887,0.07847539041035526,0.027667525265938374,0.9019873619348746,0.16608843342878016,0.1631726300358915,0.817009501947615,-0.39264108719339996,0.1940259992983107,-0.3807457110844512,0.03349946782443462,0.362577746646985,0.5540830310497473,0.09389109828537859,-0.18323659121980354,0.11612252071999747,0.11903626067323908,-0.029906995277183993,0.07822869805401869,0.05586000835449968,0.5181063367779603,-0.07709865835400487,-0.14821505239363392,0.554350594646416,0.12632969304781558,0.12179234702064962,-0.43160040805104727,-0.49816304546573137,0.6714956191165637,0.7628533905040114,-0.04982578566367446
110.7667007446289,0.920501708984375,-0.0189587075384407,0.14988907791845643,0.2981846664394277,-0.4467673958662749,-0.0483518391694572,1.0356549172489933,-0.20692998811896673,-0.3988569180748208,-0.8255910409573951,-0.19018943097314103,-0.06726949755253261,0.2329479350361266,0.03136854389107146,-0.016973733471157097,-0.08800589485712744,0.240691224323073,-0.05687119488834954,-0.18655660782844982,-0.026943635003931484,0.11934702383264167,-0.18039529039061275,0.1297878574288378,-0.08514460969158519,0.11236729548806869,-0.07321398737752025,-0.004271894811774826,-0.11665648464958445,0.016135339271007944,-0.07735910701961786,0.0428351633103737,0.021417828340222263,-0.020200010280108364,-0.09311845530475792,0.16686325592893206,-0.1248019996367948,0.003330749309610386,0.02568074163096041,-0.1258685371449008,-0.09974133320989564,0.03648003698335634,-0.1336442677823068,-0.018903105517597562,0.035386716908738576,-0.1125656493342579,0.05176885955471846,0.06004536245283744,0.04116292172194594,-0.10958250189083549,-0.3362113199279646,-0.11896889255424672,-0.005543917347557623,-0.05052623431696097,0.0862204925348245,0.02146351922291871,-0.07450332109907888,-0.1105238817453581,0.05523806809978821,0.19900460510572385,-0.4606545275073612,0.8032828670428613,-0.7503951011184726,0.3415076767912555,0.15538619887752375,0.10407240791166852,1.5485228800938295,-1.0067775250126287,-0.07278234617439122,-0.09244174919836784,0.644546119042791,-0.1142905610924437,0.3368331999599485,-0.15902675100575672,0.22987198016294944,0.8807036436983461,0.5496687743079518,-0.6923752161389984,0.5190113612602136,-0.0036586742430590596,-0.5364175154084677,-0.030420701098297188,0.24058700729796623,0.30735934428770356,-0.12712611009942607,-0.0668923141000889,0.027869699708734208,-0.07360675041317387,0.41386140314847764,-0.3022001342412444,0.041638111016400386,-0.18200710206237314,-0.8647082684673019,-0.05510337111453546,-0.3256532642516528,0.29143413195229273,-0.17302235472876668,0.13279539136932855,0.2631667377133692,0.955709613544154,-0.0033237848508399816,-0.10436584702609321
111.68720245361328,0.9099960327148438,-0.2598990587535309,0.2310608836749965,0.08056199603243765,0.5943289895435189,-0.1905401859885705,0.21973699639946231,0.39064955735319096,0.26864198053321875,-0.23150402764773953,-0.6229936398273563,-0.012533831022387365,-0.07152721345760119,-0.11641787680971656,-0.04927547577476472,0.02880350976287986,0.07975914687590294,-0.1834410515413909,0.013613313008248914,0.03954437611180816,0.14220250261343664,-0.06007594267654313,0.011764051597641816,-0.15710756910163898,0.08818137339487099,-0.15884863906008442,0.07329477236412549,-0.060978871078756394,0.13352060761842974,0.31831310976468197,-0.02272290524418044,0.03935051558852798,0.11397799725742051,-0.21455105855758796,0.09272495656256619,-0.042774741890127976,-0.1593348453611289,0.23348070083075056,0.043300791393696775,0.21693694324649893,0.025032124486368185,-0.05276110505991849,0.0732821220113602,0.10930927052220296,0.22172751706002494,0.032208546489633665,0.0012099033867863317,-0.18025929290577095,0.03121845101020031,0.08081123668363814,-0.27007098289260156,0.15973865332835036,0.02853280844358319,0.07277586533603941,-0.05102650129529172,0.014866541636775737,-0.04371782919593293,0.12893117978124458,0.12440725456939354,0.29932777103994224,-0.28208556252923817,-0.4685790048562593,0.33865420589039047,-0.13769110414308505,-0.36414271186288344,-0.07399261222906499,-0.23820270510322034,-0.08981675149952376,-0.44454631327420546,-1.2442582807576228,0.4218133694870364,0.10313249448639236,-0.16904846527605655,-0.31395010055814326,-0.24690701220392602,-0.11183676305984203,-0.3269809645626503,0.25526264590827824,0.48061554952501007,0.042105790184964284,-0.03652825695571008,0.39390503431018276,0.12558452301433853,0.21283245666446585,-0.2982882496527066,-0.5918377600859653,0.17711065112458452,-0.04628026394076981,-0.06678673681441677,0.0739389751087251,0.07448026830032693,-0.3501294881158109,-0.3489219520313914,0.09482422708414118,0.19263618247120173,0.02554791145534478,-0.013623008232995372,0.03708999387983223,-0.2577430166129371,-0.2766323121426822,0.33580047033938515
112.59719848632812,0.929901123046875,0.0628698810155221,0.624712153855819,0.6047001585314188,0.4779119499613322,0.11012140436507602,0.5529256079371416,-0.11728487580030993,0.48455446074383457,-0.0762247571137678,-0.0696401083794669,0.2764292473959855,0.006646992247448996,0.054614521888289094,0.258819296581918,-0.007288638551862653,0.00806191534035747,0.051626761947862386,0.1037276916615394,-0.1374175496296275,0.08482011275326776,-0.13951642055052052,0.06502366034795432,0.05140415738276825,-0.16359485739999158,-0.1588034788663464,0.046379469711172204,-0.11259228808116839,-0.14364811135814065,-0.045941564595905995,0.11726699978471254,-0.211106736655823,0.05875382964288056,-0.16969210884201968,-0.1914971360129081,-0.10038897258891603,0.1919934157247589,-0.141035178891462,0.09010086050906907,0.15940134396055486,-0.2056629220833372,0.027643448770407617,0.1887156432669909,-0.06851747380359505,0.1667447438781344,-0.14231366948542487,0.07021179476251367,-0.017197193932830895,0.044060760690031495,-0.12959881697798264,-0.0234932324775859,-0.132537188766157,0.09804085880673119,-0.11139504077455144,-0.029928530571663503,0.02588640745258946,0.00029667175831326296,0.2616834067239365,0.3641291406802132,0.6755414593998182,0.4325489113660807,0.6210768167014329,0.8593189604351356,-0.05886570736346608,-0.1447591198698061,0.3331835834371381,0.9990199315382259,0.11249495526666009,0.157873841929593,0.19890488991245414,1.0557069736272797,-0.12918535679840212,0.2115173147931297,-0.14134714483193436,-0.210664444303175,0.2900169973658225,-0.04041538949579782,-0.3157548147257223,-0.350621432181545,-0.18272712044002212,-0.19670891947084418,0.26882189039346144,-0.8268242983477553,0.029174095441788665,0.2646609750192562,-0.16892211412354238,0.024865601632712408,-0.20967542652834045,0.3376578723317471,0.24632832615268505,-0.44608083358359163,-0.11569319195461632,-0.3564128123979639,0.15402026014584685,-0.18770533564238026,-0.191047210975725,-0.055715708694167976,0.19852213038574035,0.09451772109276227,0.10939379061621837,-0.1541193680320398
113.527099609375,1.0102005004882812,-0.12836286702172026,-0.22033043743918063,0.5347700311700379,-0.4043308546172433,0.20024710663896217,0.05199643270195668,-0.054029645133630205,0.2846562953794951,-0.2842599564859701,-0.12160694737314193,0.019826629469129727,-0.14531416555726318,0.04023540495782986,-0.30029513022829635,-0.11591834186866352,0.18197933111766953,-0.13232441545631704,0.20823719181022093,-0.12786779643119053,-0.04781795379442882,0.08703333091942005,0.18980381414239964,-0.015220451046835445,-0.03611328027538631,0.19096184696037605,-0.03634114150186389,0.12606528045703214,0.008931507756941692,-0.046641072887443236,-0.017295284134455125,-0.11270511890708235,0.22958221174697327,0.03869646649843636,0.14399676764691038,-0.06912658053110368,0.16108336846561058,-0.2023295939453514,-0.13733999860857538,0.09058283882799513,-0.20258035611226136,0.21043186289319843,-0.13111200831053746,0.017477230814814917,-0.00924009082290872,-0.024798633072160195,0.10976498148189186,-0.07446043897275124,-0.1258091009701098,-0.27260767606000497,-0.04233497953201307,-0.07289567218183331,-0.20241786354149263,0.10687001957157649,0.01901777809268243,0.273785400120719,0.010200363349819,0.6413059208398357,-0.7649862457213344,-0.23207822030351438,-0.24914155990243497,-0.5861208900489738,0.03461371020856262,-0.17685406354422267,-0.5017374394852488,-0.16090741652197382,0.006588002242616294,0.16376475554615358,-0.036538467138927964,-0.542384495738951,-0.16436500487720174,0.2896621606470596,-0.21607824824461305,-0.0969603542252073,0.9119549254466462,0.15887148225114464,0.3204578540322613,-0.4657186367426381,-0.3207172068896231,-0.02891119180481027,-0.10622001055314065,-0.1792911722682643,0.008033455285007072,-0.025375946980796992,-0.11238515207843724,-0.0008559022967050954,-0.07397460019431358,-0.07782443521685196,0.009813650872454857,-0.038328511288333575,0.028969088704285103,0.04841870713862669,-3.8111630004298975e-05,0.1436902946890132,-0.012273818244358392,0.11396631920809884,-0.06600150757600834,-0.06838041186298809,0.11865661505824121,0.022052375728829326,-0.04503923337937572
114.53730010986328,0.9899978637695312,-0.044306389258393045,0.20380634471135145,0.07287543943712639,0.03875718413358359,-0.10132074460540699,0.04425934990080027,0.015540019178123879,-0.33731095515735965,-0.12106833988854684,0.2706815503999431,0.0691155880371574,-0.03119580006697878,-0.017460228667804126,-0.07123280638629263,0.08923307342554399,-0.07706417880183461,-0.152855150319215,-0.05674064170897939,-0.13180221712142154,-0.013955344938664904,0.12604233966398595,0.11098603823002723,0.05476078800601974,-0.09129624227260831,0.13188583472774726,0.04525249004734094,-0.021965880929591515,-0.12982680477224623,0.010734800149042009,0.24938690840206884,-0.04522134059048348,-0.13232516616999776,0.07607752802629678,0.06383091065357406,0.11205682283448437,-0.24144541452224386,-0.14003606573579,0.011170773641651779,-0.20029228945751534,-0.17002973010952327,0.11879762649466641,0.040979020276281745,0.00016841724000087044,-0.15514200320809737,-0.16998851464208267,0.028633451773895528,-0.1302626549378531,-0.24488703792860458,0.05687471636374736,0.003254807165712477,-0.06415536505350328,0.03188270360153031,-0.315218165525637,-0.2073110102509531,0.03670960097797677,0.0445129900627623,-0.01848185235629001,-0.1898070853484845,0.17597099815120998,-0.0817120198671265,0.32872783267655725,-0.2190275931452601,-0.11996824409678725,-0.40087283556261455,-0.39638469321757075,0.402121495433708,-0.3053143323644955,0.09492245667642647,-0.2868203506037716,0.15397428867186078,-0.05375341790721781,0.1593624119146783,-0.045094795854926775,-0.02410743417572138,0.2560734460211639,-0.04609023265202124,0.2744702620826933,-0.1759021177990151,-0.25328286632605196,0.028331057455629763,0.24594603513444613,0.0930722753550263,-0.42791632135089497,-0.15080794857595353,0.6945341619227859,-0.15917006542434747,0.3671210288844463,0.018053614757515463,0.0037666189022867377,0.3959289992839909,-0.29008099720949015,0.30330055379957466,-0.45987005088883437,0.3152894389648848,0.07979747486821065,-0.18160963842177325,-0.6960708336755445,-1.2372559349242165,0.11011899156580404,0.39664561319025643
115.52729797363281,0.8902053833007812,0.4006812059491987,-0.4292975913559379,-0.29482588610346533,0.4650981188643661,-0.28058919925541126,-0.44914722916707617,0.48095149916886504,0.13694838367445428,-1.0001412298129906,0.04303239717755475,-0.4175793060298846,-1.250274696751875,-0.5950498704861105,-0.0313323611734225,-0.01218380903997887,-0.000269593483063167,0.026204140976176828,-0.05010792826670562,0.18597337255043772,-0.06063715745181883,-0.025260658577022088,-0.02458584075559266,-0.04411096787565852,-0.03915427075923835,0.02648509080037488,0.08178744281377559,0.002731504973096044,0.0615231536111613,0.07039949909979171,0.23076023494613473,0.06606244699446298,0.07040045881129105,-0.29590208450205746,0.03448265453724581,0.08892522212076051,-0.07317377669579318,0.18020967508414043,-0.020007343727536514,-0.1568939752696109,0.031173041352059623,-0.011326402449726925,-0.11486568078456207,0.10944512305990949,0.11651214384081399,-0.047363067571742724,0.1270038568063268,-0.08441547528516576,0.04055191498849966,0.10443327572990166,-0.31418952705031444,-0.0887370400341812,0.3392774012526961,-0.11558790947207878,0.007047737752187033,-0.030159751814677865,0.06359720267624205,0.09340392060740917,0.08687164895397251,-0.006518742705082098,0.14992753912511558,0.08588270215643293,-0.17159753368555486,-0.7078735393953717,0.41774307356148066,0.3134453009838901,-0.9173229678765,-0.4319022065758953,-0.22559855426429604,0.6221091885506966,1.4060637476556799,-0.25161430596664547,0.5819754986727776,-0.37545509410475186,-0.15293448650621294,-0.20254286537099495,-0.22318260697532238,0.01605094362282014,0.5362402960280533,0.23192551888609572,0.27501696570788453,0.16073008509189016,0.18854581195407646,0.23372359891260164,0.4013203984108879,0.08722234057048567,0.45879944822996965,-0.5525931164960157,-0.7659009500964037,-0.129319857585046,0.04881917504274153,-0.047621175653149266,-0.47603304263490276,-0.21843559977884489,-0.16707396399417845,-0.0314564091599147,-0.3190617178314363,-0.8373999589961335,0.3475900970604477,0.21222719200363657,0.3402021858484293
116.4175033569336,0.920196533203125,0.05074028588779067,0.550858084620578,-0.3492704691270724,0.1956747152325528,0.26426929414466516,0.34899552324178607,-0.20775686392035805,0.15607778062037514,-0.3067999380492036,-0.05169073400129167,-0.8552706870833884,0.01947684234327582,-0.2059406938667357,-0.026124393913886372,-0.1660782887197151,-0.041924396209174215,0.02618946158929349,-0.16847796475219642,0.20135195689599789,-0.1681088535346352,-0.0477105661478265,-0.0189832573639947,-0.14855087487588675,-0.17074279557094596,0.03704979241812842,-0.02222815731268231,-0.03469039181875765,0.07762995990363984,-0.20470198338833814,0.027329493950333655,-0.019197771554642487,-0.014542903291401899,-0.31079756840364614,0.1990297818107555,0.2750705127437074,-0.19558189834635853,0.026271215890245184,-0.12007646809417137,0.01317382932743165,0.13620425729373783,-0.012544211967643687,0.061033787029754205,-0.25239256342614147,0.18960442766701371,0.2553080353135819,-0.16090173067693528,-0.12263801932731917,-0.18773375285270755,0.22811286938654152,0.054696132635091294,0.09723525036665717,0.03857749415345767,0.10834149871071638,-0.04501369246907462,-0.025783698156424173,-0.11082235859689635,0.08493535616793925,-0.25315299356197496,-0.25226092464802113,0.6687157890237673,-0.6884326417024142,0.4986616086974873,-0.6264449899436395,-0.2915286069008495,-0.20139709413454215,-0.1778758361854453,0.13906511834881136,-0.7505762304990131,0.09218504125379329,0.03581209527058536,0.14613405664341417,0.23701413722417708,-0.8440664423491853,0.015740685964267358,-0.17573220252640387,0.13680587113810252,0.08075178205617299,-0.31977841268766904,0.6166693650736151,-0.5671313824222239,0.1512060112725038,1.0180265723063688,-0.1379003044271135,-0.18569284738703323,0.22908277390100965,-0.3967752820863113,0.1777806984375722,-0.19746816704139258,-0.05328084280096579,0.17815770709719464,-0.29400354253305017,-0.054932456105780146,-0.18646506061758095,-0.27434408118279235,0.218716113105057,0.22572962501001148,0.5000501742671472,0.7976395966022133,1.2215537576769162,-0.2185803751531138
117.33769989013672,0.8998031616210938,-0.2920299945585608,0.283584762999788,-0.2480574469299827,0.1647795289765469,-0.06245028469391262,0.09704833864440174,0.15176582948928116,-0.0898396549843227,0.5241319827443657,-0.2970618783864801,0.27651554313986904,0.5971190310018152,-0.29728616532053825,-0.18267079204854797,0.26246776141187794,-0.07770661262440631,-0.09228096375966424,0.04571757299763436,-0.11116400756775627,-0.08419936921388588,0.0700587329506684,0.08404062647124605,-0.133829268418089,-0.26179026045732307,0.1137070732457711,-0.15896101749703379,0.10310206700839407,-0.03399926559690404,-0.050326306038211775,0.04314483279512908,0.016289242834259685,-0.015910814442617494,-0.10171213973982307,0.1545649450962537,-0.03279188639635795,-0.013424848075027264,-0.0571898172478181,-0.1240561427908211,-0.12532969554642787,0.08731128045092515,0.0657980822456383,0.0924778410989041,-0.06514131358855708,0.23341277574923044,0.11820411935170055,-0.0611004570536655,-0.07102407785668033,-0.04899902302021476,0.022537337694960552,-0.0032617204457159044,0.05938262753775792,0.03282585894496798,-0.03305805324178146,0.12325282799063103,-0.15273703898064223,0.1942296849132953,-0.2277117942096674,0.71297741340894,-2.2424939897463996,-0.16574768388540256,-0.5717833844626361,0.9510732150186763,0.4296607607771855,-0.11999856805349891,0.26053828059776224,0.32082070573281624,0.4220305461312108,1.5093750555599648,-0.43904422042102076,-0.30293431470343596,0.42139256660791813,0.03542413745268527,0.34086839506465794,-0.16882040211081178,0.8206929221580029,-0.913102930798907,-0.36708919900304265,0.9204382740698545,0.11312390930742239,-0.04355497571948978,0.43833957697394793,0.25529309185561455,0.28992586377291213,0.23421685540813914,0.030332054080031992,0.2930457770435733,-0.553935432175541,0.0006627992379446418,-0.1312788687011316,0.40975014647710534,0.17210275373842965,0.24344647306167233,-0.170602777127903,0.07157339586830852,0.23347824620729016,-0.05677131835165221,0.40352395768518906,-1.350627725863193,0.1744168519647744,-0.0844299912547446
118.23750305175781,0.9198989868164062,0.2894574302392171,-0.7603792371578607,0.07061026799604875,-0.8659504138959345,0.28423074508043394,-0.20855156069993533,0.3358953414095975,0.2668945425315091,-0.24091737500149493,0.07436347039577067,0.45437803501816365,0.06832054928133913,-0.46353251789986283,0.05036658324861114,-0.05146995667661053,0.16732762838223392,-0.009319493596253694,-0.01887657829851306,0.009921276671114455,-0.1343933007578791,-0.05052591063034912,-0.025286158923110855,-0.11567243316757926,0.04681721960158317,0.04669428613431146,-0.03871822650962102,-0.09473096584449164,0.03728108432145024,0.004307001941043355,0.08426834880476351,-0.1633478560961405,0.2317596130599782,-0.29773990829425956,0.22297618169643976,0.1326409626408074,0.016545691934421777,-0.07805049365951836,0.062356167329051505,-0.08736570020020681,-0.05832009260964899,0.17437074698702165,-0.00016347779504128496,0.13041588693813957,-0.0008127892916385635,-0.04294803666410298,-0.08502441160845309,0.2250405049388288,-0.030808174370294518,0.19639178792302397,-0.1751225038738426,0.08337368943078714,0.09511997927719451,-0.06337032119679906,-0.006666070455472073,0.11178691036397856,-0.004420345395481547,-0.017021837417545066,-0.17699076230781394,0.2710380015816026,0.949263137929271,0.09638288730998847,0.7092959858674377,-0.666208064110494,0.6449409610180852,0.2988303050561731,0.6207052587498444,0.4270864051919202,-0.6515541404464814,-0.42099191294539084,-0.38888919943889694,0.31899581613996897,-0.13854629280915526,0.3819173899367243,-0.6680417893233276,-0.5602042376988128,0.364805145599359,-0.18976910640253508,0.5160319827860947,-0.3775240915258327,0.3198116265082341,0.16979880147237936,0.33155847076188605,-0.9787657196061811,-0.34214115480698526,0.025137794385666774,-0.05144525849166453,-0.7574395409498644,0.3866907215654734,-0.5804855041205877,0.3036646074413757,-0.62211025371457,0.06835531263524473,-0.553226513995279,0.35872557082036033,0.1743569888422173,0.2516792441239242,0.6632121830828296,0.007704564883320555,0.7669064125089745,-0.1813866872900458
119.15740203857422,0.9101943969726562,-0.2574497295679102,0.20899083659105536,-0.08120903176516661,0.1369879593192512,-0.4190085058096247,-0.4494410698574104,-0.07173068679857283,0.013711753256945463,0.04301875739624166,-0.20210347495743128,0.43596649226771783,-0.5270911426186041,-0.5238973380587537,-1.1292539970144853,0.5306061407419544,-0.15709906233046167,-0.001636944047303736,0.015099953532070472,-0.11595836028483261,-0.10607337784466007,0.0968496571008557,-0.1268920845789865,-0.13392669060678603,-0.13683053338128304,-0.003971568647046179,-0.16968571266047935,-0.0018851173149691154,-0.02874960707910719,0.140227180166839,-0.39257106517649143,-0.09685950889069055,-0.10490357230032495,-0.06133913925296855,0.12892520555254672,0.1392791739983374,-0.10140128861881477,0.18832085716404143,0.03125602122618449,-0.01643052692892161,0.05622026384341328,0.12825493440653818,-0.3538855368718813,-0.051028870637789436,-0.17292681735690413,-0.05465585131635389,-0.15962065301360875,0.036265858551287875,-0.006135551528625341,0.1360339690529851,0.00010161878673313474,0.04883987894653702,0.0023237900824729096,0.013897188416440298,0.055079349030382696,0.04165620543665349,0.14255230909149244,-0.17508883488834798,0.004613006225419736,0.03207143571827499,0.014818337972401808,1.0369717087475299,0.31403069991188903,1.1588504987424737,1.4683913939407323,-0.261342921286312,-0.7535753707904695,0.6878100829118474,-1.2924487741124457,0.25597705794116266,0.17941541305693062,-0.3551659821087642,-0.45811924044746016,0.42234311597522456,0.023143227459683086,0.5281724579462467,0.8580799176498008,-0.10871061754048802,0.3128449787044153,0.2687645037491668,0.37268490053017944,-0.0711746597827561,-0.30909945714550147,-1.0853417848740352,0.07948681567261784,-0.276648483349747,-0.37894153319122,-0.019119538834576535,-0.5077492061699485,0.34596902265684903,-0.28372646497365506,0.08644243078700556,-0.09756026532665182,-0.561941482863514,0.7844839813769675,0.7420943901564433,-0.30088518064870967,0.1566355994482312,-0.5086969113789598,0.34896407708018723,0.4810297386807073
120.06759643554688,0.950103759765625,0.8905579184560236,0.08118038844609082,0.5718503985790896,0.41110647197241856,-0.5219962735769406,-0.45363378112191977,0.100809063379496,-0.043730923629787276,0.010402586910561978,0.050368940460273466,-0.3156803837913823,-0.3002302918939625,0.23293932755265892,-0.04942205619015473,-0.030824321187816032,0.14799130039199174,-0.16751024898601866,0.12988045203322707,-0.01103816115758622,-0.10791181725383647,0.4660311544644539,-0.01666808180105167,0.13079986871960886,-0.006037114746785218,-0.0694585681981559,0.24287407626393193,0.20172288954479978,-0.07978415138069651,0.05773807476912668,0.09213131705938805,-0.08808695937149164,0.07994008420245738,0.19806096141240964,0.12251116871666715,0.06720185330873253,-0.022495103237042333,-0.08874083115072832,-0.10881329303709328,-0.3310404957451647,-0.19017426873817378,0.071213370463071,-0.27231922105213596,-0.011382319819475052,-0.03413176095315357,0.0971117846218812,0.03698996094197055,0.21702307438927582,-0.2044199362931879,0.0854114527624835,0.17123593723463568,-0.24220296245401562,-0.09389543664275185,-0.035050456757687316,-0.07116568286000109,-0.036541466447489214,0.041280263993577246,-0.15176338454617827,0.1018564486748541,-0.4536588685436739,-0.2668913869713906,0.38412108286324437,0.40756967168514513,-0.46141746739421113,0.9519814136900844,0.0792746242871574,0.12944990844475746,0.08351658005779464,0.7066625124978132,-0.2370419104613307,0.2538006685345319,0.08143498314883682,-0.08313179875158425,0.012599924481305994,-0.16442185364032216,0.11440910484471366,0.29030705879450763,0.7128526503126269,0.579233826379795,-0.0617594703385794,0.13985781112396029,0.0863166754912505,-0.08615118134476686,0.10883447737869162,0.5050577095972502,0.33661992845058336,-0.032828224661697825,-0.08954727037353144,-0.0892869831017104,-0.36479218089165216,0.4075929945212371,0.00034346326005703365,-0.3911881710019495,-0.14303495229666008,-0.1646000828503879,0.24391227983747682,1.0754152900040317,-0.48506634874200083,-0.16470781148454366,-0.48339275492846245,0.49545630236016336
121.0177001953125,0.9102020263671875,0.3695821330026341,-0.08445100596623076,0.10776287535113273,0.759498580278325,-0.029664000504344444,0.015478646461489748,0.1256687774201452,-0.08847675518643883,0.9816320100543616,-0.10921934539583084,0.4313485411340313,0.5808251059664986,0.5958189770743751,0.24206081180795738,-0.12901414689712098,0.023543313770920386,-0.08116938917786477,-0.1230067005210371,0.10564463213192841,-0.24489418994069567,-0.08177288091812368,-0.041315213554895446,0.05293548834857881,-0.11669523924801223,0.011307044196442538,0.07231983855723614,0.1463516779036485,0.06351843569336606,0.002870084742240042,0.1341148698263707,-0.020840808416979877,-0.08993523141382655,0.19469661428505675,0.005199919596928129,-0.09022991840263911,0.012107836112669568,-0.25880451094213747,-0.13692563320314924,-0.08148355928738078,-0.17903816743263834,-0.14860388251787035,-0.03406773482796406,0.023465477612773872,0.11810386730643607,0.060235328437993355,0.15396171202674785,-0.01066932601367375,0.027711237918964137,0.034528591677885724,-0.13587688170448628,0.41465852028832534,-0.09978158675689631,-0.08074102126368803,-0.01732060062639418,0.054591691446495554,0.033150163839509056,-0.054198066081145954,-0.14027514512500006,0.362227681422567,-0.15572388123002173,0.8645297264648764,-0.7144374180552874,0.7345898328644436,-0.9620418631834771,0.6315239640752652,-0.46956089903841514,0.03724269888015123,0.7918029014168585,-0.39640666741401953,-0.44485325880781673,0.7131230490625985,0.17347111638084417,-0.06055840596973409,-0.5077788226848807,0.873071865695468,0.0212811574433691,-0.2982819348906813,-0.28735985798925523,-0.08691858341942384,0.26745910629308994,-0.4857634742756365,0.10180773565958717,0.5481178425068102,0.2487071264624144,-0.2793806700885801,-0.06720250417183707,0.1602849729061063,-0.11887569955595388,-0.5234822602493098,0.6605611263433743,0.04325034924239071,-0.348787480821528,-0.2150033283067792,0.027555099403018344,0.4549504915769366,0.22747933843895335,-0.736862532455289,-0.11289539358221318,0.25212163036599455,-0.6352264267165884
121.92790222167969,0.9300003051757812,-0.6375988995304261,1.492184836635533,-0.18204867227751492,-0.11487503987244575,0.3624919767290893,-1.0134088231616774,-0.22629641909053785,0.3570215340711141,-0.6703958591808026,-0.2750008772110083,-0.019020428914097255,-0.2285836467874873,0.3789001025101307,-0.11603954432415729,0.2564608478032112,-0.031214230187307044,0.11058238370263165,-0.14082241866662104,0.014483806923063471,-0.07062893483572916,0.02730275856950361,-0.01450135359899856,0.055965756870341624,-0.11678295012680208,-0.21598966793797658,-0.16399809667056653,0.09734230563543457,0.03999572143559915,-0.00917435810808892,-0.1406088089799504,0.14809571932459886,-0.18342184062751332,-0.05068288639687134,0.1976731070059779,0.1415468645577728,-0.06361340794421452,0.039537408629147536,0.18999545426367875,-0.10808537639351863,0.14504781927996266,0.05595472281716476,-0.18871370396564977,0.13414073253613928,-0.09567513222975625,0.1358812987327232,-0.20130587752335932,0.18649256128038094,-0.17403091438358684,-0.1470064016733198,0.02701402371028759,-0.035745763226483665,-0.09684651868753977,-0.13360782643552485,0.11161718592848653,0.058442820148380904,-0.08017611011407323,0.28883472303534413,-0.8227460726788541,-0.5266685337714003,0.5749139245581785,1.2642329745049457,-0.11335242651221639,0.10426382776290999,0.7584931949119771,-0.1402219323457422,0.3273150339358516,-1.0616545805299678,0.643565309881862,-0.6873654215124759,0.11524592492072144,0.3454900795552994,0.09674804354969045,-0.30280757361436994,-0.009510239404991738,0.26911449092951484,-0.34645316758040107,0.3389743045752245,-0.16472213256369955,0.11072803620160296,-0.038536958068936894,-0.17177031600594134,0.21613341863102326,0.016737559252223505,-0.36320575278858813,0.06799021513597935,-0.14528523374455166,-0.025797353088211045,-0.26198377007179785,-0.05217674214038413,0.08040169721502373,0.385639847059823,0.5899564816476688,-0.284130612077469,0.04499368649446074,0.02250283472601894,-0.08009761589311372,-0.02073528100634675,-0.28680660180437006,-0.1209289976115139,1.238979466303742
122.85790252685547,0.9498977661132812,1.1143692308911548,-0.5071919470520276,-0.014846790893525946,0.00400284577504598,-0.12630423695524562,0.011433614032034786,-0.021599276712889262,-0.03463468023086802,-0.18702034836845144,0.5584494338563147,-1.4580591128320772,0.18047132129479054,-0.11089999388890828,-0.1588228326269791,0.17059658146059442,0.2033057572967318,-0.057639196272807766,-0.13001573647276693,-0.13675837936949725,0.012544392149348722,0.04475432731459883,0.12938565090513005,-0.028140244584107445,-0.12022516768686134,-0.04774223134609222,0.00945643542219363,0.03348486415339438,0.008617087798691633,0.06896733871538621,0.0598873489294769,0.02813844800689276,-0.027044166736284212,0.07472644301895202,0.20622995350390322,0.01722013656293115,0.005801154570805924,0.15713801313632003,0.1827332032396533,-0.25337453951244376,-0.007401136816722158,-0.11693251086098401,0.1667406753097563,-0.11430099218391639,-0.05507142201440694,-0.000577411505843832,-0.14048433104882602,-0.02271918509271706,-0.09212226208687263,-0.1307948001699347,0.2589105617082702,0.009304476568596468,-0.04306423523266325,-0.041811880401552814,-0.042086961912254306,-0.007044635989705643,-0.03593984819865938,-0.17869115177865502,-0.2626258625731396,0.9505988472206665,0.31913867516878164,-0.5712725891479837,0.6097013539017364,0.6891679820493872,0.45545056288386665,0.35208028209715814,-1.555999124031002,0.7618763582430012,-0.45919265903099654,1.1182036921684761,0.763150124536907,-0.0346580156891773,0.1691731259507712,0.15419286410916094,-0.42256344264765433,-0.22802805702457393,0.1265108400812832,-0.3060433407065215,-0.7122678337308872,-0.18887741807756503,0.3102999095726087,-0.28120100828041894,0.14662974824640776,-0.25684798996948977,-0.5272454027783837,-0.20588802997891242,-0.49859113435175584,-0.18313120535566468,0.31953916453075243,0.4612079107528593,-0.33674978523640053,0.057991204990746614,0.014680275335499158,0.3024754692256453,0.23900879757142596,-0.06833722290328106,0.002758568184667658,0.15009108530842638,-0.21913883067376758,0.23065212988700692,-0.5665754129363092
123.80780029296875,0.9502029418945312,-0.5823524032297986,0.07138937125484492,-0.21908374313405996,0.6836585000151721,-0.10429103035142624,-0.11038237181294028,-0.2196047883284722,-0.024745741806135146,0.387914560836323,-0.006587623596528848,-0.4108172440051315,-0.5478935394735086,-0.4942174814760564,0.18461507703627442,-0.13492007098152858,-0.09407195687556605,-0.11122616339323206,0.243895457415141,-0.04512285610132179,0.17832839842993162,0.047652043130303384,-0.07289875417622277,0.8635269946177396,0.07421901618412907,-0.06420131964843613,-0.2819001127526062,-0.034381028876701386,0.2852628987651339,0.12435582059413404,-0.03890516662444823,0.04192784205976083,0.04063805177458988,0.04631959545762973,0.19675251464524426,0.1398715771530417,-0.05705286208603725,0.03500940867525631,0.26343106237567654,-0.25074993514822824,0.10810576879255121,0.116367031160515,0.3121274761785528,0.006809208457063773,0.12562870068481655,-0.08425202450720681,0.1408596909381765,0.24250716469001757,0.21616299349248042,-0.10500319987642656,0.2052457329538447,0.20821053143970775,-0.056216047094753405,0.09575195217004769,-0.020714577064691292,0.0536438209522975,0.0648951042570666,-0.003221157309462751,0.12400617670636503,-0.25819279776247683,0.05445903199529964,0.4382547800395449,-0.6839259745462749,0.6437380532670169,-0.770935406202791,-0.12700748880891302,-0.21440234893882731,0.8484232910528939,0.11430139391738331,-0.8438341639615522,0.7294060807345426,0.29848080013736095,0.1619234323838884,-0.5526475380374828,0.3706414692510954,0.255411278819347,0.3227661994668967,0.5058111261300493,0.028538291384588188,-0.3289039490610227,0.14432891126331593,-0.7881301955202795,-0.19598509523633217,-0.4862361179503615,0.057845112953298014,0.21395107644924924,-0.11242815566245604,-0.34356508187679485,0.527224660013414,0.022523584848911024,-0.08508066340382546,0.0012302662730128977,0.10228411121037478,0.23424373180835348,-0.29470844640797933,0.6571843980859967,0.32731168341887407,-0.22626930665717782,-0.06453807940090421,-0.025794886216739366,-0.6532302624041906
124.75800323486328,1.0001983642578125,-0.5243780257506944,0.07373507572143856,0.10090210377697487,0.2711234825530263,0.33024567820909306,0.2901933040679705,0.14945375727095744,-0.08900974156170341,-0.07006784491167826,0.05632363101836585,-0.1548377263236309,0.17262154684877357,0.014538715154503749,0.06111277610576521,-0.027755126686012082,0.03891630869531879,0.021065343804416437,-0.09780540682875224,0.054159100971173255,-0.060903673936592725,0.1287992127982054,-0.013255860197932645,-4.5287246775993495e-06,0.020248277387522808,-0.0520212460541018,-0.056082632729554854,0.014654914666128116,0.16633454688272603,-0.07038660719916978,-0.04792237513990991,-0.2383225821679958,-0.02826236797183601,-0.22235359833650387,0.05282380106080368,0.011246835342836336,-0.02059713805657878,-0.17030132379099083,0.03717467361552923,0.08415204679964,0.1471065179596271,-0.04945456979172973,-0.1265369208685726,-0.0945619636387952,-0.048941175240056714,0.17392524318111652,0.23967329914012564,-0.05542989627339593,0.04596765565443646,0.030932099018766927,0.02797905211304831,-0.05469741494565407,0.06651719600268963,-0.05616939309824888,0.11822098615497176,0.08268631244889414,-0.042776490871543844,-0.12274785596158358,-0.666642678173249,1.1827905560662715,-0.5164740413228697,-0.29009949073853547,0.09640431686904499,1.2575183364393898,0.09250174687085638,0.3963856757647485,0.229524848995721,-0.5956930367279094,-0.7074225945645737,0.2544389674290003,-0.8588079866453744,0.23626052374755763,-0.21953877455620602,-0.22619474993561411,0.24324079832511164,-0.01723289104743463,-0.14596923100870568,0.4296813912452382,-0.44883251868097523,0.8986346898555045,-0.4267970262727299,-0.19386396072548112,-0.4059140197148522,0.1251430037229973,0.2687016824056406,0.2912705187265256,0.24218332403806533,0.06502125337185073,-0.173336629653967,-0.029306357771329894,-0.13043932076006232,-0.23464829868906853,-0.09650583426429744,-0.09939328095161051,0.027169203767380322,-0.20433183969231006,0.176832674997763,-0.1568956951946389,0.11175287115068996,-0.0022754684695067418,-0.2730250315470468
125.7582015991211,0.99969482421875,-0.28669182930921533,-0.07417373370870634,0.1407654395290257,0.27806772388696366,0.1881009272300017,-0.1821644403930018,-0.05302502707525887,-0.20124828137375556,-0.054686544738155235,0.09672636706721319,0.07543502349667186,0.40544565644664826,-0.3929803334282837,0.005384713973440385,0.20848540986263733,-0.015242245591974917,-0.03996258155508317,0.25936683024710894,0.1810422137991837,-0.027855221388124577,-0.03871421360540765,-0.09181459716966867,0.0464720440591225,-0.09129453761868968,-0.14321978766471175,0.17093166120423514,0.001432225672461998,-0.056157986911462364,0.0333846101133366,-0.1684086855021463,0.1969894361491275,-0.10459685917300551,0.19076947060004978,-0.00015521050691227369,-0.3078588920034888,0.05532864046370474,0.1144047033446739,0.0053251785141554195,-0.013471652174899165,-0.09456518516198896,-0.04389754157443827,0.2800179717987796,-0.31475382256624257,0.16580871832092836,-0.01862407579353431,-0.2954866997514674,-0.2157871134784623,0.2559188288441744,-0.08999928933511021,0.025325972184702058,-0.08767218920703129,-0.07545952440308783,-0.03552259411371847,0.9024979620002987,0.6420931274309889,-0.3801774649116487,0.04117051626550416,-0.8300124339091789,-0.035085155260726024,0.037155282476826854,0.1891838285767427,0.12309969522691307,0.07342950155937944,0.6371995126484318,0.21673566391187093,0.08510998554866445,0.2738439071680371,-0.14135478229435175,-0.1394337892555942,-0.132502149919606,-0.7206723823345388,0.18075094303112396,-0.08613347471996456,-0.38966147811924473,0.1624198889620339,-0.18681012766648802,-0.4743073343151498,0.2165002298420361,0.16459800706615058,-0.23402394352079936,-0.5071322481375408,0.01957408770913649,0.32864561067340853,-0.408480171246583,0.30213282064501173,0.5735675359254024,-0.1376706360093892,-0.756821769969212,-0.13893506225895158,-0.41460852204179055,0.4834580802149642,0.06446611250975105,-0.13318935971451662,0.332549532276596,0.43190015844188456,0.8200592444347979,0.07730970358705919,-0.061178658008630225,0.08861241764586025,0.15128162727913946
126.75789642333984,0.9202041625976562,0.1517570521067887,-0.000512878244859051,-0.012527834409802707,0.5183051822024166,0.27098756668742774,-0.7187690466309586,0.16252840559837084,0.5513336109081123,0.4663456990893229,0.21689995961844982,-0.16325225775457325,-0.017786820658680584,-0.08052667571249328,-0.04628337632067665,-0.008087608496613252,0.004574218835791737,-0.20610484008272076,-0.038067410099040286,-0.0713317864369864,0.1284052986406383,-0.022295108725302895,0.016870854273947855,0.0024952402527894987,0.06832864583714905,-0.014671994565169336,-0.2460569779101396,0.008107415824087395,-0.09861046912022427,0.09802111663386019,-0.29565976001120786,0.004498688758211544,-0.3116704643355862,-0.004413179735256734,-0.0250380113614387,0.12533452722347166,-0.0430928669443822,-0.3346361465960967,-0.43790329134479344,-0.055528988489195547,-0.22346696081667158,0.15428552278154006,0.12452902516199799,-0.101220134525143,0.013440772459201403,0.4424324835521394,-0.1975500921206967,0.03234066486115782,0.05979491284465338,-0.036149210927256877,-0.01672701659909251,0.25570455420688165,-0.3425518263584397,-0.19919978792292303,-0.020628395055306944,0.30127549706437645,0.11331077650570928,0.1096592593912959,-0.08377330531025803,-0.06804123262022788,0.0905391586882679,0.10532398717756446,-0.17087791559006876,-0.1412037792132929,0.07679311754231066,0.16665884290932226,0.011325888814175691,-0.5950237520499808,0.7819377216150942,0.7105868082321323,0.08343355395111905,0.3043883419787993,0.1808244490006547,0.019744413989588816,-0.360808885511425,0.2892571749057726,-0.22499952234367776,0.41151922527009854,0.016489911255300416,-0.36746761403984224,0.6697643328005304,0.6268275708324885,0.15884976497140665,-0.11097398617026748,-0.07811564028713269,-0.11208373685905428,-0.43209835658613716,-0.16802010022947025,-0.057354887161015215,-0.1816716004694317,-0.2551081737772289,0.2683764479142709,-0.32005155672181423,0.5800315912338517,-0.22055868174736878,-0.26489329545550727,0.054209123908162335,0.772767771739965,0.30068878588772197,-0.14439452655169727,-0.17841817404610374
127.6781005859375,0.9001922607421875,-0.17719244234595688,-0.18120662936241055,-0.1529683182350035,-0.6336791169990657,0.3022971092982498,-0.25818784835306546,-0.16806122777919355,0.26339749233662213,-0.22595437347131087,-0.2493760470746605,-0.11550326636353025,-0.6922679522845063,-0.539317555071547,0.2255376308686749,0.020215541599782297,0.031936978960967304,-0.13315784809283088,0.15493483141822,0.14628392724833927,-0.08626029494842188,0.011332587123921153,0.031204132281369132,0.026605473968917562,-0.09915932500820962,-0.17226165804973792,0.023264057188989086,-0.1799229608315323,0.13404426799101707,-0.025201933460147624,0.18620413768888128,0.13152329861933024,-0.1026268275176856,0.038630762674456656,-0.0019413566532466703,-0.045276481525916026,0.013684429711765164,0.11178069803335627,-0.041072193471570845,0.07717414869029054,-0.12315053683237548,-0.09398584998240353,0.03174321715593109,0.015756402679633665,-0.01816802262324214,0.08596868441075053,0.28317606799152656,0.015431471080604442,-0.30940554626614,-0.1942282285629731,-0.10523840933339186,-0.0541489646303462,0.4002316976710465,-0.07681091991290263,0.15741002430433373,-0.38063722191207955,0.36851232903052267,-0.1617314907957301,0.02488087007090945,-0.2650126173511314,0.6583609919179854,-0.32182749573799463,-0.2983318106542357,-0.35990918678047223,0.5220023486046197,0.3547568941340955,-0.06093366707366187,-0.031590181308414705,0.7839060148170589,-0.07327871854866155,-0.13784461203975423,0.40325207723150597,-0.273325597026154,-0.003828438503846258,0.5374547203481919,0.3750141647869802,0.218768097224655,0.04964482760390945,-0.39327657846872,0.09531834785136131,-0.06738417658387313,-0.15465435606359612,0.13790920387276223,-0.008500466414342812,-0.1184451411530099,-0.6524141417266783,0.20634223370714838,0.08616060913425128,0.37266117982974284,0.034247746069116625,0.8918392258354585,0.37579179275541935,0.025729042210431017,0.09680934479857768,-0.2665725586027705,0.06591082342516694,0.4977681991425584,-0.43286440785376457,0.46320909250331954,0.414345017465926,-0.3519963926272188
128.5782928466797,0.920013427734375,-0.07611588906901268,-0.017606835578622318,0.47114447553311745,-0.530061906043963,-0.34409634260363287,-0.00039484182383694305,0.06809019462643907,-0.1697054741729952,-0.1442377245412502,-0.1486682102776694,0.07933361113163886,0.3757879410872173,-0.17574717365114514,0.06552964248218794,0.12380907455660964,0.04672546717374172,-0.16423223776721252,-0.18038808298817915,0.08680007870870572,-0.02464680545176403,-0.09614872446234561,-0.019476331568071513,-0.1736250998154361,0.020534144428562495,0.04530727205160759,-0.1310172475534703,-0.256024102318127,-0.06674309917674928,0.05895951766901359,-0.18044394661975965,-0.10106905602913856,-0.03988522706837126,-0.005520858580123372,-0.06978310148079987,-0.07090973865262787,0.13260334248543534,0.34502651482018243,-0.3445156164604219,-0.12515243517201358,0.04952404777319337,-0.1956642090273788,0.10416706405305562,0.04752843414535002,0.011212190926515223,0.10974792120516237,-0.004722669570685789,0.27630772832199235,-0.34050377738498344,0.010500944571369658,-0.1132472921900265,-0.07676613581256858,-0.03528496645766403,-0.04045492462304924,-0.006666908031542214,0.09356380009347207,0.1294873374836065,-0.40068657858347967,-0.6290068279815396,0.6211288061124713,-0.5346473640357593,-0.2881376440845733,0.41186992031386077,-0.4198548495573496,-0.8393512097640702,0.7648736508986291,-0.5208562408945775,-0.10031498946856077,-0.37089623267671956,0.4951142911419294,-0.4672680631163918,-0.007640755426203766,0.225729485514643,0.2974455292735682,0.02881001763888297,0.20938614043989326,-0.30406787241925526,0.2899819777571129,0.4700027858123653,-0.03771771788375433,0.18825013599303334,0.14253427886956918,0.11252125463070385,-0.13720219215269247,0.23507659149171634,0.39280473432365276,0.10345553887625339,0.23553636683942966,0.04703319697151935,0.6588293770872441,-0.21059176715618905,-0.0745441549542831,0.6164790805974972,-0.4732053670993869,0.04211636789936707,-0.035361031793818554,-0.15398632730401463,-0.6539360026501304,0.7553534003980231,-0.06469394319344801,0.13219571370525673
129.49830627441406,0.9200897216796875,0.22894756675746047,-0.6110835932748683,-0.05036195514562923,0.4915903740948081,0.33194654993209166,0.4173478162111464,0.25768691699569996,0.013324768441824106,-0.31182978884163526,0.3150741934775809,-0.1674092797457445,0.3677143147400162,0.16786597954814803,-0.14347292507828677,-0.044582519063251065,0.16912568773455616,0.07275681007526519,0.03177920516809525,-0.09170333940988701,-0.1370725812307104,0.00018001331818920385,-0.024820609891597047,-0.1638913772535796,0.15472663999105862,-0.1184160226635696,0.1551461996189128,-0.0677170018703017,-0.025331127361836576,-0.015108236915871716,0.13033904229005774,0.060664060471962565,0.06479298948228226,-0.13456059268773857,0.08533947053490026,-0.25565130132742386,0.17502836926802595,-0.399250193204102,-0.13922156068061542,0.2956662134903734,-0.12818424677767615,-0.18049654996753964,0.16407853647920506,0.13985476076293585,-0.06553528301226852,-0.1639609460860786,-0.13115289645512598,0.19270079895210412,-0.20780965689543576,-0.20607840045901096,-0.11280678799862122,0.0542513282217973,-0.07118233516787308,0.008741665774707134,-0.004086236332908014,-0.05153882841611751,-0.06873811135878502,-0.047846860078712375,0.23838204854280393,-0.08139302453917249,0.0166626373671086,0.14307199298141512,0.598984131370514,0.2874680923852257,0.1273109387148319,0.00928273531347526,0.6665338299777036,0.8862981713169953,0.017475467719526364,-0.0023630400224127724,0.4069929875390329,-0.48160121993077837,-0.1207974693208875,0.2698667152449608,-0.36919838142501116,0.6509717484852999,0.4168711733002125,0.0920422236949254,-0.47860417348283346,0.2152061629084443,0.009813984707346502,-0.3342878278426719,0.4757416062869379,-0.5024150508493718,0.08652600544226752,0.44614348413032234,0.13291254302868136,-0.42173738408106637,0.27448487156735757,-0.29631349190213363,0.06442578663479143,0.03833732249665327,0.5373973625951229,0.13712843930783944,-0.13342568007783828,-0.20316687660747854,0.0065710566696436795,0.08912732676047534,0.2554160757755506,-0.8712029529381342,-0.4230966096887561
130.41839599609375,0.909698486328125,-0.6956867235179456,0.17678972446714553,-0.5364235025396225,-0.5163255703665572,0.30054251858080355,0.7280080849546139,-0.10367300381783379,-0.2056933078864017,0.2601550434188189,0.7510499126043739,-0.7247201620821586,-0.5647776299706702,-0.5094981487774746,0.3834258096091681,-0.28805139964105964,-0.15379669413743555,0.025163154075509064,-0.07161396965489009,-0.08202958050333888,0.1354633514370255,-0.033416055574598424,-0.09338139503137786,-0.11269984612640424,-0.022688545879526137,-0.16487814529486713,0.08409581610693724,-0.08306486159683968,-0.06478680596346209,0.1993841309293855,0.16840338922172338,0.020955898879699578,0.16807668218422406,0.04700140093753004,0.04159156598826194,-0.1280001071158512,-0.05986433791163042,-0.38081692412841084,0.11967385851021706,-0.002047794835391004,0.16596716067312764,0.06994377136668725,-0.04746786806484431,0.12508706665997238,0.009703941707342572,-0.255737454602443,-0.035514643270898594,0.47999482004130783,-0.12220850711326377,-0.13686939710370458,0.2031798538103633,-0.16342759977620688,0.11734237025858962,0.24797552750284538,0.18482838784721667,0.052125547004112885,-0.019885032286163083,0.1062815469798871,-0.1328858634274658,-0.18316161846940351,-0.20632362767919846,0.06128414703390503,-0.4668594718667961,0.7094353460103145,-0.053455099532812855,-0.11280784712258721,-0.07698518600735269,0.00771246688935931,-0.22676081141461651,0.1312895254709717,0.9120108221990407,-0.020850008949942933,-0.5444622955291775,0.0795227902227048,0.5280571711280405,-0.029478644884624414,0.22502255121537162,-0.2913788660857722,0.11382282887373738,0.041393656130287476,-0.043475982429382706,-0.3607294569703823,0.46010724161411937,-0.03925984137813127,-0.17188061028364532,-0.15888863780554868,-0.4745555777022912,0.6045701775131705,0.012614184126764558,0.043758039501544554,-0.1800541287243888,-0.6959460379893713,-0.1762996458518915,0.01291624787636307,-0.08891385515648835,0.2860168916790935,-0.6069918177656023,0.8963786861095904,-0.9364240778860792,-0.6895476359237196,0.6991059663545567
131.32809448242188,0.910400390625,0.7094670858954427,0.07981173973573982,-0.2403747532089191,-1.043411251865951,-0.43142990574638507,-0.7008486137128057,0.18826995218145898,-0.060693651644254595,-0.0692132421126202,0.2154378530203784,-0.5270767826590655,-0.3592288411709089,0.3713532171024375,0.3064137139835702,-0.03447491960037648,-0.03623571199365284,-0.011535544899883218,0.5347478101260472,0.37442619912377495,0.07870908640927982,-0.26127152776588625,-0.19863879721289246,0.18895654164161832,-0.370181279730003,-0.07192826393959272,0.17682920261060117,-0.08198213372592085,-0.0666349257720406,0.011311550315653186,0.0929998190293789,0.12115816233695544,-0.08634343599111637,0.18416284090852314,-0.3941779113917132,0.08614655073942595,-0.3308962832304508,-0.13499464289036445,-0.008075156491974558,-0.20116128929189026,0.1137305888787298,-0.342001677210984,0.6707989357974583,0.016869325465199883,-0.18524271069481835,-0.0423240446791053,-0.06781507770669684,-0.27919875159627056,-0.021726150068629383,0.13693705579408372,0.1801625817807363,0.17481784772399384,0.011381784335651724,0.10170131279431327,-0.06123422435874663,0.011312987725883652,0.06808983877463193,0.061922555423020234,-0.5293426344446694,1.268515302864196,-0.43202943818452244,0.5372778021876717,-0.6871668514784119,1.3211449547349,0.2004322134175072,-0.137916826212972,0.7477656144343107,0.30584126525745026,-0.02520569086791921,0.3926050801100866,0.6346106832251143,-0.21399071006477657,-0.13138898328068527,-0.0924092265249663,-0.5767792208718264,-0.6761026967178704,0.6318366804043253,0.7222758495916309,-0.06552373367735365,-0.9084234334268995,0.7309328474865829,0.03985276258648625,-0.23452344892733873,-0.4855074637058997,0.8205750006374299,-0.6565006173097855,-0.32955285320704625,0.08960987960314769,-0.06864273107477167,0.11591409936396146,-0.1958318726702449,0.23309137878492625,-0.5011847601562575,0.09135939827624193,0.45757191965330135,0.43956304327368345,0.07777838892641811,0.6072985567453926,0.10625834485689246,-0.46947732819182664,-0.002369989120182686
132.23849487304688,0.9300994873046875,-0.14535417253527302,-0.39363429608221884,0.32615200840778263,0.6382271502162904,-0.01035709626974543,-0.20721911963938763,-0.04099002195487585,-0.15968096063365653,-0.22434919257766503,1.6383923452452855,-0.42034655918385233,-0.18818149139655782,0.24142458184008675,0.14863436398532226,-0.042314440478215816,0.022858383799019756,0.08414761551562074,0.2095072236148017,-0.0746148537805131,0.06612242938716997,-0.08817069958872338,0.04689017800826497,-0.030407269809404378,-0.09930271754987025,-0.06328024540775368,-0.12382315797056359,-0.04998283340532991,-0.14570614891061012,-0.09198662644899612,-0.06487098105343637,-0.06225665881667145,-0.3435349616611838,-0.039645226397308636,-0.19266278946208745,0.13288164155065701,-0.3897157620601868,-0.2833673290466305,-0.1650602536266603,-0.12688530071448934,-0.07282954981637413,-0.0035052003685721034,-0.08820750264071495,0.16431831871801186,-0.20708403966986924,-0.0868231208269487,0.21603673702520446,-0.03311602383771976,0.03922426286265579,-0.13400199126691073,0.1305498561109287,0.04108203227482793,-0.24911414943131668,-0.08951585820755277,0.11493793017029023,-0.032009136363098746,-0.15151576861500768,0.07584256448111726,-0.8026106956149909,0.8833540651829126,1.9386429486065637,-0.4105274499441528,0.8429112214577578,-1.3017070000069673,0.9129352413067828,-0.7337969853051154,0.3497302437651594,-0.32314649360522607,0.1512556613736853,0.08785451915376521,0.5761549703287168,0.02595164414856303,0.012440466646698588,-0.08012692826225519,-0.9409622404567175,0.2947481159309938,0.23595462523991972,-0.35525121571065515,-0.31218628398249465,0.6593915742200155,0.24707318836654302,-0.2680459213748184,0.3010270440785592,-0.23602732650884797,0.37782236519473406,-0.16617648250629055,0.12466953912999833,-0.41688163309095744,0.009015190669858175,-0.2606705530929359,0.1511354354142032,0.10573762260820443,-0.4846194426873934,-0.02635490468750279,-0.2215567874104146,-0.3070383616670201,0.052872245846582705,0.8621345217399702,0.25947354481478385,-0.7587764698181853,0.8961406449809081
133.16859436035156,0.94000244140625,0.7139765855206028,-0.8907249796764913,-0.648801861591604,-0.4680621842697702,0.5462716074588061,0.18099758695819376,0.14251075148523684,0.47920668760752005,-0.47387044545864465,-0.21290362987174802,-0.3687067277416415,1.2915097268871853,0.12615192918823584,0.009972063250453802,0.018592981840836638,0.12361929633917877,-0.1262817615053047,0.028290630526777927,0.02854515584745089,0.15184060196689209,-0.17347882340955956,-0.15661652166795018,0.05331578282473881,0.0654736430419422,-0.11779464791171261,0.20223126115805198,0.005814411930257957,0.105856820418979,-0.004633814632542116,0.3860531249883595,0.0949943901548232,-0.02970211947598698,-0.06659113551042661,-0.2057382720819419,-0.160461072563875,-0.027927320062948728,-0.23625706316935224,-0.13200657538116853,-0.039033582147615674,0.3191521302498234,0.08274744906199576,-0.02205948048714958,0.250344836221784,0.0819496724018682,-0.10630271727579152,0.259443681084896,0.0038477967358541655,0.19473262190079743,-0.12612594438467803,0.12064372080566774,-0.14087075596424922,-0.1567477519165135,0.14612821936911596,0.04334389052419828,-0.0575613913785714,-0.01732782851514606,-0.07888068301362382,-0.013608575266175798,-0.06730031464092384,-0.3848977772965589,0.06721657292382413,-0.12138552508608416,0.3765062433058123,0.20869835363219646,-0.12179210961419093,-0.36354439483263645,0.695978413456157,-0.12339347206405436,-0.4561521174101135,0.1542291540347384,0.03149234086852386,0.29801079741444625,0.16562193992966864,0.5763898045371539,0.5896465502142452,0.5274064808325843,-0.31411821441126586,-0.11203407519399443,-0.48243202993136647,0.05066031901336164,0.17252246946762437,-0.03437875235827795,0.21950823659498775,0.5288047468681473,-0.012580515637375417,0.3032836151750057,-0.1860050133895269,0.007051142995991203,-0.09062777710673185,-0.18172477768290085,0.22969642562062645,0.1793426655070483,-0.1997934215561763,-0.10752727903090831,0.2522483379140538,-0.9783376231797961,-0.5082031208018247,0.8550064325304063,-0.033952778016200974,0.03138410632096783
134.1085968017578,0.9300994873046875,0.07027833226986108,-0.050829185920514997,0.20743465453585017,0.49283678007116805,-0.29548539270827434,-0.32564349429782813,-0.2304488813726286,0.6946288468999419,0.14989000127881408,-0.03451490777419369,0.03769895655867049,0.5559872862444661,-0.7750039871560516,-0.05528910121671243,0.02161942771137713,0.006862356563634809,0.03650829866004675,0.011839847557900369,-0.07303970671599361,-0.08301774139732812,0.18391816135995034,0.03172913514154837,-0.08238782768981405,-0.10818370591855779,0.2128635306300335,-0.18960835058333683,-0.12642536411864774,0.19049471217187675,0.03829475326826795,0.060021134257321467,-0.2829859757417248,0.08585258264032326,-0.07927443959484766,-0.021727577014955833,0.3211793988440349,-0.20036836688100512,0.26036617372862236,0.17247606092476522,-0.24323544628971708,0.16758553440879181,-0.13726556737725484,0.0033972017898356716,-0.010544854191723598,-0.11042950457020828,0.1281436295523689,0.4087605013074166,-0.0823167720508032,-0.02983800902626448,-0.06005855742487333,0.2581036097641859,0.001134189845618163,0.02354591531175077,0.015119277460297776,-0.05592620480019829,0.01069615913094212,0.0017157427581471752,0.046756463034518136,-0.07421983871402656,-0.04839633098501825,-0.20457335772419943,0.608569753350739,0.14917166124818054,-0.7048780970396911,0.29486796243655633,0.31947386260754546,0.5202540947198119,-0.041116580366894265,-0.716464226043158,-0.4855258369403695,0.5577847653610034,0.05530191332760265,-0.11382137064878228,0.2917626219604178,0.8058412572462272,0.031015681448609354,-0.4036454194885329,-0.7955178266717788,-0.030375765374027534,0.08654428923150853,-0.4159056460355876,0.102190569675848,-0.5384806089844503,0.5924491579454337,-0.12072082806703756,-0.016778718346465857,-0.2134171066854822,0.14510051003061508,0.10793446780861764,-0.3092354040947602,-0.012213721762530418,0.41152364147789827,0.7108482351593883,-0.28733981234727496,0.1416133487430013,-0.07937288735004341,-0.24390361391145504,-0.525037076567228,0.24719913724768738,-0.3963824704112938,-0.4504051076678986
135.0386962890625,0.9499053955078125,-0.4741702259281856,-0.7276897420147818,0.3690906901493894,-0.7254683811747904,-0.22301041686142228,0.0777664090692003,-0.058239791628944784,-0.009009949653646588,0.19468772101094653,0.034804968737556244,0.0022972072808215283,-0.3872219475626474,0.06638662584711227,-0.03160285620597528,-0.16686825271115735,0.0842379692284761,-0.2150574737033806,0.05007353447840068,0.13519629957071677,0.034567793194184786,-0.049874586560975084,0.07932914451609573,0.05945906201261024,0.06481440686712665,-0.07986686829894898,0.07324704261912651,0.021061388693153528,-0.051927157400610796,0.20652819887252266,-0.1144849512265867,0.08243401581928517,0.20934247291412816,-0.24995956302211608,0.07688342631373385,0.006995790130567656,0.21140999209624028,0.2487388410756074,-0.012249192533972868,-0.04004728447454957,-0.05121106200642221,-0.2703502932708771,-0.1381765779229234,-0.06183465399833237,-0.16031065094702632,-0.12472261020476463,-0.07230634623346936,0.18118195344687765,-0.0316140678398565,0.17868664171301268,-0.04914941432744563,0.0595515727308294,0.11515564272727132,-0.13565054101616358,0.047710797099729516,0.06702182301885033,0.034531040200525026,0.01776552810013772,-0.12644677648904606,0.17816635674598372,-0.5029283014567163,0.26023662046037166,-1.8898262460999344,0.7948998710708849,-0.4848004905636763,0.7071957766486874,-0.30880745757743666,-0.7485338279071904,-0.21210009323400425,-0.18094525289201532,0.035439725860472095,0.19898712871763807,-0.18290266164677801,-0.11275660255295016,-0.5890784993192434,-0.2000606999774986,-0.07316790398204484,-0.043956081163313385,0.11703001543798863,0.46576541765566654,-0.03852461400887271,-0.6591201481100413,0.24537286474971465,-0.3856519446497764,-0.3088696021151528,0.2368255727727527,0.08990233172092767,-0.265984261062252,0.19844553057772413,-0.18578796434642136,0.37548180870807046,0.46691125862568167,0.3037641113096589,-0.09991364700293444,-0.41690159154110285,0.06917640957010969,-0.18286998080751732,0.15532183111085782,-0.367837301508927,0.12902906917759727,-0.09695413718135609
135.9886016845703,1.0598907470703125,-0.19704126704683547,-0.20376080139286473,0.20524662772703464,-0.2372323176845911,-0.03991801352304035,-0.1348154987633288,0.31187967455085125,-0.03548721432597847,-0.007487278552733738,0.14034551540479842,0.1641275193456308,0.12797249688921314,0.10218274485357176,0.023370401650116363,0.02565770632688013,-0.12075918806429,-0.1162469501529213,-0.03477290249415671,-0.20087420494154726,-0.03154342485418147,0.041961742943911945,-0.14942479610394524,0.05656110002535081,-0.06192523122179399,0.12558234215074154,-0.16824773050352992,0.13905846334578145,-0.017120501510500766,0.20495087435812642,-0.07025881784803888,-0.06416300391693222,-0.05607706506622267,0.04981665009150875,0.15639513304224326,0.02980659631843629,-0.0589106942138791,0.1739816646742137,-0.04120695578225467,0.12093112787484776,-0.02089881306384819,0.02468498097287253,-0.09220923525652464,0.03904507466133921,-0.1411134645526541,-0.19282200038733938,0.07076439765371406,0.007269321240551652,-0.4305659499267978,-0.03283750798015503,0.06757654740932523,-0.10470382344875791,-0.012524500467726022,-0.28765799813131543,-0.06188907248293423,-0.018077224682279545,-0.0691977230565366,0.09793896558795971,0.2822344433684784,-0.3486229601111424,0.49195997318420726,0.5584916120023419,0.1983788445824059,-0.16538008354754952,0.4419319425564411,-0.6361465003362929,-0.3138231978691018,0.19532184772323063,0.582535566386096,0.6639106878224988,-0.09886262499375395,0.05446183634682997,0.10940613719963266,0.1338762893779466,0.05105015154604604,-0.12506522776293424,0.06388859699273602,-0.3844892234447541,0.4955365587187509,0.3069320245555054,-0.10010443342106767,0.30586508841522864,-0.08294837056628462,-0.06428586197883643,-0.27177820970843347,-0.027519784849739617,-0.01584951691467816,0.4378446481056694,0.0568367828541802,-0.14894323809938353,0.0013530298657811052,-0.1258305002932928,0.12216887766195475,-0.07243228872324649,0.026100021724190726,0.36601071374127625,0.3102182339889186,0.1836501001099737,0.07344452353591062,-0.15035487616434348,0.1155339071857896
137.04849243164062,0.98040771484375,0.21281090026064958,0.05469116729510201,0.2734357832771176,0.30565225724386913,0.06749441992970517,-0.14543928642664736,-0.09496874412437716,0.21079616217561395,0.045401123240939076,0.17280400748379202,0.09335718022415462,0.12096945145366612,0.6561240433566614,-0.16416373254280592,-0.2001512339084926,-0.06740981513126167,-0.08995902109965431,-0.014747189856450476,0.0004679297038831503,-0.04402823894423098,-0.04666832959374008,0.024262775344567666,-0.06466481287408488,-0.10587567714867921,0.2697636947618042,0.17419735714754817,-0.16034089483738226,0.005091326014855253,0.18114725955463,-0.05067330716153037,-0.06726853280906961,0.25138811069255595,0.12277632005753618,0.17674110936592777,0.06302970025088613,0.10284630279368769,0.12600856819773876,0.029053120888343997,-0.15365528456047528,-0.1084997001643904,-0.29579109765324,0.148922857866723,0.09010918506259315,0.10799303949609718,-0.09526637207127579,-0.17963653291928236,-0.05912830390866932,-0.012136925339501392,0.0039980600171736986,-0.03012904385037022,0.058694753589862925,-0.06881180276899203,0.11277019799501589,0.1743465280112632,-0.3720829639488836,0.23409065046770122,-0.049903926440038396,-0.23921119857078793,0.2970543192138255,-0.37720110012147606,-0.15656251004060248,-0.29714636237024605,-0.42205855642795453,0.2877561631619825,-0.44658126597218506,0.15635109341657943,0.277327066514869,-0.47436827860596426,0.1337819801246983,-0.20191456252757675,-0.676285222754264,-0.07496198862121971,0.4483038569335072,0.04936110294592131,0.13567419210092108,-0.5569360854405789,-0.17547455232119763,-0.42827945095080744,-0.12242838995178947,-0.14462964720823954,0.09565591206129455,0.15439489402097273,0.04820423343328986,-0.29813134121291374,-0.4045960186026938,-0.12791355690515172,0.3323716741470663,0.12856370086079041,0.1271755986723363,0.04100183468107505,0.044457274523467843,-0.03102314192391893,-0.1422061451910074,0.31170137388369173,0.10472721824722313,0.10926662671306855,0.47760608033786506,-0.06698400118005117,-0.17566020078303562,-0.05544998361584741
138.02890014648438,0.92999267578125,-0.18088455781383267,0.3422072430416225,-0.6561783486657071,-0.36664658173174935,0.10532799981471512,0.3758050395467198,0.420841864745073,-1.3617309000023146,-0.22805686545679235,-0.29954881407344935,-0.10813656865009089,-0.08610322822424216,-0.02937241560947806,-0.18743587874366052,-0.16415164197269227,-0.13336388722809595,-0.0632258424855899,-0.05884082291482685,0.0505379272438074,0.08016917277702226,0.13313554557515356,-0.1444851930134026,-0.07011904583413914,-0.005851246067177051,-0.0008594713152430128,-0.14041813908925438,0.05083792637099531,-0.04517989402230756,0.0336054235826239,0.05353141771043879,0.19586582069405906,-0.21442210764075625,-0.04869258680207949,0.0908421967374333,-0.1746083241163543,-0.026608742073351992,-0.009804266322197039,-0.02778735111279027,-0.00413147685166721,0.08630986281258607,0.027294993969204102,-0.10358373258683463,-0.01007618282140875,0.21278850005626515,-0.13711270752085622,-0.05724291558341832,-0.34173975068560025,0.008585087001090569,-0.48530859256658454,0.015796759096333626,0.04706078551681098,-0.099659598323361,0.07356035486007423,0.2057926955359341,0.12620528868318323,-0.2214603343546558,-0.04007920846007889,0.04739042562851798,0.01425917036065772,-0.1387023979901275,-0.24721780933893117,0.5561590100755749,0.8247444228423154,-0.1526301799081239,0.4460798607313237,0.6440696074995799,0.1184724684596068,-0.4778487938033662,0.36670672288943995,-0.06876310094050612,-0.29868460525119644,0.7887604586556471,0.0043542777255557025,-0.25415396022212366,0.9393160046852823,-0.0443777967588385,-0.4058407789961158,-0.3262907543748746,-0.23082516667286504,-0.23551340160491221,0.12266455954960762,-0.561656363929752,-0.32131579653391534,0.27512503521916676,-0.17774117167432446,-0.03464196472839944,-0.10364867533549817,-0.18661172739918705,-0.08160852596906923,-0.241222071900768,0.06833245255984412,0.15577351734609962,-0.11463359963621274,-0.4340433785202066,-0.25917597002388154,0.22176848591027937,-0.14997909700944118,0.2693039291145975,-0.23679868718182484,-0.36384717155183666
138.95889282226562,0.90020751953125,-0.3306058060511643,0.0587760638443771,-0.05241098133396288,-0.15296835577210963,0.11541337750487565,0.6731886699821868,0.01963028655899804,-0.44677576050419787,0.1862540734169263,0.07938565531015183,0.8016583261161938,-0.02083101194659029,-0.2855826975516657,0.11270308223736764,-0.06534938637872229,-0.12903152788131442,-0.20341446561365864,0.10212516528972514,-0.04169882862673445,-0.005099725289601714,0.051339787188695536,0.191412401611959,-0.05088471740410649,-0.06446790719626859,0.15433572124467165,0.1483133712103867,-0.14848944077859733,-0.11387612189951736,0.1073203457454827,-0.0262738909043517,-0.06771738185106235,0.21362598882602268,-0.08323816723936235,-0.08972259752900344,-0.01678042593499679,0.02656257723822464,0.17283497410699672,0.1527713509721336,-0.07601756374198747,-0.03285210403509532,0.04155671364846158,-0.16362033158440575,-0.15706686469330694,-0.013917652210126544,0.13649538286090362,0.19871434049445819,-0.047338455603373464,0.11012163041142164,0.13216548291788158,-0.18327415003638645,0.09413144837619984,0.03528346709965783,0.10296649819720761,-0.04887322447692317,0.1699834738579896,-0.02394933847634792,-0.01046056997793456,-0.5970899957045775,-0.16678293173034756,0.3542629064213345,-0.20235785015169694,0.717403127929923,-0.7014420836289514,0.8351167997231356,-0.8133730914632948,1.3979719756777262,0.1157619539948211,-0.822416125866172,-0.0839297564861353,-0.2832944089661146,0.10843927399038474,-0.875745022669263,0.22371380946203318,-0.26131799816881196,-0.05287940433914142,-0.24104994023164145,-0.29204002829538145,0.24692430161779783,-0.08561988627814099,0.03716862321354841,-0.19668096881634617,-0.18137276968853386,0.0979879761583385,-0.11336834440646751,-0.19408330745490046,0.045483420990005075,0.23357014376367127,-0.17133668875093447,0.1098694250759272,0.30125937297262767,-0.006826967037573468,-0.2855215393950811,1.330761945813989,-0.4919374652251784,-0.18668882326793365,-0.2234774259647697,0.08771485767876742,-0.4519057248299995,-0.3581114527714654,0.1499925609451267
139.85910034179688,0.92999267578125,0.0009763360049381831,-0.6580781041895487,-0.41903334169058915,-0.1667952804418431,-0.041792519475434727,0.06351934156568732,-0.08960179228298985,0.14550876940047477,-0.4898567510522773,0.5265754458379227,0.38463815922233013,0.35013976074823105,0.41402037229807026,-0.24534736693642972,-0.01138505888201953,0.1146576712314594,0.18712541009711314,-0.024345991108928954,0.0408451102867294,-0.01070526892944323,0.237351679535821,0.06667363043997003,-0.07290562036705388,-0.061936472702703575,0.11203537679767173,-0.010180451206094296,-0.01795881640097696,0.07615090509341017,-0.030938885944886828,-0.12599756136781726,0.09212035809107683,-0.10948741529058831,-0.042524484742648666,0.09669240211408596,0.1151513506118442,-0.29654156836534107,-0.06204532914769556,-0.017352510786627973,-0.04758880933062464,0.07080732886263388,0.13761808306536732,-0.08310323750532764,0.028143618079086174,-0.18188639726426772,0.2527327194422297,0.20833887503470513,0.022612836513077352,-0.02730404694907651,-0.20478412073344548,-0.04783492774252154,-0.031069468133349792,-0.20827103131781155,0.04856501829198274,0.046526788698298585,0.09029363450567257,-0.004101737079267573,0.32128780353302744,0.02089988315814144,0.3852812001140109,-0.8190340165740491,0.6783546294203521,-0.15511609090614517,-0.3796779964751218,0.35596188313483546,0.2688209209675035,0.7509701694683785,-1.1759322084057902,1.639912530210582,-0.28106387630828805,-0.2549903011439226,-0.5339130602430078,0.22282621905873679,-0.11942304685419836,0.43991961220022113,-0.00806612437149059,0.3329663161980439,0.2165117649576334,0.34201831516419506,-0.4885812893172108,0.10363916432306558,0.24300003205283446,0.42288788332772176,-0.2802450796398895,0.16869782371922742,0.06188207002335459,0.006905070721305983,-0.44554135597326316,-0.5563517004586453,0.26987215465945735,-0.4606733565773028,-0.06839936883240483,-0.054791156590764056,-0.3029545721243228,-0.06577588650986753,-0.08768194964109695,0.06386346360823496,0.4875277419160174,0.1450119160148998,-0.4924204274914525,0.48532906597945324
140.78909301757812,0.950103759765625,0.3724609640057166,-0.30421129552567344,0.1402152828491613,0.572840310151871,0.05231209963956502,0.7257570444766148,-0.2779920154040359,0.0016190806510479015,-0.11914346653933904,-0.15450028118123008,0.13647202783881607,0.5819506863683268,0.20882146629233683,0.9048160548087976,-0.14393230407835056,0.04577973891748731,0.12517676884958007,0.060016001913135116,-0.013946262289994273,-0.014385115152485006,-0.059095403217138395,-0.05880536560167492,0.024142872628141614,-0.18909552083117565,0.0774800500964799,0.03520732367846222,-0.10431544295135509,-0.19940426560475843,-0.03948856564705248,0.061762751142599964,-0.16463542398840952,-0.10215787907109858,0.19695834752282088,-0.08521652123231052,-0.057437922677906164,0.06819956671496817,-0.12480734497792675,0.17222297920224058,-0.11355291066583653,0.046037658470906614,-0.4399177792150805,0.4200468602150386,-0.17218611677499604,0.10833967174920262,-0.0863514028188862,-0.06694446114252932,0.11080800752859316,0.13509991565514526,0.23063824524989796,-0.16915889197206474,-0.049706162849185845,-0.13005192047330263,-0.12153183669526288,0.03972809831886452,-0.01389665755998408,0.030423223443885775,0.06445072488060455,0.11062968544907957,0.8881561265745102,-0.8054268738817983,-0.2296562331629425,0.08810355779279944,-0.7646900421972604,1.0832019753551878,-0.04734468109327468,-0.40695235613720127,0.8120658975407282,0.7720363433911439,0.11083048452554806,0.03563986465588426,0.4971179693897696,-0.3472913159224013,-0.07025870899718792,0.015602871114410007,-0.25371698329224385,0.6423102047290329,0.4128078418283103,0.07226401851304688,-0.4074101659370485,0.12325863520497708,0.37081354754351586,-0.002886619181123609,-0.21434117462584723,-0.5546748143873051,-0.3533356560530305,-0.21842862731975987,-0.03403198923622974,-0.2164403478811319,0.03407734692774409,-0.4274372562452052,0.010918052856555248,-0.05393689060892489,-0.08365799327154451,-0.10724499267086951,-0.49513476670446827,0.47287951096895875,0.4434961375604926,-0.16242522105896295,-0.3453000913131313,-1.0151914091170895
141.73919677734375,0.950103759765625,-1.1126044753935247,-0.4672720420258525,0.587634978075637,0.001647910720341596,0.04597545364822396,-0.06459904769610245,0.15254055398727578,-0.10737789078998859,0.12699076698953374,-0.09273172814636645,0.4616433541420653,-0.3268643947582083,0.5060954794983584,-0.06447172491611922,-0.11537468651885571,-0.024793136455338812,-0.11990497728464024,-0.027404171211068664,0.030162966068934913,-0.027643245988199033,0.08494772920315818,0.060183969150830366,-0.002425388656403132,-0.046842764672837225,-0.018952531451572448,0.06440214051477808,0.014418549801836412,0.08346832815795902,0.103570591843925,-0.0847447501114407,-0.004378999316509327,0.06918015866759673,0.2102539989136254,-0.05967889731232999,0.029029072684988125,0.04492730420740124,-0.2651632856461894,0.3280776215756829,-0.04250332933768174,-0.37706759417263347,-0.23008669710110616,0.2680986617356433,0.13346547129084657,-0.14051519924503553,-0.14695857809207427,0.05527106783956953,-0.16001949003544338,0.11848110001212164,-0.014112007357508912,0.25393620739782097,0.16627734116827728,0.14257828777573184,-0.027558314397455975,0.06415096874167797,0.04247396109481377,-0.05968024006414064,0.11949564492900165,0.0631601193924105,-0.02295666265743293,-0.7422386568797987,0.14012033273418933,-0.1357330773980089,-0.013150119200891187,-0.013131254288710259,-0.5061833793614678,1.1250408016634492,0.08450787950867479,-0.061407552168060556,0.453370824952088,0.23093530287342087,0.21607625920101264,-0.3609760312649309,0.5092340862378318,-0.21913986201045454,-0.003947969435600038,0.5150689791372289,-0.08147332323890123,0.2326516416362525,-0.16667726781561643,-0.03722607407397188,-0.19469646280760458,-0.09811415086083834,0.5805994772507022,-0.13226541277997636,-0.5192420377078424,-0.212139754417594,-0.21153953630390157,0.06699267885450083,-0.08927907196636453,-0.12571514497188332,-0.5550786062260994,-0.13685766458314325,0.0820089464070657,0.257970948186496,0.08544721772782413,-0.022360344677201587,0.03322352266223785,-0.3716874940576517,0.3204489226752204,0.2002434152140014
142.68930053710938,0.9297943115234375,0.006596606819635198,0.280119082549002,-0.14041762578503011,-0.7364505001600006,0.24662023829386437,0.4172335163115137,-0.08516371921405802,0.038408271038799485,0.5133296893347786,-0.5613938802052166,-0.2842277642894465,-0.24496533472376414,-0.39009402267608695,0.08190211503956467,-0.1576966322490848,-0.0564565757036159,-0.04374341578307138,0.150296551547134,-0.14748745543076563,0.035113496814110745,-0.13314253258042721,-0.038342029899622924,0.1024601845864355,0.137664550380228,0.017703977409713793,0.04160814306114838,-0.05994088927575467,0.12083961516246833,0.07878828616988601,-0.08564446931988459,0.10836212578093604,0.06502110559373189,0.03910431880197872,-0.1402348441637145,0.23109997821721723,0.04276798897877965,0.12983306200450595,0.05666534945374045,0.1936318406438272,0.026606577054551328,0.07733322061662617,0.3574785927428114,-0.2143131313772143,0.17805851896961805,0.15844275962456925,0.14431798122605466,0.06745208847865984,-0.0231039062324154,0.02159417510379816,0.02956141821716634,-0.009553052983845138,-0.4231981579632608,-0.0034136218681188155,0.13314757837336033,-0.08921352250245551,-0.0374570255250545,0.17017480135109117,0.43559939690906585,-0.5840061307736437,0.025437343709241403,-0.13859319884838064,-0.2815596867060564,-0.006484377850306786,0.20982796108635346,-0.2565597623039524,0.6914886898606931,0.007106207076371551,-0.2423341609029757,0.08715380396340039,-0.18340502515684565,0.6786926609939626,0.17993248596453232,-0.5089464788059953,-0.11874253431440715,-0.3887120032974298,0.3937498540089976,0.25538747621680913,0.32122459195585334,-0.4821485472708962,-0.2447923625309103,0.013807313642674707,0.5017284699130122,0.09382430137686873,-0.25813126480992044,-0.5419314869535166,0.5036496932810977,-0.3065111715640879,-0.4134698515166193,-0.10315087480154193,0.25688934484964415,0.06856479414758196,-0.5222425411171071,0.1775681234212192,-0.44442276486855653,0.5346077908631022,0.3447610728575068,0.6387991896182225,-0.3314864126515426,0.1558035008205693,-0.4461589103524472
143.6190948486328,0.950103759765625,-0.31881189699909385,-0.12227311911179449,0.6987191009920671,-0.16229200031096777,-0.2798247573672997,0.13818663568517747,-0.08844599245826372,0.18647425750721866,-0.2757326860559311,0.5269433499518587,0.3133845874112716,0.5609999965358019,0.29684949552285866,-0.29892195907578756,0.032703267719254775,0.0048896221523553095,-0.2967058737089836,-0.04453000782487142,0.015975050465237336,0.04087014489214227,0.018841253740788252,-0.03781104939919226,-0.049430442216233765,0.031118898722808958,-0.03352456073401413,0.012779852022819546,-0.01460351250548476,-0.07480704154449178,-0.14844443969543689,-0.023772851652961356,0.13272066222642517,-0.09508477821930214,-0.19280640215870792,-0.025323513412038985,0.04806081252833591,0.35988093528206944,0.09974585306187489,-0.12251201964287906,0.22019307904124244,-0.1797075256100449,-0.03226615010869517,0.04311953198195259,0.30636012279430663,0.03321630502660436,0.009605139561503861,-0.08919356026130416,-0.04316991294999589,-0.005055809687879981,0.14602958471838462,-0.2733325896024404,0.37019851299160134,0.09881789846325552,0.016622888193001163,-0.10879785802274826,0.08066754907711708,-0.014341125030997319,0.05171055169008827,0.319988629912401,-0.17798336789599326,0.2732630859447716,-0.4007237001394877,-0.06467360352216187,0.27809033060784943,0.253911803347187,-0.4998524625282958,-0.8224557652496229,-0.038773494564982636,-0.24757364516643418,-0.27140086935341,-0.08666997835382326,0.178166753701285,-0.4345432003137265,0.16434004311007724,-0.6590591053524906,-0.007898838157541721,0.7075861776105266,-0.22866675299165834,0.19360832365268066,-0.4250854354995291,-0.23613081330442454,0.18562539633497865,-0.35792057299607444,-0.2599288690525778,0.4080148312827809,0.21620060025667348,-0.12773041287634143,-0.1244152992356794,-0.07234540090774384,-0.06224019912300627,0.11409993052682543,0.19550407879627846,0.20918679044171473,0.16953800926842044,-0.051211500210935255,-0.18615832445632643,0.6240808684150329,0.18403776387006246,0.3664063910737442,-0.1953910649479644,-0.2725964028177888
144.56919860839844,0.9402008056640625,-0.2574441304042264,-0.14138334162776392,0.019970740429751825,-0.30484256565398515,-0.23063848334074083,0.25513878721233507,-1.0742566792949515,-0.24461649122815368,0.39535875236870827,1.8908773229927385,-0.367576113898834,-0.36173897929232696,-0.05036178903973659,0.01842685179060067,-0.1512367111205612,-0.306274744671135,0.20510800798693732,-0.024846552407281723,0.07596597500407509,0.3549928041715659,-0.07771140941120658,-0.12938257332333838,-0.10650858861570302,0.08559590391726149,-0.028835262360288876,0.056334905952169397,0.058154077600031856,-0.09109676561076421,-0.20025356480052736,0.23989744195677762,-0.0778817155817916,-0.12877412054515994,-0.0353180416636024,-0.15308602970108065,0.2093549751329159,-0.16742267813053374,-0.00432621206746929,-0.05917040038934045,0.15028476605203128,-0.07001077855414116,0.12739610052210534,-0.014514360576412304,-0.15180905161132421,0.008380931068065062,-0.19450856086963933,0.016460582314008126,0.05898879116964787,0.1957495387564646,-0.19619816915334076,-0.25073294735631724,0.2635422476476641,0.005611079119689687,0.04251594551533309,-0.00836998856486324,0.04851299917217493,-0.006840044421612276,-0.04351704119598428,-0.013778692341787746,0.15967078898532633,0.7632345369881519,-0.6219331050716226,-0.4712047739125108,-0.3079491662529075,0.7529495909189736,-0.030334938860690913,0.203216225626915,0.5246438897671779,-0.8280281626079996,1.2682377759985322,0.3042778056125679,0.4006938997904813,0.5593941527022742,0.1267647285084445,0.2563482736352796,-0.1029749981146506,-0.4446765739978763,0.13118261121255678,0.7754852209111365,0.2064580350793238,-0.27163051738201127,0.09143376321151195,-0.43797519925222805,0.023059574738175097,-0.09154577756459702,-0.220726359081798,0.40468941034634576,0.10792794460803848,-0.13154170623655156,0.08025753456467301,0.023532682745620585,0.08920893422872825,0.27144620340147235,0.12158574171461944,0.23605049396806316,0.03912165567787223,0.13137307184045371,0.02102993156716615,-0.2608883652592203,-0.640648113783411,0.296193705411821
145.5093994140625,0.9595947265625,0.1385033365921331,0.6969182317830599,-0.24000084287939105,0.527216933594975,-0.6342356835180101,-0.02737893326430691,0.09482460661363976,-0.124590745109686,-0.0012235671740492213,-0.17177739582803084,0.37640670988312686,-0.31974173932308947,-0.11356959371982596,0.11169883094854977,-0.033479545969909714,-0.08209150824989589,-0.15848002126369562,-0.020264672591221132,-0.0002542514292904023,0.018466469362111812,-0.015656845035900764,-0.08100741456324138,0.06580696556221864,-0.19490588729603775,-0.01675016018434369,-0.0076397234585744555,0.15903893782989167,-0.017476551381524947,0.032834409656406285,0.17478166562899286,-0.08513080201829826,0.12017683337985244,0.036219634293968295,-0.04956136987618921,-0.07301741902516423,0.06316552747020161,-0.0035524527406539438,0.2050835223267444,0.07157232610644174,-0.3255965100722876,-0.0970268282856803,-0.04601952528309233,-0.06385149156499745,0.21150255471631016,0.0977846408091696,-0.15409122926006574,-0.16110211821972228,-0.12047498455644845,0.16939424103263598,0.059310947787184626,-0.004420003459149391,0.0858235451706889,0.0035573175642340804,0.08853459409118666,-0.024843816811176516,0.11351189108647877,0.3538976893501851,-0.23850445538722703,-0.28013189846927933,0.28172115153766064,-0.6901431042144599,0.38944382244737286,-0.2475405667443994,0.5217123917766889,1.063869932833187,-0.4774615677463214,0.25188223883695443,0.6719330374473987,0.30029071743444663,-0.22213053893478168,-0.3066104607109058,0.40027756865836145,-0.3301443323124217,-0.09615557770720237,-0.4012333380253539,-0.016524906331815206,-0.044313054575016,-0.1987324281319424,-0.8389405998954333,-0.5971118152789687,0.11696337726107148,0.5395295508622313,0.002284187246278782,-0.0035113071035063077,0.4245101820132058,0.10674449533480262,0.21106546944038276,-0.11025383861364382,0.14590079203013853,-0.04954319174062375,0.4024374830433445,0.5012687140890469,0.13601894018313232,0.23519537435538704,0.03866242450818881,0.1835094224503856,0.03942734646248161,-0.8002291545822782,0.2517412926426807,-0.3003317829771257
146.468994140625,0.9105072021484375,-0.1778715238508169,0.3690886083870648,0.508871983968915,0.10434059773125275,-0.30874997287915407,-0.04177864863433443,-0.15549438988830963,-0.17364064748375044,0.42810812121917985,-0.7686626171602994,0.6711002497648842,0.206109757441892,-0.15652686731145285,0.09241944001723978,-0.10752002211264515,-0.044118306540543065,0.10994154016535862,-0.0008891002045583879,-0.08711379624587613,-0.030447173607451333,0.02006044487155581,-0.09825881390187627,0.1037278094776625,0.21990725502323813,0.0726544073905207,0.08755412302851444,-0.07504399921070677,0.08827309921307286,0.02594057157970442,-0.12089701507232793,-0.1456710056518415,-0.05128073335634732,-0.2538072764309769,-0.0618483192358077,-0.09101226491760961,0.0012937213000967208,-0.06337171862687946,-0.05070917412987682,-0.15206585586236485,-0.14434221662801183,-0.09983130507876568,0.07745025050366636,0.08850051288041082,-0.19314923612066012,0.029531634964550604,0.11508811288087534,-0.21145346793387715,-0.007186485296852832,0.021834611678025778,-0.08443569419645988,0.06186077066467003,0.011768376514925155,0.1187498143210868,-0.21100728572625002,0.10121482713779165,0.4335319649738318,-0.1436713844087027,0.07681023831701489,-0.3350114502181971,0.7548480961132673,0.2765988064029669,-0.7400459088009487,-0.03701401970453154,0.3195414718884024,-0.9025047344241919,0.5129664667495814,0.32998536181918553,0.6516802805932849,-0.196594932738486,-0.26720845766685264,0.10661183198481013,-0.4448353119532908,0.2233257526869158,-0.7800364463971471,-0.29769712544007326,0.14471125681155195,-0.25359222169856466,-0.33586411870052557,-0.18672984053666836,-0.4992619458650679,-0.4765927220175392,-0.05444790235417579,0.4913343031258054,0.08753850454444966,0.1936269890293007,-0.042076288058569306,-0.2776891691010311,-0.15144998851061175,-0.1321448786718587,-0.07771993010643605,0.12274966628566814,-0.17445644170902017,0.2726151334581711,-0.29141520382670677,0.0589653613180092,-0.37439736732245016,-0.131841986368204,0.4955551176200852,-0.27523176558759505,0.3910892295127923
147.37950134277344,1.000091552734375,0.2110053954168818,0.1436500062220363,-0.233603981100426,0.12314055794017471,-0.1456971394096842,-0.05691472120150447,0.058232427758781485,-0.12064465703676518,0.18637098314707262,0.13514586518036717,-0.15632017803247938,0.1291454814976804,0.3029609503142016,0.0012273183880782135,-0.015363573673269588,0.015268381917105342,0.0323964692175549,0.01582281519643347,0.13261397869712604,-0.04703095791735803,0.03225637247789592,0.04854867913643791,-0.008675264942137769,-0.09075888105872436,-0.07983195753817125,0.11094662763915653,-0.14340427000000852,-0.10139783271210737,0.16058220952675525,-0.34539175360612717,-0.17987666034067895,-0.09104933901351153,-0.1341533136397131,0.10013295935754309,-0.0950794517309625,-0.015516885139358796,-0.019305448125078575,0.103424486010693,0.03535324849692612,-0.11074663229326157,-0.0032043804695960527,-0.0399338007754903,0.15757901193626753,-0.22400092525427784,0.13270166357488053,-0.0372119887631777,-0.010683460830737464,0.24766506901573007,0.1995997128143749,-0.032242494130706074,-0.030689338870134586,0.0002624168460707493,0.11767681161249278,-0.15097091193948617,-0.12060520543289939,-0.6386570503422045,1.2057026460380318,-0.7862935462565795,1.0117064004964649,0.21176166061415597,-0.10585228275428642,0.03762427879354402,-0.3700364148739705,-0.2023309707770727,0.6148143566759404,-0.5681443301149883,-0.0701219030294352,-0.6598959003548527,0.273821022178261,0.3625721109975225,-0.09901367311610332,0.09314551451704653,-0.3187580849793278,0.012483334673672046,-0.008690077585360237,-0.7225392005118315,0.2931234549103315,-0.2768912359758607,0.14819897773068041,-0.3363706495604379,0.0023599646454557366,-0.22844919959173282,-0.0627709806764562,-0.0846959991340936,0.03376708547807565,0.18938549701471658,0.3924204156936995,0.15121588267186142,0.29030658769693807,0.4352204830568652,0.007386096734865871,-0.2447307219339072,-0.06965124808403028,0.07470480224226339,-0.22679685496925175,0.3108031883461016,-0.44602975381091586,-0.02943404009856774,-0.08726741558213252,0.2634861695977437
148.3795928955078,1.0601043701171875,0.18717443624049374,-0.5046548788395848,-0.1213543642984789,0.03773443855773088,0.0933125477518645,-0.040071104883614386,0.07676162404642008,0.03779435033283701,0.04391672416551595,-0.08550557992224542,-0.10620881246119286,-0.08663760821219196,0.14424273788589068,0.018312134607676358,-0.0492857882718809,0.07195418355279425,-0.08328806813309793,0.006045515144753573,0.012857272364642515,0.011363893895900801,0.24266181769563863,-0.05500186533437576,-0.09155655972771146,0.1508082564541453,0.22702180095062746,-0.007919565127067362,0.01007292713528755,-0.17387870291370328,0.029598882307001907,0.11364784308238476,-0.1776914748344308,-0.014628420859414543,0.16894956639805556,0.03585931532522637,-0.144964530802338,-0.24065936784898675,0.14195975058708252,0.18486987039843772,-0.16543894853597801,-0.12304496973907524,0.09159780647593459,0.250290093543212,-0.012721317893888381,-0.13108370738127167,0.1617423951705811,-0.33213525261497046,0.09639647298743331,-0.2285340225058204,0.08242395418210799,0.020887420821654103,0.21383884459168667,-0.15537701384709776,-0.09868125165370191,0.028219116466431535,-0.034477326687124374,-0.06037238458256085,-0.01274199379798796,0.16975295569239934,0.44690844149608006,-0.266343719057522,0.4338136507125372,-0.11113263028058343,-0.07678752405614815,0.08960418280788691,-0.14726749636775957,-0.5879432585656205,0.555833984935551,-0.11118020130021769,-0.17311573026936852,-0.037665209538005354,0.09966298562702683,-0.2555874259497878,0.014025683460720119,-0.5089194959036387,-0.14742243826973622,0.15643007224063787,0.3292179971502759,-0.10069547941866365,-0.00528984049365614,0.01540013542963043,0.030369940004113718,0.09040749344831985,0.0378865039658127,-0.14291072016142486,-0.16838616348995536,0.13636048739623358,0.044137882214589814,-0.17888001178718768,0.603851682224012,0.03725754693674002,0.47783649595889877,-0.08479401453111048,0.29181493666778485,-0.2376538965378338,-0.2493623513925744,-0.7536877038596971,0.4706001931838658,0.16611129153462753,0.12080977403232823,0.15643706771066196
149.439697265625,0.9300994873046875,0.1288805512820071,0.05397683448889841,-0.19330392343149544,-0.2839501525246232,-0.19872610178024713,-0.11536167637782041,0.1443726031106932,-0.06491475389117614,0.0022732104587930776,0.11589954151251873,-0.13787958976605444,-0.17051256190604666,0.1176963062002715,-0.0033738014069545777,-0.0016898720109151438,-0.048373247724545605,0.15217940690194984,0.018684906583603625,-0.13483934943346992,-0.02815956564159308,-0.10097211197903985,-0.07343956769309017,0.17809699663059467,-0.043638892696735355,0.02234322137873791,0.058016084775646196,0.018579743487810323,0.02449405149052902,-0.16770774955380136,0.22225562686517658,-0.12207597927645585,-0.23497942284883558,-0.24863137747394687,-0.15558333935910026,-0.11370444115992487,0.09612180391073628,-0.3507645888963195,0.17290090074997205,0.30021577573814523,-0.002504041127008634,0.3281623208770794,0.05785378325108272,0.06454348444018532,0.21776735749661796,-0.011350510405372062,-0.09953521579601807,-0.13895912363038748,0.11324073123809845,-0.06511499582626622,-0.19334401860813827,0.02141503111228814,0.10582807923010602,0.017917329808048943,-0.07410390793392306,-0.06853972092149198,-0.16153193819292413,-0.33881126799761335,0.09224245145408654,-0.05514237044762379,-0.03700873084235884,0.12238166642536148,-0.143806532026445,0.35462276313335395,0.9078221687855067,-0.2732812289797476,-0.4143001807196357,-0.7126927648290867,-0.016993741864359348,0.6737824705393858,0.33331940974462615,-0.38113102632940116,-0.14249786031212736,0.0423954015015019,-0.2887549149340009,-0.5117828807958023,-0.4141795839382764,0.10512815612160807,0.35935278841087814,0.01407501014995656,0.4906756062784649,0.38518713475686006,-0.22732858992969066,0.0028245983016555627,0.5174485864815652,0.07885432909322787,0.07650305470817095,-0.049090452579343836,0.061435753276444564,0.11224867639831952,-0.029807628706632262,0.09383167658164723,0.10691634826057662,-0.709624402275352,-0.085223715749565,0.007665010702023901,-0.021707934436844788,0.08788071075315576,0.0675146657703764,0.7513608190155203,0.8166863318031635
150.3697967529297,0.929901123046875,0.6852346207770228,0.292254228592101,0.28497664881034795,0.0929899726990482,-0.14213312810915127,-0.20312688697876155,-0.44252001177200007,0.20693714533247107,-0.004446868708090986,0.23271670071583303,0.36597216519470693,0.28524737792886506,-0.07942417857180523,0.1518895969069619,-0.10347781989928945,-0.16122179906315467,-0.06843491930895793,-0.013288910713513314,0.04139811877360134,-0.24262975448849025,-0.1731131258319778,-0.19589895506096497,-0.04462979782534351,0.09181864360985584,0.05431513315726281,-0.0008643340356493062,0.14094899842289932,-0.01406020575161786,0.026941122733652276,-0.09210403195344562,0.13207288217358695,0.05983740935404332,0.13106393806642944,-0.19454350767567502,-0.13143992580453864,0.034737785863625956,0.058327456155196244,0.15605851643671745,-0.07310117089124443,-0.05668810959432144,0.037016983234070724,-0.1673262574594527,-0.004965124592823133,0.20900570070634,0.19188459980618114,0.16960610593371692,-0.1501204297039347,0.07134029730216424,-0.12779798211014784,-0.04560966555593375,-0.22231757153124374,0.16010192463562858,-0.06891024860293958,0.07228568309320062,-0.15920514170935512,0.30063306861663996,0.12085737572887204,-0.25872755202261466,0.8422517086728173,-0.7179401132102046,-0.24675797455847331,-0.6168866048066525,-0.4698785454077395,0.4039222776321788,-0.735660586099607,0.9487929336612121,0.47541378036842985,-0.6908564102623783,0.11083067702806587,-0.17953762930042677,0.02267245915244694,-0.8278525845256859,0.5245019813204584,0.11965034875512869,-0.5778764141921292,0.39513170867576497,-0.02469726365837846,0.07839893034604485,0.18588165302432935,0.3258865033333657,-0.12414779765835901,-0.07659431308501563,-0.07211302574236758,0.06108896642635629,-0.0054484560640972735,-0.2322376517722545,0.4154979012448036,-0.1124767958778739,0.06117611131474412,-0.1931973802149723,0.2621240111060847,-0.17147592492522634,-0.32099194371597045,-0.11085545117306644,0.4547539503399672,0.43322303764467046,0.36860676947274446,0.4266242507548935,-0.08910905802616648,0.2207929345172625
151.29969787597656,0.9499969482421875,0.09669809384446475,0.20288198701914384,-0.27087537648461196,0.12291289422432902,0.08499901032920823,0.2708538194144271,-0.12362167659363264,0.08258471249072372,0.4093492805524468,-0.02670345295962242,-0.07152648129360678,-0.1270698054402573,0.0044412944482710255,-0.10257186568310767,0.06029212468779361,0.09604532750475588,-0.03412558920129871,-0.06688858014510468,-0.02026792247177216,0.008261870491408942,-0.09960773369345127,-0.03152243692813703,0.10719414364162136,0.1741677215078547,-0.06841788907927697,-0.05518805732741475,-0.1675147130053023,-0.05121155232053281,0.00042402955471514125,0.16886384418059225,0.07572843415669052,-0.05334338055650568,-0.14662940058088375,0.05668670958523668,0.3603287026103389,-0.03869476181449558,-0.12144297170354566,0.05393855578083484,0.0331392541229375,0.10536730776187257,0.07397387253946762,-0.14060115069573959,0.0003031230170435885,0.08193866296847031,0.18716481526274695,-0.024584986511991647,-0.09850191897524406,0.07686126770097575,0.45730507731008574,0.10337501588257526,-0.14839643417773288,0.1270702270368043,-0.054506154006568316,-0.04956152657465052,-0.05016095940349838,0.17838818567756592,-0.285786088352437,-0.44195658040155333,-0.38285060086228934,0.17650047532700758,0.48339464793087317,-0.01873717901458623,-0.4263152319514524,-0.37790083935606156,-0.20313046418775688,-0.05309669399821268,1.0268752516735997,-0.6202994837536248,0.35876565749319306,0.07284619033053286,-0.24723254756296598,0.2981352136412756,-0.6342767117302089,0.13570652230371322,0.4938804470999952,-0.10774486575282308,0.564392699165843,0.22868391781395947,-0.14499842561365933,0.026898236165969293,-0.46006665913109235,-0.4319317999790262,-0.06692815012432114,-0.07353719057942777,-0.0015874239610208785,-0.006322481947054925,-0.24932426093664078,0.04848487133373657,0.5399011840309658,-0.18119508323389522,0.19020277116463036,0.06686078387839037,-0.2570909805036,0.33672664121206214,-0.25933919831928737,0.17290281688298806,-0.21429866306725204,-0.4025643499509281,0.1602896988814864,0.19283909976438923
152.24969482421875,0.9401092529296875,0.07548371356675278,0.3231413744714444,0.11710817452611573,0.1591921072514777,-0.1472035646732814,0.019096703574506033,0.21160811991226722,-0.14014103167147188,-0.14871339186244908,-0.013869929501442481,0.2998373610795534,0.0004116101867151431,0.08994509499560827,0.1693479605033156,-0.1686282249017592,0.1094393517730708,-0.4042262140632474,-0.04438386930287917,0.02691074316197796,0.05678731435525471,-0.19600604220688223,0.0031499367771826,-0.07749591663385716,0.15166473389856452,-0.02017223769454783,-0.04058094958620791,0.06320011669481683,0.080098879100703,-0.1860125031297087,-0.025568738858731368,0.17634927851637244,-0.14302489430221754,0.08987687992029046,0.23245566155107683,-0.06177475455504792,-0.12903861990540094,-0.04304468687722236,-0.059742337768527595,0.097139373275854,0.02140482442439101,0.21384713604735364,0.015710599186681655,0.04059847216353697,0.0526060626679936,-0.06424433415434944,-0.05185714367317602,-0.151866847794921,-0.2042914870655267,0.1683474203230041,0.018686571251830424,-0.050584806961247994,0.1294636364663166,-0.08893809059237617,-0.037279731542799656,-0.013904134128689544,-0.04241861264754013,0.05099705359107619,0.419603601367073,-0.5688839763591601,0.31226086786976437,-0.38390679677216866,-0.28007419494359825,-0.19939870694203732,-0.4201447169460053,0.04834980994089859,0.006660864439500203,-0.6398440060841379,-1.4950078397283406,0.7068723962274984,0.06570890216194679,-0.15380591038159352,-0.1375926021604178,0.18517002745038563,-0.054763048396420766,0.46193758927866235,0.03379128178049937,0.46296841872688704,0.25826929161654993,-0.2209211261129457,0.4175195646242627,-0.09828879124464036,-0.1492493435920699,0.26755849994435754,-0.061525740840392376,0.023050704698116792,-0.008437593002859659,0.3202095166962254,-0.26086292609933365,-0.06732593795306276,-0.4665961949469716,0.07071260826842889,-0.2537379474838629,-0.008199820062741128,0.025456731604100082,-0.13273393671697875,0.13597688431793883,-0.26593928538824424,-0.4667688022599232,-0.3650003879833896,-0.49066021955657246
153.18980407714844,0.92999267578125,-0.49339122142698005,-0.5012643575780427,0.2825635427075008,-0.77532827844403,-0.1379735228747243,0.026420453957841733,-0.15262310071348764,-0.5863443630938928,-0.36718627894079686,0.5283494490430521,0.6116721338412653,0.2617858905702154,-0.283097229980024,-0.10272081537405711,0.06730664487592312,0.10356032442098201,0.16056052160491563,-0.0693581826072866,0.03998588268258606,-0.0173191120079872,0.035511323223318424,-0.10148961112356047,0.005451385953320886,-0.08922964260972063,0.15239451770868012,0.05431511888418067,-0.012475254745870357,-0.05495863126920537,0.0970833350397547,0.09291766074240558,0.07009346430897698,-0.045430297991184754,0.2549776737189229,-0.21555989638835193,0.04282859418304247,0.089729291680796,-0.08541247331836789,0.24698979455555692,-0.09332916180305946,0.23388360411621956,0.01975230465450714,-0.014082101262530296,0.33747595742136016,-0.31323046069880106,0.056485293747391606,0.11839917035672473,-0.09022747118830222,0.13059322739602108,-0.09623744153394752,-0.19888601840887454,0.04668766375490681,0.08854031782909033,-0.07936900653675749,-0.0016768393767639111,0.008010444492954686,0.0777464473933383,0.14638434240303272,0.11767460542239333,-0.06181479834570125,0.14024917583912727,0.9281800961044525,-0.38998742657424534,-0.3997013737306383,-0.54483277670205,0.5085593808212414,0.3589901360188859,0.4908089390453708,0.13679805878819906,-0.1844601744620134,0.019665706636308088,-0.05205379590163789,-0.19853353730635395,-0.3981656492924424,0.05409959493976091,0.2286579096097934,0.7138030488059908,0.10745917810386355,-0.2545813660058645,0.23737441737459386,0.14742759783486226,0.2809668880961936,0.10369897415787083,0.47512874561664586,-0.2596111079551059,-0.18682114969027772,0.0024847902454018453,0.24573358210571783,-0.28585357759015934,-0.27632689034701396,0.03368918868226519,-0.20383256733287508,-0.1908175287471811,0.4131049232622682,-0.5122879912625701,-0.0018742487968707927,0.6841960223868502,-0.06620340333070471,0.1558946105743713,-0.10495610680994996,0.05252600174760126
154.1197967529297,0.9402008056640625,0.2242614093041828,0.5676643245323432,0.21176441965992981,-0.5401704968979257,0.19517562437116845,-0.14526256697988765,-0.06825415311956151,-0.1518198506168413,-0.024461557424288332,0.04561044477243269,-0.06782912526540066,-0.2784488740924023,0.34977717646316797,-0.1784281258877034,0.17807981461696767,-0.04652033451102752,-0.29399843082909255,0.20359423804812465,0.18240737247367514,0.018249009694572008,0.06919737902150049,0.01726812255838554,0.09798392654917529,-0.025004935976119122,-0.0424397094624194,-0.08503210366463043,0.054280254031349784,0.04083278630645196,-0.27815449336977477,0.21511268167086617,-0.12409209856465217,-0.04139539168973121,0.10178108829360763,-0.07714459433426403,-0.04104630756116981,0.005394167855954243,-0.09555569943886429,-0.1576725556948865,-0.0009032534826880975,0.021856521485050753,-0.27892062026739245,0.16603119640849456,0.019100705522962298,-0.06311374913454257,-0.047681730650414506,0.02423870950497587,0.13680525507175237,-0.23320661681435836,0.0674520358510893,0.015177658312273187,-0.06799773831859102,0.006563895542663777,-0.15345571514322365,-0.000944768649146941,-0.013011738123669122,-0.420803040193791,0.06814240890357642,-0.19014513374637462,-0.9130626066428292,-0.574714403154051,-0.11538505343375538,0.010693144081261324,0.17645877314223465,0.37578927321682554,0.5813335793817132,0.8761191469363186,-0.21111240698894576,-0.004516023530813096,-0.7499773921245299,-0.04553745945306134,-0.20119747003666455,-0.022026810499747092,0.606292771216294,-0.15838699114529556,-0.03753657220342261,0.0008250356929352404,0.14238042747328536,-0.28982685980787437,-0.10390275584114093,-0.04936418665401368,-0.07656155824699984,0.38752487217339215,-0.40660167032880945,-0.12863268454205357,-0.09431357495409495,0.17872995781520593,0.09893606975710731,-0.13336176093778399,0.21790696006306218,0.13038587896221832,-0.43209520902994053,-0.16027151389130467,-0.1013179144836123,-0.1870588847983366,-0.02145959583415325,0.3239570098339177,-0.5268519358961772,-0.23424455765355598,-0.756898983372707,0.5085517297664963
155.05999755859375,0.92010498046875,0.36070939926705936,0.3982487130509982,0.5105023546295667,0.09894156492973288,-0.2488177761556104,-0.03594856649277492,-0.41398718774333915,0.42832796931960937,-0.7574598644636323,-0.3095578602204857,0.9689462249012585,-0.9319446239899573,-0.07045846022354371,-0.005499831008037963,-0.049568104181806086,0.12434879320135578,-0.00381205247109328,0.07117066261036514,-0.01115134253170757,0.058913778130754706,0.01954186337050532,0.08295731887764808,-0.13967732847377476,0.03550489218374616,-0.11412613752215703,0.15324037050381056,-0.01441529711715285,-0.1275785689317873,0.07735483920656075,-0.20753504573835546,-0.10943951452787236,0.0229823140524749,0.017902629074989976,0.03169681510039342,-0.17718151643697022,0.07938593942302846,0.21596242649120603,-0.0350855391251681,0.0201719734224126,0.1055257881413734,-0.28163261614394114,-0.1247499416813068,0.09805916248526574,0.09829050314698,0.12434779490165486,-0.04989803534593602,0.3382886846360921,-0.16627470899802055,0.06327599673166258,-0.206023659491648,-0.1166603483782666,0.12046517346237962,0.022891912094112406,0.02247505147566041,-0.014624534355564277,-0.05631533409534856,0.17400744783799063,-0.2968604878640007,-0.5695862794228217,0.17301051298237288,-0.6295586944296607,0.20750436559556223,0.250004556849178,-0.36499465423087973,-0.4693805016764013,0.49352993189588557,0.5452905979124717,-1.0589500732004236,0.012313286278179382,0.42806049679889585,0.03719173733306777,-0.06454395693653238,-0.06978787981501838,0.2838820761130765,0.15147487132891402,0.20434401796376717,0.4104069660639053,-0.19842590366062696,-0.005173695962172447,-0.33528386326058074,-0.14979212045047333,-0.4837859489274382,-0.3514656705093919,-0.016011376717556036,-0.047486249881908665,0.09213678712003215,-0.2290793024190686,0.2817335733072711,-0.2405076228907998,-0.14301709902061363,-0.3171948838942814,0.17960335530085308,0.21915343305861368,0.31880828828552504,0.3723447565820652,0.1853920622446444,-0.04970902345654293,-0.39860124215094084,0.6766965698856019,0.1317366458455372
155.9801025390625,0.899993896484375,0.31241324811575244,-0.2696604521310615,0.21948335390534085,0.14949816741759234,0.18463291192610704,-0.2860374295286595,0.04760649375659192,-0.0894954698450418,0.18141075751494629,-0.1709904562022785,0.24623702814817783,0.021148810860059875,-0.4201303661990193,-0.2267586540084729,-0.021895554683176253,0.0676820909213246,-0.2259175525974365,0.04174500168297077,-0.06566697658385746,0.09468444261328457,-0.03817400014173453,-0.11955348713819659,0.013756691200134223,0.015188685674266726,0.08187661307482967,-0.03374551423343346,0.040035147592355054,0.02213461500947124,-0.1361934473044365,-0.14935925683083984,-0.11972961676166104,0.015974558112017326,-0.18362108575632446,-0.20903211170796632,-0.2675646721390519,0.047764193818470996,0.062122362629163284,0.059786640423609705,-0.18679030337680594,0.010197039474264546,0.18352692041988805,0.006735409742986443,-0.19805153453912647,0.09580457712373068,0.1926702186992871,0.07303802058579097,-0.34184059124029487,-0.08411635803906357,0.15890428241400878,-0.11277970781860663,0.16106947972471458,-0.014811221304400157,-0.04845144077091436,0.1977792791719498,-0.3761310506149314,-0.16110633814063824,-0.23815245384803885,0.3393562941482295,0.18179463749452268,1.2775456510714829,-0.3320356638827652,-0.8890306158751515,-0.3587679195814031,-0.3087937311222366,1.0039021002274233,0.01840212066764694,0.5549030222202931,-0.20493476107855285,0.07943118463029172,0.35966939691783484,0.21497861150655012,-0.11791930359292006,1.177109409588238,-0.17900725900325126,0.1332714924694695,-0.1150901101593597,-0.6144672805371525,0.6245704728186847,-0.2750524781739542,-0.3036672566220872,0.6490986541594356,-0.18437595403904555,0.04164344942073034,-0.17428967423593988,0.07664588891015094,0.06706171944959881,-0.3124051922385628,0.010265388056552003,0.4260019865637389,-0.33297977208860136,-0.04588057417249755,-0.4185245049774916,-0.1691494947863895,-0.04976568967950974,0.15641318300323678,-0.10161050445516134,-0.7212126974342223,0.14684664584910795,0.2964901463429856,-0.1498402837395938
156.88009643554688,0.9297027587890625,-0.12228207864101409,0.17660485475857282,0.22220488460292231,0.47663119361013706,0.28420641793649637,-0.593846483352364,0.001976110709498227,-0.03246056565958691,0.1983642485556667,-0.5729139823801722,-0.11772310489066524,-0.6071893053050964,0.10904358647922777,0.03516827403038317,0.2612779366396285,0.19662588115977503,0.024017080676734668,0.06212433369626083,0.026868208002523587,0.2029695700670242,-0.030882885973727153,0.054219042203608944,-0.07213317011779206,0.029200661049608563,0.1320288749486021,-0.07342366380533143,0.07034510845828952,-0.08946780007601109,-0.04118812055978273,0.21824707278318575,0.2779724020714853,-0.07463994825358412,-0.18629727896952808,0.2476515152210235,-0.029865398189964053,-0.0708299624709082,0.13712592445259497,0.14212489349673615,0.10061606197726573,-0.052421353129228666,-0.0396520732987549,-0.018934444938798815,-0.011665875631805961,0.08614722205969012,0.07867820724360243,0.003607788669364358,0.2233288802743006,-0.08210438085038312,-0.15265912609188392,0.020092030465581445,-0.10310149629870934,0.06527497379305224,-0.039140203166460934,0.08076229541088306,-0.052752510555570085,-0.05968386035084217,-0.16344658528040476,-0.37793431271815947,0.13383804273896785,-0.1939447610460904,0.44786648179588506,0.4732906252688456,-1.0754648424228064,0.14001062844784226,-0.523858154635158,1.1606993782620492,-0.2225981744960894,0.7706253778645161,0.19658455058663574,0.6258830015697752,-0.28521019725588115,0.03371938762359725,-0.19961518815413418,0.3060611986623469,0.5813273403178572,-0.560630647262296,-0.09194623601150417,-0.27540120508491917,0.4560303121927983,0.5392429864935473,-0.017717539076500068,-0.45835116498110057,-0.13886873909990236,-0.1923349014813064,-0.9342529797468959,0.6228762205882173,-0.3655475005076113,0.7076833497971867,-0.3434675365750402,0.23671351933721316,-0.15752885764252256,-0.05324830325218455,0.2417278472576038,-0.06374765504974844,-0.2897798720800058,0.6161072057726231,-0.2626256521128768,0.7978444376182998,-0.4995127682379508,-0.11516529054579883
157.80979919433594,0.9105072021484375,-0.25377357566631886,-0.03463384531683181,-0.1683005922999025,-0.33295147634751415,-0.3832140621029125,-0.15279456780940154,0.17841261504347,-0.0887324501843371,-0.04404372114138855,-0.1515029223188961,0.6178855498566881,0.47344637551344115,0.3867060745640777,0.07955829557197255,-0.2137657893829009,0.07319869972332296,-0.16015075219318758,-0.004849944104940113,0.015450707531854412,-0.021754641704869522,0.18433437189244195,0.041842691833014506,-0.05704882293089957,0.18375792705993702,-0.13450110591626147,0.1616586031965315,-0.22420456618492673,-0.09311314457873984,-0.02431407240075377,0.0068201712495100375,-0.16737733268648694,0.13550205071419388,-0.08467767451626497,0.2070418031658829,0.21633397078842923,-0.46421292148228405,-0.11936832810343452,-0.03927107353748574,-0.03231819526381203,-0.22427285267918715,0.33843395475838783,0.029230314044170924,-0.018395395321228927,0.12736043466677355,0.019392682173083077,0.04129870940607011,0.13595247465137694,0.11120854721640283,-0.2111657395424942,0.002871142115380476,0.025497184352727006,-0.03569972779406365,-0.03034831504970097,-0.06152084014710388,0.23486079737205315,0.10978955121413321,0.08065623396358314,-0.0776993095577719,-0.12731723243964105,-0.23478947005982845,0.3760323061951679,-0.5476793499607785,-0.1367935032872331,0.08097754188312295,-0.5261580904824743,-0.24042100884199566,0.3838402719686224,0.4597995320790165,0.46506756519283743,-0.06406877514774378,-0.015209794048355166,-0.185347504387915,0.4362435809190473,-0.693937176970052,0.3503331415324959,-0.257387271847357,-0.10272395182461946,-0.17490392480866812,-0.17122535613831447,-0.9078926807542383,-0.23195382239376203,-0.03920718873206375,-0.3877804212543935,0.10697686534053644,-0.5873849869639028,-0.6273103303725468,0.09850709522277154,0.23469493523781151,0.05474672885049445,-0.14867491034361954,0.4302178334494596,-0.054856791743429306,-0.24422846324691252,-0.22153368129589596,-0.26913825723695106,-0.0024967885522955502,0.17708185949489974,0.6197273557692574,-0.1911154038031268,0.5429756624541786
158.72030639648438,0.9297943115234375,0.5768134514421824,-0.21527816810941874,-0.4208490363789375,0.423024001749507,-0.2811983792876837,-0.048153036604775545,0.060843021681903885,-0.16135078152239452,0.01448946690413691,0.12260411687550608,-0.20123684017555304,0.5484031955178559,0.6010268190022027,-0.29578452352389806,0.01649244929104005,-0.15940284460699392,-0.0727407995568515,-0.16316785683411114,-0.10392773366121102,-0.10300822895413117,0.04127208003412848,0.17161764730813014,-0.16203290594542488,0.17017872331140876,-0.028801382541342103,0.10151032868724619,-0.23281966700752227,0.06684023580336934,-0.0778802800593596,-0.10277178553162303,0.11334401571036334,0.05143550106657638,0.025336878180991798,0.06635008327988678,-0.0939936883550524,0.14039070003069964,0.023662054170269585,-0.0026272885448662886,0.028048172451808982,0.008995644368487784,-0.07681500894583188,-0.018943312555190186,0.19412099107133507,-0.1561794952630531,0.12644732147446466,-0.2793842997435006,-0.005259115189223337,-0.21194532926380544,0.04375683838665743,0.11488081910957985,0.01120977914585617,-0.12037564897322917,0.011931979489473714,-0.028283359554750812,0.06353988440666612,0.021827081760860127,0.2533951990502169,-0.7800102852571716,0.39248546507451043,0.6592196504271889,-0.1164234717312986,1.0222017630326854,-0.3322292371224319,0.37122867368853585,-0.190657001016622,-0.29616518553843973,-1.1934705453359613,-0.10830762310948516,0.6966384181533009,0.5153614088488241,-0.04267535482828695,0.6710901390133991,-0.6066027480704067,-0.2398116370948995,-0.42624187036088657,0.5976120378833312,-0.06250121189654106,0.27869458425141946,0.3355036633797731,-0.4163174090054194,0.064190420285483,-0.12479347321154806,0.09060718891156479,0.053880679615934075,-0.007675835317082838,-0.11470143743049087,-0.24574800485732784,-0.2725516576615544,0.23727354918414945,0.15831811377950483,0.2362946467172859,0.08189495138209098,-0.018211938887573567,0.15569816197853853,-0.15738554998945686,-0.14634411755389654,0.04519857165185477,-0.0963446947825579,-0.33018328309685874,0.1448888237907232
