start,duration,0,1,2,3,4,5,6,7,8,9,10,11,12,13,14,15,16,17,18,19,20,21,22,23,24,25,26,27,28,29,30,31,32,33,34,35,36,37,38,39,40,41,42,43,44,45,46,47,48,49,50,51,52,53,54,55,56,57,58,59,60,61,62,63,64,65,66,67,68,69,70,71,72,73,74,75,76,77,78,79,80,81,82,83,84,85,86,87,88,89,90,91,92,93,94,95,96,97,98,99
65.78804779052734,1.1211013793945312,-0.11542901165716918,0.004960519984134475,-0.03197421255576103,0.06312574016021699,-0.07086399531109995,-0.0020070922714515525,-0.19693626864236863,-0.4455761810580324,-0.027414954704728677,-0.3385301792213246,0.07137497857870341,-0.12629002391891908,0.07008585024345203,0.021029719716220967,0.06546167468874103,-0.005819452146715778,-0.07724649612073445,-0.05635698982245363,-0.09811620048966542,-0.08984328718036724,-0.02107842492018118,0.03614098441417495,0.10186920207699736,0.04128105933140214,-0.0550937197013498,-0.41610286568433363,-0.016965691282577692,-0.09368329400565482,0.31221345934978506,0.327759560138125,-0.07279305344431182,-0.19472325367474627,0.2725710040029424,0.1837259118149264,0.00032441257166974653,-0.5931509935016616,0.31785766120208747,0.21899398934015493,-0.19197439221329587,0.11284025370584404,-0.07441564708024803,-0.1050099259351829,-0.22859712231014923,-0.0009729362306631056,-0.17808669319532647,-0.5893413705212243,-0.39301286894180143,-0.18069070469964343,-0.013898009402837988,0.2079380196412419,-0.7424561333744095,-0.2146705147877437,-0.05746970709278401,-0.24188704675023925,0.038181481843364395,-0.0909046015716934,0.10882957578454167,-0.3039886312047659,-0.3160703707525239,0.16666381890772772,0.0813398105371925,-0.07166124132819637,0.08897088287588391,0.07144325896327924,0.09995374605611235,0.08597261784719093,-0.017831180348764502,-4.302211464941421e-05,0.01950063530851883,0.016526181938089336,-0.06684794112769306,-0.17374078062903406,0.039793108152098404,0.021416380941152557,0.05175854122995546,-0.0337523701442357,0.0003509904002647335,0.05104060069494594,0.016758387954884997,0.020255856515869884,-0.10013902327822823,0.0378280035296242,0.03191391970798324,0.028025085165141544,0.08766862787924408,0.055409281996888715,-0.0042532713108756545,-0.08139011032183757,-0.012734501538349874,-0.00076805835647704,-0.004403062621301329,0.013749232869171485,0.012723450313604244,-0.00991723593366959,-0.04529443196440186,-0.03263934960632244,-0.05912827804169932,0.14200485429518994,0.016138482281712392,0.07721172881382476
66.90914916992188,1.0512008666992188,-0.05194465144016583,0.055599346994132576,0.05465629269305116,-0.015356453990926512,0.02036948402105794,-0.0034359736840480284,-0.1122873941381245,-0.029465153628606695,-0.21246074437488927,-0.03764945325677454,-0.07654890074108897,-0.0622993046336001,0.019591909722622425,-0.02919224514891598,-0.012604616585792972,-0.10978768156551165,-0.04643423677243235,0.0563456482205139,-0.057373180546903525,0.16157095066741145,-0.1163217072909501,0.11259251471314621,0.037806777965835925,0.24942593551726494,-0.00643567522336097,-0.09456916602732772,-0.12292874567709494,0.2343867987965626,-0.17347628660340067,-0.09028561004214156,-0.3302727117933799,0.18377967500253067,-0.13092677117320625,-0.6552328630843699,0.2767975549849319,0.3380679527655886,0.19760886934205046,0.07981844300266419,-0.9024156066179636,0.010154444478445379,-0.014587031011293062,0.1610635041308991,-0.09870712166647874,-0.11892966291601699,0.2135231536065566,0.0889916044833268,-0.3692752913771078,-0.05040681522583294,0.14367969698919053,0.23074083428285072,-0.35886875037003235,-0.06847817706262091,0.11069194757201917,0.07090121237187165,0.2630889138478584,-0.24334081841995203,-0.0347909907192086,0.014606066793194993,0.05745055690062897,-0.1510886388210062,-0.032568221971604576,-0.007977509735910906,-0.001571857592523613,0.1295869392993248,-0.0017434355447992315,-0.0660942716657327,0.017116533893983415,0.062244071038347296,-0.0981728767930298,0.11604509474840634,0.06778093853478856,-0.057444105957047374,-0.08202966878068713,-0.13650494421486398,0.03743417871135138,-0.025772183614690244,0.0024327449892918005,0.037851282219891154,0.01643846201646421,-0.004970895474712322,0.1127470700428332,0.15130613564624426,-0.03992315002317759,0.046469033620250476,0.13262898074753177,-0.013431346072696665,0.06246320203503243,0.02366174254459673,0.00897847020254832,-0.06027393182799273,0.02551195236129923,0.25143130961976656,0.01582705961553827,0.1512011904954086,0.06850189521126171,-0.03411193027691721,0.23679771601412578,0.17486830005363574,0.053546057830572986,-0.18156685680641255
67.9603500366211,1.1411972045898438,-0.03309286948950274,-0.15167477815659222,0.08948300554706431,-0.16390287765514,0.008884928479509932,0.12962148201632986,0.061230573975245256,0.03565031760143583,-0.28833145857060605,-0.08247708281369194,0.20838933809800994,-0.012363957317427243,0.05849852984898575,-0.09155890422464988,0.24170772503166754,0.20934060895940249,0.05555309339105616,0.04257665085091774,-0.050919540947394246,-0.02212371596307075,-0.16972886277890725,0.002812792378516472,0.09580104837788177,-0.03530099688493547,-0.02352022479366367,-0.01154261899379159,-0.1144981709142052,0.023841237477211837,0.0058436800794612435,0.011661897117073359,-0.11096788562258218,0.12803860490837274,-0.38214903225791774,-0.35614279330579085,-0.2009192843681925,-0.13731579418111858,0.15471762606725017,-0.040902496994429244,0.24402126844711444,0.49073850662477814,0.6327646614538155,0.4445630612796916,0.2920029869386505,-0.0315439668854657,0.11328791063313808,0.3070725533990504,0.10745081625693761,0.09062819078524098,-0.1635037390841565,-0.05350696740890663,-0.1595238438758704,-0.2767405963723597,0.26981345345160823,-0.017601381971090728,-0.4482837104655957,-0.06610880606754269,0.3454595847582764,0.1507284286211865,-0.05560559960217441,-0.005908999874718428,0.005886294861247953,0.010495735786626409,0.06514423326323132,0.025949274407009223,-0.0889467265370438,-0.0923857686551131,0.06905326214972658,0.017583327246291594,-0.10486154413330807,-0.03892831493846773,-0.08112437453590748,-0.024785303550184223,0.007350688304611672,-0.05595094137337485,0.006235702791468826,0.026873455809229924,-0.025083157779495054,0.20193947252344996,-0.021306036745117628,-0.09872418910490874,0.06662205154845033,-0.03734625598197459,0.0637489012524925,-0.052497405063784544,0.04143519107651751,-0.054137826375056375,-0.04262158419129719,-0.05622414669607131,0.17956664946521209,0.06583266745979177,-0.09484976278287607,-0.035785545458349916,0.03212055495658009,-0.06471257265600788,0.04684025593152332,-0.07729928460982954,-0.16061654318114701,0.030064905617630283,0.010709866864529086,0.03248001282079756
69.10154724121094,1.0312042236328125,0.03631322360145041,0.022491404217857433,-0.021042321112601306,0.030496147232451917,0.12456871591346234,-0.03767589220268958,-0.0033575992997334977,0.07431370306200695,0.05209313526450529,-0.010725258623714568,0.05073428351791005,0.1365071814497906,0.07357183274537304,-0.005055104993825766,-0.15906513656585883,-0.1368370457346234,-0.04197525188396574,0.015644646835598956,0.06723722235914502,-0.19431176676814715,-0.286753000739403,0.08848014280268199,0.19776833878488792,0.08237058887998175,0.024643042770465404,0.0677077317752711,-0.011288654115833286,0.04754319829445759,0.014522017009282333,-0.008760704961967264,0.13091789543022075,0.13968783961311418,-0.09247693572387242,0.038486537651296004,0.23856251483279087,-0.03881217800694939,-0.15071285643129656,0.23783569036562308,-0.23432186392154042,-0.05789340398976045,0.452179118859329,-0.05970195251189818,-0.6352549164485605,0.018142870460236576,0.11174705902537613,0.4091879179974983,0.05568609731732808,-0.26117867696891445,0.3214153026128938,-0.005229119957710082,-0.03334479190221784,-0.006732916833328646,0.42257828082963517,0.45916091179438673,0.07754129265395002,-0.09119106006748157,-0.38328113704747857,0.0409765257682404,-0.08229921496212958,-0.2205137437557327,-0.12104610399180453,0.034347718181492036,0.0836817958756727,0.14283975689284903,0.08482961880182954,-0.030702884438717576,0.08319425498311332,-0.038131681397025864,-0.1452719478462466,0.0320553074238802,0.07919511217903716,0.10839180156162263,0.05441495241338285,0.017953119509815003,-0.012491784234635905,0.07803717186155953,0.10681231635431403,-0.04649272749072644,0.037873422298507514,0.09764102056327711,-0.1321499546810498,0.22090474075751038,-0.09468752068817203,-0.0069217468508281504,-0.017654493226348184,-0.1692491661073675,0.031001513320656045,0.1053167102678842,0.139443438759904,-0.032707910357823666,-0.1928042446061067,-0.19874638300509923,0.1301120502755853,-0.06526522493678841,0.020177692021804125,-0.01887846810551002,-0.10361245697817013,-0.03677170705397889,-0.0005951621605342176,-0.04618764352507199
70.13275146484375,1.1008987426757812,-0.18448546623609535,-0.03754250255773264,-0.07568845075467606,-0.12127518378667031,-0.05277765667182169,-0.21047190650975672,-0.19633256253030515,-0.12872331869362294,-0.28587971413447105,0.004733535771345053,0.09403181411377773,-0.03058301716741496,-0.20757291496512872,0.021163037727051328,-0.06808958693383257,-0.1047127769400163,0.18094804486924704,-0.05924426084347792,-0.19055232459635538,0.04144060554221829,0.017246762415372194,0.012141753104899372,-0.09112378428149755,-0.08369788522492894,0.10865223808058566,-0.08808242585945954,0.12008539393098809,0.23265402265603577,-0.31903330976908867,0.34293852572765987,-0.1807812710972094,0.04806024506301519,0.022644359759798578,0.0028666940487101517,-0.19740358771880984,-0.716097345358271,0.2395710808458023,0.2750704850857019,-0.2393123519499259,0.06657126774208605,-0.2450690081604039,-0.36311752969869837,0.21632871440583923,-0.6616960584485545,-0.17422319290707097,0.0051466198154069415,-0.029185589286842777,0.41443377157896866,0.07711106903475459,0.27052314205864636,-0.11176537809235845,-0.09718552024097261,-0.20444288320931167,-0.1419723375413886,-0.19740347007498416,-0.0593147701406606,-0.12197306578876696,-0.1727580717916692,-0.06362164567993478,0.08895870248434048,-0.0672558287537592,0.1043282117352346,-0.08305781357843126,-0.11595812703953275,-0.13738200160814887,-0.008918801738550652,-0.008905283045432939,-0.04660125959679069,-0.014105930043698756,-0.026088864616960687,0.09461885218317446,-0.044048311643535475,-0.10146785385897797,0.011443993591482732,-0.041667641707379195,-0.029684627455155217,-0.0210814407782434,-0.014948750277640716,-0.25588123658168704,0.032906278015147436,0.05941785049657752,0.020362463728365286,0.07522336214416013,-0.031184309530341677,0.00494459637544529,-0.020298492806159082,-0.03554603388179567,-0.01635501064956566,0.008452223102673887,-0.04099344208317238,-0.06847338720653408,0.04719041380338602,-0.004480255164601515,0.08321709511132731,0.0025853003433191687,-0.053915743703063373,0.07423791084627818,-0.04429869654337476,-0.012537076167396216,-0.05146697757945179
71.23365020751953,1.10150146484375,-0.1838612542724114,0.03307384935252479,0.0854798274919582,0.05958739634970291,0.03709286857013659,-0.1458503032314401,0.0719037708423384,-0.07139286652125407,-0.0803059457129294,0.09621974957048396,-0.05743210979970049,-0.02704326280379617,0.1786391976471099,-0.024582984699325933,0.019896673383979144,0.17162307399847956,-0.005261458886341603,-0.06670239402716503,-0.7295385722150667,-0.018413645184580524,-0.29037681478291555,-0.040082143648780856,0.3936812156510783,0.08920575748121243,-0.05750081988282459,-0.22222132662089333,-0.022454990154482872,0.0986142263551468,-0.19520412829814732,0.318561121050274,-0.0663621163654631,0.10525232050551901,0.4610107049550514,-0.2646955848034007,-0.5730539323093232,-0.44287505393195903,0.09952257385528354,-0.16114205457122616,0.13779678046266755,-0.20213217995725968,0.009816080476286654,-0.5294583108184449,-0.1648007406464674,0.23521257452334915,0.2105489451895434,-0.10122141495897721,-0.26452861454943055,0.25218700878598993,0.20074866851129372,-0.10633959026545489,-0.16805945806434322,-0.4967293492818061,0.26048201569684654,-0.29581392979789983,-0.04790032136737633,0.13035496086171522,-0.09190851955501436,0.17833912741146085,0.014921084686502606,0.05765915068888242,0.02317465945249015,-0.15739635331496263,0.08407930331492273,-0.10800639353876354,-0.06747312697888738,-0.002568381316659568,-0.01749249187935155,-0.08915104219051355,-0.06089989212412439,-0.001834187596136274,0.018138885445921175,-0.014436860465286874,0.022803021536144105,0.07470975242869474,0.00998654364049085,0.06498136200252554,0.0727734482961641,0.015103603596068882,0.028619424281495165,-0.24496905349465165,-0.016429401322091718,-0.018022021451803857,-0.15085241017568937,-0.050205757987771986,0.058881559029156344,0.021244846730867087,-0.055638094651872645,0.07645258697917476,0.053241214906400096,-0.054556659292728016,0.020434034967447334,0.1356880674249218,-0.00840149004041274,-0.03161505476012435,0.08369000243283112,-0.12558069607684577,0.09899119727588188,0.04821506677834306,-0.04874230869273239,0.043216033831074335
72.33515167236328,4.204597473144531,0.18699586462449014,0.0493189850226719,-0.03709919064837045,0.09148154132285273,-0.009532319748547085,0.05045371024601251,-0.027497229791450147,0.012089485655488817,-0.10068903522459141,0.2768781362315942,-0.03775966363500842,0.03748258675686862,-0.3072037296001635,-0.12818791659159628,0.17686846384529445,-0.10106924711204042,-0.3151628891728924,0.5354999865914012,0.09836876614355147,0.10314559744379544,0.07071548483146353,0.014364422238528449,-0.047841618622063556,0.052737301398179975,0.2682920849517427,0.021118182649049543,-0.1152652510517758,0.13085382264858364,-0.27537468957598643,0.25751979406788994,-0.061207919732173516,0.04402476186998346,0.12217044856285413,0.049945797381759055,-0.06521405764270756,0.14281646256783934,0.25157122074994454,-0.0354429813289017,0.06489568135725937,0.2563157715595526,-0.015121360679168201,-0.33686895257720695,-0.139116528032244,-0.09364727135671895,-0.426545007698029,-0.17776970938761832,-0.031192286145396184,0.48890562759760775,-0.4783102329577822,-0.04580100976237607,-0.12039839822403083,0.15790272650960072,0.0032543918202089955,0.20978908699229956,0.06811327886156128,-0.3695725716759293,-0.11730991811464651,0.03779447459687904,0.24613877889268237,-0.0212679229058855,0.06324856296090339,-0.10377162019869404,-0.10762004066361544,0.08830821929661976,0.08211245180965925,0.04325518749068487,0.12667173183218758,-0.0174247886757341,-0.04615025055864658,0.042409303495135976,0.17369844317431152,0.026801368593693652,-0.031903197920911834,-0.05265962183003735,-0.09039105594454,0.01897740336436735,0.007583381473479795,-0.08744180003683123,-0.09948773713768624,0.5103883598565824,0.11124187508968794,-0.09176101067667805,0.07110366636418201,0.007311457531798697,-0.1410288432862196,-0.016295843500617812,0.0016347978872237046,0.08057911450697638,-0.028865927757485244,-0.02119905077849178,0.04678391123846191,0.0077854740467883845,-0.03106274353572426,0.024843816718924272,-0.18600508098409863,0.12055812521052905,-0.1711254858273552,-0.027741709224406372,-0.20612894911796628,-0.08900378305448421
91.43595123291016,1.161895751953125,0.013052940931665688,0.015499644672255225,-0.06282691986155883,0.09129114928099752,0.10005580126889407,-0.029894379397780387,0.012807507553315698,-0.05949510570669897,-0.025354353355199106,-0.3293024582109131,-0.07834126297534967,-0.04775619217711292,0.0072723396881584235,-0.046700333632907494,-0.0024084878582695595,-0.07039783107035576,0.09324932128390423,-0.025803104117399948,0.15869196464485305,0.10281586611852965,0.11432844093914346,0.18227256913803253,0.10630591119812298,-0.10592745549643603,0.13723722784756168,-0.035113537647705695,0.10839410863129553,0.19772548364413245,-0.06312748079906433,-0.04968187502196039,-0.2819424837398077,-0.23533074687849537,-0.13961923888379885,-0.02237757796651112,0.08441207825496944,0.544211982657859,-0.33043681198835106,-0.3605727519086087,0.2159066060938491,-0.1777203435063852,0.16616201465188557,0.28488949181801715,-0.30322560520021447,-0.28212051341602884,0.22452609043128302,0.2554266054601454,-0.2517379643531749,-0.1674453514190349,-0.5284727551722278,-0.31221677324464014,0.051483949520216954,0.34978718209616516,0.19488642424471744,-0.0015325290584614695,-0.2726681598520727,-0.3531573906625911,0.4868061922830233,0.032614056397811085,-0.09120969066370971,0.058059286318526596,-0.0005167121688312015,0.042440328293730505,0.048602336905097854,0.009193027814032218,-0.00999905857402624,-0.07663388513689315,-0.11106216847491063,-0.07731803379383906,-0.04053980689270509,-0.0182279275632672,-0.16113869814508539,0.053667907585359304,-0.023485506376791025,-0.08057057863275653,-0.16140535948435827,-0.08562757600019423,-0.06945121680276678,-0.11056526741470343,-0.09575073004365925,-0.038852718425057615,0.10414070246937754,0.002756967792110307,0.1182987508724378,0.04439528087836957,0.05301599473648804,0.03929943190533173,0.14720429827130121,-0.0252018596518033,0.07965384656836735,0.07418019567751288,-0.0064792760410928045,-0.008451060395000503,-0.013921652853819652,0.09152203085123761,-0.016159412095988306,-0.17180846388991727,0.05088621770775017,-0.008090124207167348,0.09139780728223655,0.07326322943527912
92.59784698486328,1.2112045288085938,0.06845721915969577,-0.09802681408116279,0.012449027264201277,0.02727149155754844,-0.023766837906178683,0.03766784934930502,-0.08113219572967806,-0.14145458058194071,0.0380229666887226,0.060640532615048766,-0.0660120614816886,-0.24398103886440017,0.0022918195296950587,0.009678142519492795,-0.05462413865680206,0.46684568556443085,0.08754156944835229,-0.1647038257021813,0.0696734156119251,-0.09682760643976908,-0.020520843775763742,-0.01922843968709609,0.08343241693132465,-0.01442421868060398,0.03839468250982593,0.20902493217418097,0.26563451338696564,0.08076916910994564,0.28703099580330177,-0.3130004080417408,-0.4143613634442516,-0.14051863320349675,-0.09419000084238885,-0.3226331889868413,0.25645982492572583,0.0317287030741464,-0.34582968597227404,-0.15022619913071605,-0.2121079119892081,-0.2579335589772236,-0.32045596326388937,0.32146560528208357,-0.1573453576858448,0.3711612476918173,-0.4810723347634984,-0.3634762919788485,-0.053408872876495865,-0.00419038758338496,0.3926763728127016,0.05841972423068954,-0.2218187538426143,-0.14994437921997583,0.019955184783436372,0.03760843249641424,0.24273140961507034,-0.3889373048038224,0.09889486055807245,0.5829209992720561,0.10159350054286113,0.11829972852044247,-0.020089023053354735,0.0817603151769392,-0.003826802918750782,0.054387139127123535,0.040502188076432015,-0.04167432434236537,-0.01541150619713566,-0.008593054664614422,0.008083740381974985,0.08397625780824325,0.021766628012866444,-0.03509181188775422,-0.059210502804183246,0.023447715297955224,-0.02368194625265164,-0.10563054428288907,0.0027508779672082272,-0.0426763623789476,0.0875410567967466,0.07648295317696323,-0.2531456244594493,-0.16905837172221427,-0.1075434493512471,-0.003159244051707935,0.048127609632892414,0.05252055098849955,0.049531231130169925,0.09719818890632544,-0.04725553410810466,0.022018435278073453,0.013872051888552294,0.08340538444338241,0.07104243883151624,0.05846594918979036,0.02212903796052546,0.06334634334533258,0.08206265381515432,-0.05930430902049835,0.03767172845081426,-0.05218948244085106
93.80905151367188,1.0612945556640625,-0.0509752132975024,-0.022175465454193466,0.11640471256697155,0.040826667024894917,0.09024491777498002,-0.016133668217937366,0.08898892310901436,-0.15568928061778428,0.052397349065914006,-0.23081558334556976,0.16161244170335443,0.21898002498882435,0.0802601070619904,-0.09859459163525763,0.0206702864357034,0.045881623007462576,-0.0023955057957825232,-0.16542244688586843,-0.0064399297936141,-0.12133858520265074,0.06518173175346831,0.1204686790675066,-0.05444980826608078,-0.05621160272732596,-0.020477257329784938,-0.07428983469075646,-0.028294583724426302,0.06258475693646842,0.2320465043871674,0.08782388785699637,0.08763766887060304,-0.05871235866614242,-0.025746471472524683,-0.023902261957215086,-0.0735713187634687,0.11200825822429819,0.00029319177158614734,0.17329863163982528,0.013213044785309328,0.15423796834078365,0.2830718351539986,-0.060206647200275444,0.08685042086513961,0.11942184529235637,-0.48550288792928,0.016156826384738563,0.10215435484380014,0.34348172774084035,0.014348517251466596,0.5125271403997309,0.6293495300302809,-0.2877540605416019,-0.8565413672368907,0.04927131141352129,-0.005146652767277422,0.0642576530462244,-0.2709246520162649,0.2510372002939517,0.14154817812988243,0.15224771548934868,0.04211624514025445,0.03631923333485257,0.0562817090744907,-0.03991249349593065,-0.025799523284631386,0.02751831688402679,0.029184686738076854,0.007638003776612078,0.0241802944395284,0.12930887166508748,0.06187510149922606,0.1258725016044342,0.04415539075384296,-0.06522805687099788,0.05170854120011028,0.09383220150845237,0.018339661485271747,0.05632942196347468,-0.07470786810538017,-0.07062471018227202,0.11997966878154215,-0.04350386531872963,-0.09700404437844419,0.17904043331311517,0.01766832906867388,0.07185935128160188,0.048000655293428694,-0.061950997944941,-0.018606416336080386,-0.1260436667845933,-0.016031444501731173,0.014401917673202924,-0.19827305442486828,-0.025666899718125136,-0.30130492938460396,0.005906671023795072,0.03625973631658645,-0.0006852687815433594,-0.0010130216339282513,0.047643470093840554
94.87034606933594,1.101104736328125,0.04609254430224613,0.010620391308908659,-0.053768991348832174,0.04428697424580977,-0.03383030630103562,-0.10045765857834467,-0.12727144993926423,-0.05729305993905292,0.24923823953235022,-0.3063906944396261,-0.21695135865692577,-0.4255085515437464,0.027568929809976953,0.09554134520963205,0.022759775743231153,-0.028515389411699513,-0.04721880877954569,0.04605607412837899,0.05801864505197031,0.0351663621972229,0.029831159775735288,0.10761678518398754,0.23474000595169997,-0.16587798937650122,-0.051507684040351456,0.1587761721120883,-0.10489322045583453,0.4601100370653327,0.19790425131689404,0.2500056991582234,-0.08771929892376798,0.053357357757871524,0.041032313028336986,-0.16437381717858812,-0.0811997302885374,0.3067773538581877,0.22155467190574882,-0.39025881923325895,-0.3225629868705553,-0.3963425497662843,0.06169343380953485,0.008100123394326357,0.11948548855603348,0.1207487888636891,0.0393383183685541,0.15098296446532997,-0.7121341552539832,-0.07863041954400891,0.1481732824936994,-0.3789319915441243,0.030414143929739294,0.2502885730416738,-0.024645081416238432,-0.2861988383855181,0.08725125500311776,0.024349235492689136,-0.11739460330996092,-0.09823453654661957,-0.03488185064242186,-0.044728547426628046,-0.19993843306937822,0.004233077786826846,0.21435664332403379,0.017672098188249018,0.043673835908972315,-0.07362307104413468,-0.01838054619702257,-0.12981704443437334,-0.0352273655773427,0.12698234203562556,-0.024601619401048765,-0.09196995324409736,-0.019073699702222193,-0.01599271698108765,0.0035943276209836656,-0.0373597918742214,0.01307298823027537,0.045814382727834335,-0.057466915986539815,0.3414603802412696,0.03305659920492025,-0.02921034636444561,-0.004577201896907308,0.03163479062791158,0.06605903313469161,-0.04915454628125221,-0.029574787135409064,0.07934038575457271,-0.014532336950375426,-0.04511238836550528,0.07035622311184639,0.06391802320062548,-0.18899752264427822,-0.04702964173060886,0.13253354869479395,0.015992213158537043,0.029378884921076966,0.04143928090357218,0.046214797397879766,-0.10434669033817692
95.97145080566406,1.2112960815429688,-0.10267896482956318,0.04314287943238007,0.0003104990005615971,0.04890376771076542,-0.06104490048149981,-0.03833955810251864,-0.0952000436822409,-0.20163811856874336,0.16140092326190897,0.12359439762713777,-0.0730029479493498,0.09268776777062625,0.24229212722475682,-0.023048301764570726,0.03967971607474201,0.4840498435726537,-0.2091402297560593,-0.06062155749885926,-0.025140683909308063,0.06116470675431555,-0.04121764405919948,0.04429043247500236,-0.021292385541656775,-0.11803649406060449,0.03368680162630473,-0.028441310185551315,0.25855760098768615,0.06396944977386652,-0.010643747088553125,-0.11660467374085086,-0.21131069800161306,-0.10244085657549554,0.05344444451127565,0.04607125228719622,-0.07122790624423637,-0.38974169788228163,0.2048547202889657,0.019841113604486833,0.12700273625421724,-0.021837961430229882,-0.12739105232339906,-0.11341008919206559,0.022242301408455976,0.24997815035245669,-0.8231233020834146,-0.3933664139026012,0.18962735876165476,-0.16511664153619954,0.07450350656001778,-0.40869668481331994,0.16782180151271697,0.030143685481241342,0.15511750348116182,0.6460741585086135,0.20196701079064378,0.014478315337097626,-0.026534241018270746,0.0053094716838018585,-0.11900860587895064,0.009875652405381364,0.07044990564708482,0.0025107679659129413,0.06875956693701238,0.1286220727123687,-0.1284853630455733,-0.12822984486364655,0.139367618516886,0.013696490372382302,0.012528885662863282,0.018067966719547482,0.00342460087823633,-0.00800471513464232,-0.02292352380803603,0.010228302186847305,0.015697407347125485,0.000550543949984399,-0.03507629432370548,0.049976745963820304,-0.14049688697770513,-0.1746177790725644,-0.03147528427275264,0.09815373685754741,0.15112696442100404,0.04498644030867821,0.08087300553448538,0.06798248319532169,0.06592155078332443,-0.0606970072496511,0.08664763578344835,0.015676764537104235,-0.032602692839055133,0.026513368475181466,-0.08789317555239184,0.19194879887495297,0.04021274979460792,0.052529243242110266,-0.017653795177801555,0.18187299499520262,0.0012079219498343247,0.08433097106066492
97.18274688720703,1.2313995361328125,0.0836737942546569,-0.09667217712815093,0.08368402280179668,0.04136374445219534,-0.057896327918155535,-0.07082540299481985,0.07648973291642273,1.5633115341229955,0.44569732941381207,-0.18938421891985172,-0.24496599223788995,-0.06060967650100958,-0.030480367220614972,-0.28582160407502266,-0.2529638709788627,-0.0965254313501901,0.05445628727279135,0.3288098659037613,0.41432103397253806,0.2590192370548827,-0.26381690218335735,-0.1079525366810775,0.09108573608980292,0.03900117872026315,-0.1500791156277603,0.07715869889159459,0.028501887163990873,0.10308043415371909,0.0407927254599345,-0.03407698298048134,-0.07489648501897175,0.1834603814386957,0.01478148534100783,0.1526352659613188,-0.8102075543350802,-0.10760103823887271,0.1630667514930082,-0.2995617418659501,0.07370918628721768,0.6732143323293781,0.11165836486679764,0.14171759235951217,0.5570060323265414,0.446710142141099,0.14415347750439403,-0.25891046623842046,-0.010572729177925955,-0.12097197298825618,0.1731242901967815,-0.11240757287864078,0.11604682795741532,0.02243723540576296,-0.18378778345041324,-0.2934543481392162,0.13921936707110216,0.26670172917376866,0.18959328374548087,0.1766309673168851,0.04331777801845932,0.05203128286851699,0.03785023285980493,-0.09818717432733838,0.07192646312317709,-0.0026416096894402454,-0.03018317282290362,0.06923867860632774,-0.0754240854910521,0.011537812514611874,-0.040881315179876435,0.06150536056719287,0.045041055532436196,-0.036693352931802016,0.03961546861074218,0.142930994455232,-0.0668928967544221,0.02533695939784668,0.046774702867851056,-0.0003567366953135158,0.054839407372045595,-0.24775675841434863,-0.014359285074296388,0.005147379161087092,-0.029450954260844292,-0.01964723189708213,-0.031361660666623326,0.11496388087551916,0.008352649281385635,-0.01068790074163297,-0.03187555141746224,0.007493888797445425,-0.03702270274991512,-0.08332576059779075,-0.09505167286203794,0.045654478814719256,-0.00971200341296834,-0.018593680990263508,-0.012625878474126814,-0.08397143269066694,-0.12752421197435176,0.14684251039012805
98.41414642333984,3.7343063354492188,0.00272136988826846,-0.03410777304959725,-0.11478789160425011,-0.012920024983431486,-0.035315362964245194,0.06055561774585339,-0.049952573037135205,1.6028919280152565,0.4411328460747606,-0.11629459027608234,0.0019183721793091298,0.14872662908008266,0.15923963617022047,-0.03298852196514653,0.0942076064345657,0.0664801865221759,0.16604586625932266,0.08862889900778959,0.13845163756246237,0.27675064419058737,0.0714100219570551,5.040201374870157e-05,-0.07353972405611962,0.026647681331058812,-0.0008598713924545935,0.044350211729142296,-0.04454876700119107,0.12529926900717758,-0.14810779919089279,-0.21685846431357078,0.1877033223499694,0.2534913013011557,0.15909580494609685,0.2636200070709712,-0.3127982843005471,0.04239801769680488,-0.5985586123915114,-0.09926873951948079,0.0010886874438020694,-0.38882639396102614,0.4563672079746995,0.10095837651749703,-0.2735253552962963,0.2998831888211638,0.26243209119904654,0.24838202510661378,0.34170951491424784,0.047444109527383094,0.028177711181554675,0.364204478765104,0.09708791365365264,0.32475033146136706,-0.17764178056701904,-0.29469786609998244,0.4072975407515559,0.1193834107083536,-0.061985198103934075,-0.26141790447901614,-0.2649902886507517,-0.39061003051729926,0.07897390396576381,0.08243299224763023,-0.05275050257804399,-0.05124738432124716,-0.005825589379566986,-0.0006589158516943192,-0.044949224916777025,0.005632533123638872,-0.019080762396348473,0.10258808377525375,-0.09642714305347294,-0.01259383969129698,0.02576367580801767,-0.02630420580762795,-0.004879364904716646,0.005234200005914195,0.005392607021858428,0.04331744525432342,0.04637526187799075,0.0970365811130216,-0.013335706725315359,0.039334298404207796,-0.0049914666449439584,0.04848813534011934,-0.02536928323534903,-0.03703972768331225,0.02537441468146637,0.1444804634415437,-0.018284269523600447,-0.015024942047310696,0.04694804635389159,0.1348619131064768,-0.057478768356088575,-0.05142546074254476,0.044356615819989606,-0.02000123547606754,-0.09619916989660009,0.14668673585979178,0.03298130910622323,0.003022218691624723
