start,duration,0,1,2,3,4,5,6,7,8,9,10,11,12,13,14,15,16,17,18,19,20,21,22,23,24,25,26,27,28,29,30,31,32,33,34,35,36,37,38,39,40,41,42,43,44,45,46,47,48,49,50,51,52,53,54,55,56,57,58,59,60,61,62,63,64,65,66,67,68,69,70,71,72,73,74,75,76,77,78,79,80,81,82,83,84,85,86,87,88,89,90,91,92,93,94,95,96,97,98,99
37.67665100097656,1.87969970703125,20.962588031890864,-8.432221662130585,2.166294033622073,-2.371963806752236,-0.6993569503460577,0.34668842764955654,-2.8461407105380006,2.1311258149106944,-19.54817139069801,-11.500408332705526,18.080694920415745,-24.054602853425155,12.800808000126441,-10.669422282950126,-46.5080187165898,33.857884420723835,-57.894963224311695,25.66681738893252,-3.98473731799698,5.925704680438878,13.862625402969982,-43.66861086163769,-38.13397947750474,31.583716824660314,37.276610942012844,15.009319206381056,7.860087161466797,39.198825375260526,27.072283920995623,-32.05721608568652,36.86921425848481,9.740802042290587,18.790766133550367,6.3144381775786185,-23.119746365389904,-8.664600608806849,-37.3349443142365,-30.362885932032675,46.366764294151395,50.48466216259728,-46.898653644176775,-8.63216282714876,-18.57490678250672,-5.77448819082576,10.788271026460858,28.199800010064838,18.509166685480864,10.917121268522507,57.877436488092364,8.551657519599626,37.70494369394741,-33.39818662400857,-25.380600939450353,8.13753994757662,-9.559770295806963,-41.55516588498182,19.354535709230994,-5.233180934001554,-2.4938461707078368,3.699031395317547,9.048383436895506,0.27795692166973973,-14.819854429688574,0.29993291218381746,-5.160389506752229,1.3296598908249058,-5.814344086277804,-8.64864575727271,-7.292889421237507,-15.798127531454568,12.060226876260039,4.51894054326485,-11.26574481555073,-0.4384839000951771,-4.282809640807706,-9.73452574213546,-4.460035164858347,1.2007401253181191,-1.5781031473453393,10.246029998784728,8.954967779126253,-2.3419350789129716,-8.724374133718037,-10.968271047493321,5.922342536820274,12.544246172472208,-6.821634265056867,-7.217004202790477,-1.6765669313943752,4.545696827052798,10.080877555884397,4.261794173698329,4.855745147966646,7.783115197989019,9.682766848188542,15.236722640393829,-29.2685398147506,-10.909978052972093,-23.67702680849647,-43.94050370353528
39.55635070800781,1.9796981811523438,-50.60158185384727,-18.12864215142883,-7.788720242427047,12.846904204486396,-2.97271560311475,-15.168018392800121,-6.986448581494621,-19.573132890531507,-19.397184058250634,6.561958824806739,-34.43633817850783,20.78777510451885,7.788154625614097,37.750650464257994,-7.90219507305005,-12.476086319789015,3.7192763151895374,37.74723402406795,28.99908665702631,2.478285667183192,50.27903636192564,-30.244794002574906,75.42207224221814,-27.651972429942003,-19.152528186086094,-57.48058357110395,45.06011003375461,-33.36212998374684,71.99275125941301,-41.47068761136559,-69.71068664874771,-24.153715818352744,-38.3749362643497,49.70256890341351,-38.99623468629661,-8.134253259697626,12.82448080705121,32.161457872657515,-15.446280852607414,9.790132211808384,-36.178886541277855,-26.292733168063315,-56.11629127757317,18.51752787591275,1.2367137185635277,63.72587339283366,36.49031309070047,11.670970610477813,12.988469234089447,-27.995616360075367,15.877909666479642,2.269327585415168,1.0203053438188388,-1.6090930968430235,11.92759683798125,-17.5408089485234,-9.04993624563891,-0.025865875136912297,2.422567348816966,8.19232920816985,-3.580956699984691,6.429465190935824,-15.629210456786438,4.363025689856692,9.319101677179722,-14.213025831277168,-6.638620071285984,2.171236160828804,15.870546627496552,8.302052559052207,-0.69556755495503,-4.591732073015373,-14.907514155971324,-2.8543523361933074,-22.494601882468316,-25.55591556873126,-3.820227180709029,11.958220985270096,-1.7211848870124355,-11.734102978266922,-3.325928230824458,10.46191341584415,9.008263273004102,-5.470576294743574,5.697729503224474,1.4196885888272308,-11.810659971061408,8.861446813972375,-0.3099579413140379,-3.3011485343417233,15.621410868309077,-1.6839451334227804,3.87958882219898,-17.514365092329776,11.304410048367778,6.017601805206167,-8.75456768459771,-4.44976682992974,10.403230337594525,-9.59928226078025
41.536048889160156,1.8301010131835938,-4.946910004725698,7.4606410922162,-3.0251376268294594,6.793829228020239,0.7897318969480147,-5.233507592826463,9.00650278562316,-20.73118877838459,-19.4107737966187,106.98636301484818,22.572322211782566,44.38619530351153,2.5346682759524297,4.107478933157655,-27.286220259420798,31.489102199530166,-2.5205272828432754,-1.4666630669060012,30.635381658536232,-14.315830972999503,45.270014532495026,54.242463956810994,-95.28420253953465,-25.164766800296377,9.652211234939767,-43.13498288856181,-66.82258365633696,-45.295435034856524,-31.24898916667951,7.794918527609192,-44.93549108880966,-50.68269772629114,8.970824704472104,-11.962859790341248,-46.101921641754615,9.51278366718667,20.872147324090186,-29.996630422396628,50.27772458930774,-8.729689503337735,-20.651965649937196,25.802272053746254,-26.169671730523238,-29.103503651365006,-43.70462420274592,28.91175166376413,10.537734013988636,81.945896285203,19.843654502131066,-43.223037930958874,-44.31444737908673,-46.94024602408275,-39.547194127943705,-22.06588498420185,-42.68408402654247,-4.676521346011164,-4.276280206624556,-10.71495729696182,9.592275038152355,4.493497471821946,-4.277363059125154,-2.957960148835948,-6.114580931147764,-2.367101148324802,21.021240603020406,-11.298053751745602,-13.837664064805805,6.460209555842571,-8.938940849512655,19.02924604074439,-27.353731169894733,11.967061823982633,-4.545886390611807,-8.832513833615035,-12.814278197680075,-8.993969111144802,-9.43698626331571,-13.221334531585637,-7.39479099830598,-7.121434096807727,-8.086214849527305,-11.616060369164188,-13.056289652433835,-2.5133950935152796,-6.6296147450557035,14.492167258050177,-14.495171251022688,-3.4149681074890816,7.568648736294738,-3.091569189509279,-1.6717668277583115,-6.391923729576318,12.058266679499177,-2.5492002786943964,-5.8449018215385165,-5.980666347492523,-9.271426651385966,-5.8430575864283885,17.69121539965626,21.004610945162273
43.36614990234375,2.0597000122070312,5.584967884984592,-3.2512010789113184,10.208406317357388,4.166971570500608,7.1224471980581345,14.468550596155673,-11.890724070926368,-2.53199248979536,-7.192057125048801,3.4726968029116003,36.598183019896325,-46.94156807125408,-45.54651677130066,16.862497694013236,-69.21248417601974,-21.063490087902714,26.016325655518887,19.494239034242582,-50.14900064891328,-55.21189019453768,137.5618834124418,-0.9091426979963586,12.237110293117727,-19.932288526830945,-16.38298795926837,40.544086583337254,13.973198916739177,10.99021588265342,-20.512490508020118,-25.255593477415132,48.96999999957841,-13.35611103176711,39.81046341146796,-65.99403264186739,42.421821702488316,37.57896549158958,-6.603662283872147,12.140414642953992,46.20579140525719,-6.205411497879518,-6.212991487512497,-1.6132744656746176,9.420686814247032,12.069121153316212,-4.914652300002608,44.99223720338732,61.30247426578012,-23.81641861638213,16.517408146991762,-19.30371275444506,-10.143295333193908,19.470694686552424,-5.378304185251939,-15.208239246308034,7.30723042260802,-14.725476050679251,18.49245093987004,-4.60004034486053,-2.647563263754456,-1.2360330888223612,-14.07828621275635,-10.604768322731477,-8.52025499078142,1.8651719118131522,-0.2554796473489004,0.9680006731025091,-3.807321678868421,20.654946657923002,9.705219037596747,-8.78931699446877,9.06975815519288,-15.08963599671885,-12.889412566803532,-23.95373487318163,14.85493510788752,-8.149914715836275,-12.19781238290648,11.973183010648974,13.93145239619221,1.5106732825845919,-2.141307233333734,4.241455332974848,-21.64119409211018,4.068955666454071,-1.1785238120565669,-1.6957142749576484,-4.6822979017421495,-8.679462693934191,17.782063427647955,0.3642673527279552,6.7938681459679575,4.511547002121928,-2.0614150092379395,3.4060621836028044,6.922938804030167,5.9383538868361265,-22.027128278685822,10.945982639981597,-1.0485705444812417,5.494850282919712
45.42584991455078,1.9398994445800781,3.0307106095198684,-2.920922539203201,-1.7419517725343585,15.121718238807421,-11.744293262857227,-45.580640703812115,-6.404475186798339,-21.00099446003316,-4.3500529534693015,4.160647822589205,21.48972827381801,-4.493121326863761,14.455623658546845,-41.70944153690396,-27.348801566385255,-5.183214811607876,-20.813645895738098,-38.712244505295345,-22.85536428039707,76.9925059233132,-46.30862288931478,28.686856573148965,69.19112737195441,8.978327608703626,-10.188826651104563,37.37711543330484,27.900759644643873,13.199533559522106,-34.997912559383494,-31.29297399997403,36.96780665527353,22.777030012077038,1.1967729945523438,-2.32677833048118,-0.8441433609084932,-13.783382737544686,-23.809946813779433,18.824823745407105,-21.419642943380975,-10.711480007358118,-1.1480269838252672,10.730687595189373,14.213369334603133,-7.31701463656265,17.43593296008577,71.23076162417401,-4.858841995991853,-33.411396008320644,18.859521460157964,0.6366144724584719,39.33539716572257,-2.2835542220152405,42.46217570912528,-22.66653035942695,45.70181959900467,5.31940059602546,-44.31268038118586,-17.379541318956182,-10.581399868859464,1.3865163076383908,-0.22280903282719466,-0.5202426581211886,10.973185171244412,6.283692689337256,-6.414481414765911,-0.05506729895205709,-1.688122249681332,3.1247530778309534,-35.09428824598018,7.362288123834294,-9.911537727836624,-9.799886266870041,1.9761715548822876,2.439587537953358,6.113229206596453,-23.192941880950713,4.4304687965276015,7.651769839710834,9.35293094939166,19.521392686619954,1.6858597229794015,9.468219358555178,0.9451741938304097,8.308361011634364,-6.91029193059704,-7.74554535140129,7.146836468015341,-4.03434864801987,-7.101771517434742,-1.0372120526563888,4.761884024645574,-3.3887042450018985,4.8269592494819475,1.9286984590081047,-4.309832603142455,-1.0695439029263243,24.779465403089837,1.294635208099058,16.243731595924565,-20.46928593004145
47.36574935913086,1.9496002197265625,-12.903024718820198,5.211703471292255,0.22203602518231236,-4.0031953669601865,33.825849847963724,-21.46255913699372,-10.186014009784998,-10.90986725140477,-24.983232574346363,-9.735875507742396,5.775190863312748,44.1619766772507,25.265803747824638,-9.352448804740117,6.725783882472317,43.059149446368004,67.04020343059268,43.42449902523133,-22.928812686740955,3.8659425834696255,0.9737611782034641,-43.86423821296577,26.866570553096054,-69.0536971463904,168.94083824975007,35.595214892016,-13.353876688687903,-29.381899090148323,-75.27179249134169,69.10848817157957,-31.86844690937742,20.32808171121971,13.375129858481092,15.864390951259306,-10.545774475643437,-12.282642550216313,3.9858554752528566,0.9727114648499775,-45.08190580092123,-48.192780395078714,4.6585937616282855,-7.315175671091958,51.4065306194178,49.18589572034533,-64.29832805641401,-52.87470449178766,5.214366903418792,6.991373441981565,-37.17716389353062,-13.72673643072805,21.993900443010755,5.914186283927908,21.94211537003587,-48.18607606296845,-22.935636693226428,-2.886258772680641,-7.196992383976379,9.561331580368687,2.69330886694116,-10.1741730451366,-2.783196813333579,0.1345587855329704,3.299321390760073,0.895363794443508,0.8518125493722355,5.150194473074691,-5.709803991831483,2.879014261188346,1.6411881808709161,-2.7088297894157956,13.561614315519552,9.325857698478682,-4.6137032367898065,-23.299048789369497,10.376638294469691,-1.2840695551755008,-1.2366654879006536,11.925584243663678,2.6690485403542485,2.4454402930194874,-7.794369830548357,2.7137473908392415,-4.545510236092811,-9.448879945464242,11.632488100405737,4.683859460693114,-12.633892821340096,-2.64309773803853,-1.073521219286993,3.015832706452851,-5.957254650597207,-3.8038822118217426,-7.71941684661287,-5.149574613732456,7.161620853166774,1.0641395344719977,9.867390781176661,-1.2222618899460604,26.596907180150378,-9.990415286746751
49.31534957885742,2.239898681640625,1.7699286224264448,5.784257687435766,-4.239846051443451,-17.482031038690536,-2.7123862378231154,-37.93832249670875,6.983452846073212,3.7367464665511645,-9.004320341259591,29.565043097667747,17.920028869584577,-4.691261676813933,-7.782547501322235,-62.03069298262424,-23.059826240572587,-37.09225590026594,41.39685069694758,11.163365965652863,42.93317863803252,109.23028296762797,73.05657885897341,-12.74345698395463,-60.81514214326827,23.419675544406342,-7.440655752222419,-3.730911041615836,-4.438560755526358,-9.212584683451878,-1.6511468085836993,23.293065071604378,-20.811245646135575,-69.03452460687149,27.460667717122284,74.26524033093366,-0.15640226684558556,-37.876694237609996,40.42148752771772,2.0632188238459825,-27.573735177573,35.7495185143795,-45.193793764532806,-38.428634601057034,-4.296472520267612,-3.043460124574782,53.58759670280806,47.90366103492622,-47.23634792990326,-27.305754665421862,18.654189468378167,-3.2072730805244882,-8.612959012575361,20.135556096451953,-47.63452538553587,-14.728901930842076,-9.59162836761022,13.077752804685264,25.780053052272265,10.08554062218214,-0.8240555271980945,-1.468965865711121,-8.879878806566415,-8.56746822301022,6.235015211464586,1.9895451855685058,-0.6018122596704965,5.705846050631392,2.6980467573878517,-2.8954661848629053,-7.613263014891588,-0.21792419404798702,0.832404997951877,22.634240315242298,0.23943999491649537,0.9898652587596013,3.12507064850311,-15.389479195949683,10.96433715138109,9.383264358606615,-19.33471802402862,8.930172159934532,17.01505303016041,9.161728910684179,19.21108333723006,-0.23570466012982738,-2.8627467462619,-2.8092702548485846,-22.0621815182831,-10.362214446295337,-10.768315219695124,-6.438680176666625,-13.753416661995153,-2.249292727629067,5.22277577139269,21.293320407527997,-4.919081765379877,5.819197908586473,-12.378831273202442,-4.086411657283905,3.549024919783715,-26.224901887138405
51.55524826049805,2.7597007751464844,-20.855252904526125,-21.69584219993658,8.836574315509317,32.167138540395634,11.520758879719757,52.589492142694596,-0.492842834520414,27.495046019470326,-3.9364787863717883,25.72650955274996,18.49906366366115,-50.67915586344374,70.06099403873807,67.77573336018764,-15.191613326707035,3.3010987030807133,47.33849191410428,65.98653789006867,-79.06953903455893,-9.998657470097829,5.232379871231325,-20.78764861472121,15.475718314195564,-6.248127939918378,19.888243562378594,6.7478712427851075,35.17917247548275,62.86972790131523,-20.292762906385814,-107.36545919136066,54.66623426066144,-33.12546108081477,-45.095686502087155,5.664211580389999,-6.578226359652413,-64.26987432670109,7.649394051732424,9.69442547593772,-3.9542289641231925,21.646912111603047,29.63411014738235,-13.342815092756949,23.864991064145055,-98.03260631866985,15.407844757488107,35.63227844929671,-44.86958277998393,-3.150212063744277,-6.638544855817246,42.30927776639382,27.109701450939006,-6.777949683965613,5.9123680546614015,1.373602683131761,14.253117593671398,1.5521088241198724,19.90683913982308,-7.207164582751728,19.234982412320022,-6.258881484027699,-1.9298216405830262,-6.192768752210478,-22.43062808496556,-1.9918107401261498,13.549547305612204,8.089914594042385,-2.9246125581534805,2.5555461646173616,5.627076417837974,3.818438101854749,24.9574933547754,6.476023844564536,13.96399593112886,-9.404705144671519,-2.397547702889328,5.1951441122241295,-6.99668914386063,-9.895357710924092,-2.408676446187113,4.54998716503623,4.8587423958839295,5.7368545619925655,-0.5346493611580634,-5.321123099137623,3.2210874070602746,-7.478625623887369,-4.335352303621475,-4.53650868230295,-15.802452162708644,38.64439759472236,4.337031900581168,-9.075403003479234,-14.174955131089055,-3.258645210569173,4.330888113838846,13.797112041717162,50.78251824410984,-2.7067032346823368,-17.948365864624467,-9.55388590967226
