start,duration,0,1,2,3,4,5,6,7,8,9,10,11,12,13,14,15,16,17,18,19,20,21,22,23,24,25,26,27,28,29,30,31,32,33,34,35,36,37,38,39,40,41,42,43,44,45,46,47,48,49,50,51,52,53,54,55,56,57,58,59,60,61,62,63,64,65,66,67,68,69,70,71,72,73,74,75,76,77,78,79,80,81,82,83,84,85,86,87,88,89,90,91,92,93,94,95,96,97,98,99
38.43960189819336,2.2800979614257812,36.55490007834561,-2.0725428138605877,16.305245041184996,-12.577417363211211,-28.033085740242438,-31.458545525357373,33.89245481852018,-17.862465794549312,-11.472551908890608,-49.51465931298289,-12.008777310768654,-3.654440979353869,23.05505937668492,-20.4264681532926,-17.266808425487987,3.0987118707098524,4.497725675670141,13.494138885051695,-39.33654910192292,-9.496901155564512,22.05710054231731,-20.889905195736112,-1.2612475235794147,36.62606174033221,18.807697473592803,1.4749206784169253,17.507775359625573,26.79280465026865,23.441537298380318,8.566240658746484,3.4585015944138915,10.132175404890178,-13.443833537806073,-12.964056741628692,7.902304667759446,-12.100269561575836,-5.2457362245414165,-8.710970236314576,13.270392525056376,11.124962975023317,-7.590702525093503,-5.485025489475296,15.684093331900787,-4.564807407501558,5.273177074306464,6.053172479408602,-15.801310002855676,14.945598708799588,-6.730235295122434,17.550501463752337,-3.753707351662852,-7.565128294576468,-1.0418457937635175,-0.46171315432799975,8.469498351435924,3.1106292434316494,-7.653394117056021,-1.06603094592277,3.8859234377192036,7.392155018817668,0.9568285839269811,9.244484287976627,16.293745317864882,-4.5907673251079935,-5.92086616198047,22.797334034167765,0.46143161246351827,-13.899266972654942,-5.369037280148918,6.957297167469316,-4.396481647467214,-5.901863634159565,-1.7183005952731634,22.123324906137743,-6.058854408788444,-5.163338937773793,-14.176299408771959,12.12822913203152,6.760204640221496,5.753638530428928,9.114590443814174,-10.652047259293871,5.537442700130667,-4.99843598782152,1.0625563925575325,17.104924613758683,4.581158144896786,3.5160062316208283,-11.669344508481212,-17.32241187176633,-10.17305689017508,9.40649184145785,5.517709842388257,14.84342095322692,8.971632701822246,2.6292327506183013,2.055994563729481,13.256430148842517,2.322669710427234,17.372492092831617
40.71969985961914,2.4295005798339844,27.260564107173412,-11.42884101559444,3.7537887206592995,-8.894095070523473,8.437036595746733,-11.086654784699912,21.071379180781825,0.269446232926569,72.09636761393034,32.982830846605964,36.19417165763433,10.044315071112699,-1.6233085073598552,12.004002309979178,15.279379329191642,-3.085525131159587,-9.805224484686455,21.79029777427195,8.68053132573521,-13.900846666975562,-23.462204951045976,29.397229373382295,-0.6597036877577231,0.4593582004466524,-0.3456788732755429,-14.272033013730836,-9.681289286565246,9.475340257964794,-1.5559377921685684,-8.919556129413856,10.948110317384463,8.707123604692779,-8.754423938333407,9.652415141052925,8.215525744710856,3.8757052788922692,2.7035912602460277,2.397237945891049,0.7349161370480588,-7.86394869960229,5.851857610564722,-7.343717438127514,11.341253791475424,6.13767204299554,-8.131843786128677,-1.9685324549247238,7.555235772545379,1.170374491457529,5.383085470748085,15.07951615678611,7.537773185815999,-1.1589579441477633,12.129193447140775,4.82606708883544,0.03038215865837479,-1.332991190235611,-3.4987263698385376,-1.9348304562408396,0.2858625170057003,-12.152284850793366,11.144861153793517,-0.6817311520592593,16.95598137682978,-5.265905327727738,-3.4624623852981244,-0.569322769949029,0.2924735222767021,-2.684650984215839,16.55906449943013,18.246997228301865,-1.8346473576736944,-1.9118750309553718,-3.3539409036358547,19.888870338049315,3.0471143970438854,8.887431378341837,-1.7110146646339512,26.129817492344493,-11.637963349566602,-0.1785367649099221,5.167711369499714,-5.392261229655637,8.58077051379421,3.4085019996989754,-6.5694526492335115,-10.962679761409223,0.3944526575336784,-1.5918892957832076,13.72845462488489,-8.704586863305142,-12.927086611124686,26.4549910718408,4.038768081754809,36.48443100589585,-24.471544174484723,42.899414087852044,5.278805225811027,-9.136663690696063,3.368828626045225,-10.57265531366622
43.149200439453125,2.3798980712890625,-5.07209010041256,21.976246661982984,25.33862730197983,12.627705866396187,-5.593793309857258,-25.317308388692044,-48.64271299674706,10.60776737623197,6.759029242494149,-67.30226329711058,31.57219121900384,35.66378499726457,4.429011280035821,9.854701820370154,23.69843061850175,15.59161227432007,26.976435053535642,29.34107309886215,-3.3886462624713403,-28.754045963777678,23.573090955787375,17.539836944348448,-15.476860877268033,19.05256015535769,17.252370755034576,-3.8859517338089535,-22.893501282000067,-0.94231730284345,0.9055499440074773,32.64775020020167,13.49126615411549,-4.778606832612279,5.562587585044987,0.8382091798902662,-8.466627675365652,-11.381815189994686,-7.977131845911932,10.206364141019234,-11.533435598453105,3.4229066880230765,9.853067479539652,-13.953724334559865,-1.5751563369252033,0.5324676522690618,-3.5144929010669643,16.8001175839017,3.6859019199524994,-3.0235540905821896,26.654141299682635,0.624883869915597,10.916705321154835,2.257328430620383,-20.337639962615317,-8.334707777903807,-8.549651584409224,-5.409447311631171,-0.07574892574951,1.9543734269230975,9.725578635074433,3.363599306794249,16.090383672826466,-2.974332395491506,5.543946552375726,5.721408467981818,-22.96597981582295,0.8855767437225666,-2.657469987582124,-3.9305448024875185,9.906344858446937,-5.301901782765192,-2.8390523661112015,8.028647246455494,14.621085420063256,0.11582663453240971,-25.41826917170161,-17.62334036361166,4.009617101784821,-11.440924962591367,-6.649854187062278,-0.8574707987756636,-15.249064529595694,13.66186734612667,3.699617534379003,10.506883135949323,-12.240185427765834,7.378548755286801,10.234070506856366,-2.6294224918848594,-11.58867601451593,8.157510723909859,16.333836455436796,-21.168236227448002,6.834097451532253,17.369165943793636,-47.37323102161089,9.397917570172456,-36.51240243348669,-22.613619003493266,-83.25585028153444,9.336260759199007
45.52909851074219,2.4295997619628906,-0.5757728455983182,-13.610242204401624,-19.323486010794664,-37.526879376219256,-52.0069727835636,49.77560998140815,8.73876728807803,-14.523646423336675,-18.405354081074414,-175.7305430835979,5.834031760098756,-16.50208079866123,15.194924545123111,16.68950277441918,14.541045909690139,35.34108435499336,-40.90726817819515,-55.87053535159252,12.97941764082544,7.428911215460937,7.3192022555514535,-16.811212320152354,-29.953270230093647,6.320587190433663,-3.87092310049509,-7.057427270643974,12.923981631880968,8.793485311747494,4.990999960587681,-4.389299848748706,-1.602197778773503,-2.6649838440244284,-14.479833369786949,-1.2406575541283618,9.911834849636175,7.313835363969162,1.4788482923801478,1.6375100382356464,-0.6165726682201667,2.454658084603426,2.505001117524896,0.4109611307840581,-0.6669865171149998,6.858286379726822,-12.87475994612808,0.8122885596223286,-9.996605281854178,15.646267120416972,-4.645429939793585,-0.4579229825526774,-0.307626268051746,-1.6614790338236323,1.2439792478401714,-4.502220708629719,4.883807678577386,10.933659009990105,-7.322399827047936,-3.295861733315328,1.8350763504101435,1.2295614511906259,-0.7422954184865624,-0.22237161744409617,2.1849594005703565,3.045043070367361,-1.0801276295337656,3.314948497054096,-7.778573609461454,-8.251488129016074,8.086293282348493,-5.0314806221760735,-0.7208476352734401,-6.103406545068736,-15.705042755779122,10.449425795640739,2.4660448404837063,3.6935487742779856,-9.72943245843189,3.4546232588387085,-9.140511884109124,11.25565235443694,-5.058093876144779,-5.815036428479596,25.50204408076009,-7.806115927682869,0.7814618712221559,3.416081719888558,15.598814003493933,-10.929811056510719,-8.838992309274841,7.8268867044573955,-1.478643121328553,17.161994444477802,59.887858520511514,-1.5070919451090905,-12.60234639217301,24.878603977815512,-2.244075333649228,4.98793175936807,-43.977906245496044,-29.737676878925615
47.95869827270508,2.2798004150390625,-23.850704225636733,3.506785186696955,-5.513725666733643,-6.27506042037142,-42.47864723284486,18.988092842764473,16.012336663494455,-11.670080069828044,18.123467423999347,11.508998517291142,-5.428853356358347,8.487382426742734,-29.105308781680016,8.10857811726467,-14.197893452485818,1.7696228024355187,-45.49551470879274,20.575413849368868,-49.16847858474958,3.6649406827825146,-13.355939428244316,19.21252996400325,7.415936359996036,29.47795165662961,7.5125843091047315,-10.364013597622694,4.814753415557126,-3.723769072280219,-19.890215113786766,10.808816452889811,18.882785575504563,-14.66549503749411,20.077868681906526,-0.36734941058164394,-0.1956959974993196,-2.4514352540294855,26.891908868783577,-5.275410657610815,3.178412491156675,-5.825534577038768,-2.322579382328814,3.284765470266844,5.115806894687974,0.23028308661182784,-6.7783510397062186,4.044383009871738,5.138352573093433,8.89330781293577,3.499262234347854,-9.336964498610888,-1.3310942775827517,-5.041098578769693,-1.7102137807454219,4.880209429400643,3.4743448387895546,4.2912278691468755,-5.066671083243028,7.482047743451737,-4.55793258597933,-10.23674341130194,5.667092304982298,-4.028346510919124,1.3576541273027853,3.9520432020903917,2.5201848643255502,0.923191728435808,0.7838778799522277,9.131147692760287,-6.326939354673551,18.45675595503122,-0.8966954246462637,10.78825341830953,-13.434667935924208,10.627646886485882,10.990570835386102,-3.309790741579764,2.7261745325673807,0.7983766363096991,4.326193754591988,5.4243188482730815,-3.9391305454253613,-5.193019436678071,11.319164848831404,1.6537362488186838,-2.046572696807666,21.125687280017207,3.5684330799061943,-0.26229083364079914,-9.537112242553148,15.124080249816878,-9.355388854706675,-2.202084945739628,3.168227446771158,35.46166716855388,-39.17657683072305,4.806264878761986,-9.638605580677003,15.557035453121742,45.90317384359837,-10.031433840163062
50.23849868774414,2.2795028686523438,-11.76574615162769,-16.467624338609763,10.316477065335398,12.30309610459755,-27.801719256467713,5.5557910662503645,-3.262184458938716,-3.648708008417506,51.414067034512684,25.922328743321966,5.3603016365338725,21.947685873442488,-25.287961654741462,-23.01361489646333,-22.647197805699708,-14.85818481550499,14.182323494612305,7.06029857411521,9.085090901536661,-1.5109122305075902,-14.125582294796262,11.19734763776062,-6.925094004035268,3.3648355464738584,-4.704954142755909,-0.6498743404677012,4.781539948597412,8.787456053679268,-0.501002980990424,0.4877330751593201,0.40317020478190135,-3.447582092599567,4.025585963813594,2.524806207496986,5.948812302391607,-3.2813789985052155,7.131959860271117,-5.8785335078248355,11.8437534354659,-19.619772839246554,0.4716153534927918,3.692186312143854,0.9865061918591922,4.046454054583885,-0.3014678542887699,-4.136782369835206,9.921214368094445,3.181978594135336,-8.61205233604292,-4.370542923783446,-6.691236915265744,-1.5990048668381336,-5.348145297796436,-0.40866759782839246,1.1422504752233253,-5.844695473563234,2.20556590359752,-1.7426005071812845,6.029948497021729,2.859321992216781,-0.012519109347532531,-11.749861097343993,3.0181762819711917,16.811274500324867,0.7375372509252349,-11.046188367524053,6.943510327283548,0.5624880235579068,-3.747227138290616,-1.8891722851911483,2.9927404474185906,4.8131341960789555,17.49642584300784,9.503267259183984,16.45440439232899,5.7702958850019,11.361437841573165,6.116949608272075,-9.744718496133668,-0.7256953918956692,-3.6212554877517507,-9.65288032721155,19.685077244476748,1.000701521809635,-7.071052503168059,18.61356536787478,11.36886804093505,4.196934350235811,-19.071163597448436,-0.42162746881135105,2.951940137113501,-6.851712086511645,-3.1716749115093315,19.197644781899257,-41.17577880002456,-3.1230842413305773,18.494839930179452,50.061152239555604,-20.014082133325914,-5.542011078102959
