start,duration,0,1,2,3,4,5,6,7,8,9,10,11,12,13,14,15,16,17,18,19,20,21,22,23,24,25,26,27,28,29,30,31,32,33,34,35,36,37,38,39,40,41,42,43,44,45,46,47,48,49,50,51,52,53,54,55,56,57,58,59,60,61,62,63,64,65,66,67,68,69,70,71,72,73,74,75,76,77,78,79,80,81,82,83,84,85,86,87,88,89,90,91,92,93,94,95,96,97,98,99
23.418750762939453,1.2385997772216797,-0.06661247626958564,-0.03964288269120615,0.017125677744821016,0.27690329925304813,0.08573915556803724,-0.14989335359677297,-0.32491581886824517,0.31918232769105004,-0.28060058785238684,-0.1967513416969509,-0.0758628745770545,-0.32706930884684393,0.30917324890689085,-0.06973712944010042,0.1658817734893337,-0.03268446625666492,0.07042752318468117,0.030791838686444382,0.4523179863327458,0.37274622148943903,0.047480877128098065,-0.17513469669442133,0.07051991232590489,0.009848287465634872,-0.04116291802388808,0.009922716328314714,0.02131568219609787,-0.013394119100396146,0.4067845390034732,0.15375147085497393,-0.0639566871073778,-0.16730531607962032,-0.15639693921324532,-0.13665063998174748,-0.007797682988116547,0.051291505083851135,0.016767812798511247,-0.06858443542550494,-0.15542939008542855,-0.0012781236396464182,0.029954088638416372,-0.024988590171987124,0.19944583759743204,0.17273789517243532,-0.011492231698214695,-0.11247922687766843,0.13257434092311132,0.03897690312055299,-0.10267070161488216,0.0004058351380584191,0.19594844846413864,0.3960530288628038,-0.17368787358065543,-0.020820005362771912,0.07511702558902805,0.14300872483056323,-0.044487930358636525,0.013704511791397367,0.10373425048655245,-0.16174340414951954,0.05872577892210658,-0.02664344658051028,0.5289395412311686,0.18654463494461263,-0.11674078103780508,0.04573429775243387,0.0673001481517089,0.014909564684782127,-0.1291536803886126,0.06587360827669472,-0.06557583609224035,-0.08869705573757002,0.2510696829532389,0.036264689531478655,0.028598214173467994,-0.10912545230924596,-0.0022803428241554083,-0.15324840972135356,-0.1420000695281691,-0.17723352168259443,-0.24432284267424348,-0.06934525838486143,0.21891120656416585,-0.023496200305266068,0.06413204484543265,0.17509963543781148,-0.11056708078050285,0.047995024409115614,-0.010280682795090016,-0.02703355008557991,-0.12663205225113455,0.037224689639421465,0.10180529982107239,-0.05762968750046275,-0.17125249405741683,-0.015397384307516967,-0.02625897446733317,-0.042852669766095274,-0.0822967525130315,-0.08133498415273153
24.657350540161133,1.198598861694336,0.02386143089666931,0.06837326725074644,0.02504133275774543,-0.12878307222504948,-0.03717327839409801,-0.1019225454353276,0.10872536256915744,-0.13205018517766698,-0.03653824272083453,-0.15434866613913192,-1.0207609447591772,-0.0686341598427003,-0.2971145730978969,0.11556473320779641,-0.07284860003835994,0.1151640188783655,-0.2960135905443078,-0.3954668301329544,0.2486701701671224,-0.3795280238858031,-0.21494056390036118,-0.09928133297772493,-0.008630558940437641,0.1400177084217227,-0.28960294707637657,-0.10364094484877719,-0.20102122199836103,0.010637089772139004,0.02085869021275177,-0.353729792291341,-0.2177055714425938,0.06324168511499755,-0.06472733268110946,0.10097364462959108,-0.11967940518508058,-0.007522793856827872,-0.08688056296571492,-0.23062100289474108,-0.09088448167879817,0.019217855493082713,0.15859541861155235,0.013681932516796579,-0.08407714620757269,-0.09092447549687549,0.06278109324830983,0.08688559440474061,0.017177971516840085,0.08010301616480063,0.28224070758694636,-0.05714494088325698,0.02892867356987304,-0.4661766203918567,-0.487012776863128,0.2879915576278012,-0.06879957610485093,0.04387577266190495,-0.02560103689063092,0.04923679143155542,-0.06045236231398945,0.29128364094989895,-0.2200906340404981,0.030193145061296965,0.19451266456197816,-0.07366561621356098,0.10098492911621275,0.13327442515399313,-0.10874548994732813,0.10986383312167619,-0.3048337483937644,0.4322919491567089,0.4602234681584841,-0.18332268792884004,-0.08748978113832773,0.0398371661364461,-0.025447267379024766,0.08346272316807872,0.12584544047737173,0.07882134179448727,0.09524626475395269,0.031173062172898437,-0.11862356339692921,-0.056001892092522806,-0.03884779528828734,0.15278352668073156,-0.06024912375212515,0.12502298229189784,0.2050354948986938,-0.1654501593014948,-0.10826431860297497,-0.07680043559358328,0.09189455943529802,-0.33352522074985325,-0.0308284336879908,0.03309413601281817,0.059348456209206334,0.19044486809300215,0.019675497252158426,-0.12336964349330232,0.12036877989664949,0.003747431204890267
25.85594940185547,1.1188011169433594,0.08964003312021049,0.013258656704332817,0.08054368688709326,-0.01950056958805168,-0.058052433448462254,0.055702288981609116,-0.06433104012092776,0.01669542868680642,-0.025545022599715632,0.3193923929219646,0.1474576071974665,0.05593739887805534,0.08656647002962133,-0.453118933485957,0.10795962555315777,1.9713040814717826,-0.4072555813963411,0.015346337716591309,0.09167022838484196,0.1919138538916631,-0.13939881507299168,-0.3217423757095445,-0.2638150548788774,-0.034085747675587176,0.17963904813723408,0.13825179620087127,-0.015901444727692726,0.04534544276062255,0.01764968913520814,0.015966610101689614,-0.03364037994846143,0.03939211040098516,0.03659732503884246,0.0928902879002387,0.14965295916311439,-0.03488584219323551,-0.08059948683609586,0.00758891719640201,0.052323031742289326,0.06079649317885102,-0.20707859354000444,-0.09704122771971636,-0.15015446762491524,0.09629047576789271,-0.02151012266034959,-0.030728038978122714,0.1229694990934442,0.022948333090313924,0.12730712512309808,0.049286960570044155,0.26618446269004636,-0.1739228718356505,-0.14379288875764962,-0.10925606131786914,-0.03129166718342045,-0.07530750497591704,-0.2445169756945217,0.10114938211382561,0.05711157586559053,0.05350475512271828,0.22487730442470272,0.4570560455704647,0.07575165383072391,0.013001485079007898,0.2301571437129693,-0.20123004256086735,0.49310730349705995,-0.3918091587743632,0.11824098984310276,-0.45821156164111415,0.14830405286907558,0.736824925459447,-0.23588633091177763,-0.06309443032546758,0.2500642447434492,-0.18750935741511818,0.1029873301342567,-0.07073948612769367,-0.026310268820988122,0.040459279170091775,0.08093306903459306,-0.12630810797794934,-0.02670395405518833,0.0029127738527332577,-0.22794461975538047,-0.09937934996123172,-0.07228428482505056,0.08373272276214282,-0.0030504536019394487,-0.5324615306074387,0.3723894629856792,-0.028189929406614696,-0.13454832112909929,0.3070503118716187,0.05548154659656584,-0.2773422250524686,-0.03689318400965767,0.13401549579383548,0.1551369785611936,-0.3068723557279341
26.974750518798828,1.167999267578125,-0.4132396332849381,0.037528985237434635,-0.05040488119543292,-0.17879621323792083,-0.012916925829009607,0.1092910150315006,0.010782208397289543,0.16736346660494195,-0.27691095800896043,0.3103721726147779,-1.0461594995098877,-0.28711830017090795,0.08046814253182763,0.07103938356618567,-0.15192961744539718,-0.06026317437482479,-0.24371867123124522,0.2786084190900304,-0.42106319495815864,-0.3278739077615919,-0.06539421980291821,-0.060639635499446114,-0.03319054501286041,-0.03947678005293229,0.046703535364903875,0.18305994714199045,0.06862000271144449,0.08134029412719425,0.040199346292573906,-0.048112603101784605,0.23857742095832707,0.109081841526814,-0.008834496343072592,0.2684762193926264,-0.03951397202472912,0.06155581500266379,-0.05072562238386269,0.17073729863023224,-0.08511499718945685,0.45275692030497,0.36839392371987784,-0.2912386574831088,-0.11347684026294373,-0.017649950785122617,0.49589264118018417,-0.2313892715683306,-0.1773377081652616,-0.07477337430778204,-0.12218100832664987,-0.6765689465360374,-0.11827201517497048,-0.10706602440538078,0.17578374224839277,0.03014210548200971,-0.2742439980436067,0.10221262109020349,-0.18200040815982066,0.1074856068721453,0.42177297030473593,-0.01857496028891001,-1.0243886036591376,-0.06527719718797384,0.3306970494722283,-0.14750834406218713,0.005304764007932547,-0.06381234146563475,0.13286610346920866,0.06988027695046088,-0.13471259235559666,-0.266860139109046,0.11676676025406116,-0.12984321972568375,0.05499318314533228,-0.1380316275158169,0.15455283201862052,0.20295729808768673,-0.0977500274289124,0.07195909301941784,-0.1523293425112265,-0.19467660948377663,0.10550248521146317,0.10624099042083203,-0.26385688367043664,-0.18660464909226093,-0.027563044859284,0.16802120983852314,-0.012577101114682729,-0.10395570882563228,0.07962462221672045,-0.15168607147852972,0.12990771414050709,-0.13708611660884312,0.15738642696186025,-0.0628339167273141,-0.062379578125865635,0.16067247122753847,-0.09764386035780623,-0.18670477474339064,0.29856722069188796,0.0362402707678888
28.142749786376953,1.1193008422851562,0.06017309268542681,-0.15138452835985747,0.10514328603802087,0.0762778005460451,0.056760153235298316,-0.07647889869147367,-0.02108346372392786,0.01855957338301227,0.015253586714509992,0.05141391107274085,0.01687173570299196,-0.22795018933206954,-0.47271894500379885,0.4675848524680993,0.7148454664550901,-0.15869187830886866,0.28850140028538485,-0.06379992458566305,-0.4327905971455811,-0.3348942423748623,-0.17754479365417297,-0.2876218973282638,-0.14822614007857493,-0.06204521935643504,0.06863285145722167,0.09057229947743178,-0.0726996312760814,-0.0964827923908833,-0.015317677409125166,0.11948611446543674,-0.03333643770079063,-0.18967187453169523,0.017872194527826665,-0.04962956138785251,-0.07119576931204874,0.06710660945313401,0.095399148529798,-0.10987096004146975,-0.19472461919054315,-0.10298328076795657,0.040408978849143073,-0.2303314158801775,0.06294658978381922,-0.20831168886943752,0.20401331631265607,-0.039028124387722865,-0.0029615141936492756,-0.28149560674356056,-0.13560654896788302,0.02225337461507395,0.07909348638152111,0.08515167403203225,0.08819342571610894,0.1480312767373472,0.3361940352839688,-0.13502158948819398,-0.004075483196073123,-0.07629166549386919,0.045219593825830254,-0.1162345724331267,-0.1091789358902785,0.503452727846178,0.017083654821112612,-0.5062866263279179,-0.7290885640940103,-0.02893687729947155,-0.030623330233977234,0.1421128295612491,0.28530334669851737,0.2112696195429983,-0.022502442099392776,0.030852605902933577,-0.19397284052266525,0.1068093433077202,-0.15191596026998638,-0.08743312285528754,0.0830942288313329,-0.10874527702733937,-0.21395302366356908,-0.046826565476975814,-0.09103769032707455,0.204808871617033,-0.01859747526653885,0.05721994013369307,-0.005240831228647561,0.04607838470690479,0.005588661957788205,-0.08261300611590554,0.16091633872099304,0.4506260603096665,-0.10435586624203701,-0.08005350754234553,-0.20494527664821316,-0.018070172970220205,-0.25569931878723234,-0.0043997193604776025,0.27596844133093895,0.01653421840306945,0.08095592703997481,0.2204590752273271
59.096248626708984,1.1290016174316406,0.044318377698167516,-0.22595078963689036,-0.18502945895280262,0.33750152146660767,-0.12273781082183356,-0.16724139622841638,-0.09534508952625365,0.32895968088048894,-0.3142632139910107,0.3863410093958641,0.06487377054028094,0.05830024574174386,-0.5293937719833797,0.6055295798330973,0.689617509960518,0.6886754737277633,-0.08560676620173599,0.15864343691139643,-0.2268836353671119,0.02601150500904388,-0.0819805260114177,-0.6539531154637974,0.26720681265193275,0.07603559783287935,-0.04747677218557225,-0.020810061547006056,0.11674682377881324,0.10704691829294202,-0.05443017444336732,-0.001581965813102243,0.04760676470972756,0.10314909051274568,0.0005023220320212879,0.22845186739627987,-0.13926948128701733,-0.08575687324201112,0.3049473474801499,0.18286870963832097,-0.09398986363719589,-0.028124820274010198,-0.10561134902599448,0.08130022911525052,0.1625282511180806,0.12077787074620794,-0.03852668519074518,0.27959149363922536,0.019571243768264246,-0.24911324811752886,-0.3575689404898863,0.5038698231203788,-0.16407312117729214,-0.3351587897328422,0.09424139227636275,0.09078640869733362,0.04416125915930126,-0.06139041069012398,0.06181239727281837,-0.011171989452164521,0.029635444004930574,0.30076127299077715,-0.3155401351492332,-0.5174932208221705,0.5816730629687072,-1.9548347937645563,-4.425877849732188,1.2317254647791511,-0.6215318441918875,-0.2804690927583698,-0.15167745255113246,0.04651872522774669,0.02367416375518316,0.13472657292157367,-0.0016503687692059482,-0.08066100479607272,0.07489507636622486,-0.01923225124679967,0.06676108370515307,0.06764735660423929,0.03330594401291173,-0.12978030596437612,0.04466254947389593,-0.15121636121384288,-0.24039060582575983,-0.02282407416748071,-0.28416555720745673,0.20119151793350398,-0.010522832125412447,-0.12694948322342767,-0.24332344935696237,0.14662050900563228,0.14674639108787274,-0.2972851334641983,0.07295819719660272,-0.03990107564354756,-0.09063706151013803,0.2814393474059185,0.15257626572751393,0.06181259932690046,0.025604045062740416,-0.016985433893478744
60.225250244140625,1.1786994934082031,-0.026650562368095987,0.23559303654898064,0.0916737605694833,0.03935132517776981,0.1448896764563373,0.3326638554305969,-0.03965764138338218,0.18182200032936108,-0.7107601190577708,1.1000237499665766,0.28288662741989246,-0.25455599110098714,-1.0312841514204076,0.04405700115076096,-0.35749079169311476,-0.21677285537238056,0.016051667894465205,0.21248665619243337,-0.05629691857850593,-0.08514173213348847,-0.109395451823862,-0.12171530193671959,-0.05712466519404179,0.24613416704896338,0.028851022012507006,0.12787106232123158,-0.03439478040094636,0.005507949020646628,0.018557556766147856,0.06498174029370565,0.10484781060859835,-0.18739891472762932,-0.050098633001889416,0.12497459332337324,0.1891675339873376,-0.07336689610703703,-0.229104603582382,0.1374346567467436,0.08834533775576663,-0.00042425980043811484,-0.18169009446672474,0.34340652577496367,0.3683110015923386,-0.116172214193581,-0.037654325763879885,-0.012262917200816736,-0.027394839362766665,-0.10133042459974093,0.1047051782031029,0.4273567288020334,-0.2882694875379095,0.13643413229539797,0.05497100664467178,-0.25219314238843726,0.04157091996183675,-0.03575879592310202,0.10559017030910695,-0.20083688243511733,0.3757333471550471,0.2971594998999526,0.2704731834751254,0.25325554485288343,-0.7326871646831282,1.091422839833764,-0.32506001336286283,-0.39763996859734735,-0.011325175267858173,0.009480379673797348,0.2147536095042442,0.02410102945427204,-0.060845316220694626,-0.11280760209683119,0.09380890707588563,-0.10414142745218706,0.11184205506180293,0.0942630818597963,0.05449513860058135,-0.032153279574752405,0.1587613680011889,0.0678016146446004,-0.012079780035578679,-0.17156149468444784,0.17777710638325717,0.14219853602707397,0.11740527793880157,-0.02442490624861182,0.03664089618046582,0.02508985995541455,-0.13179674798467383,-0.1230481637822418,0.14566161067749092,0.19455707575431236,-0.04506742789519014,0.13994695126849083,0.24091296516026295,-0.18451865309710824,0.21764105586522284,-0.2232019442879732,0.21967660675211154,-0.06263252229784316
61.40394973754883,1.1684989929199219,-0.04343413940716648,-0.0194143448552085,0.06804621410924355,0.007144509310213796,0.22742714930133756,-0.26693155477792707,-0.08696702355628681,0.04549916636264995,0.054611588170960776,0.7852385001104235,-0.23396047642818119,0.03213602108049017,-0.010674276743728672,-1.0314786778634004,0.7086213477233455,0.2888680493400951,-0.16430868483937974,-0.1905942438078573,0.2880639281039131,0.10724331712840415,0.21674654063537893,0.03385385156828248,-0.34694860209178247,0.045450059917062795,0.10203144098496081,-0.10920715454252919,-0.039030177584545016,0.05369749757979679,0.0018309309924356698,-0.2608426837791534,-0.03865686789588403,-0.06512385855057488,-0.020367544457375555,0.13928657614107795,0.04565286432728977,-0.07468935655550475,-0.2320103008777012,0.09937874889940278,0.08749911855705644,0.05845243323825784,-0.14194564895219688,0.07707807972413233,-0.024380084712849928,0.06164964011558873,0.07599819598999843,-0.03269756783512828,0.11888402656827957,0.0624764075899705,-0.06823888667658234,-0.25396304089804367,-0.12408195058703697,0.20126138845859312,-0.0962039569600813,-0.026207736330061057,0.08521479693579387,0.05161944951023413,0.030531715531034523,-0.002042463897016601,-0.027084786947856678,-0.25806140165559216,-0.10182892252875722,0.00121947573271617,-0.6124035843527401,-0.13211453250424712,0.38488252143720647,-0.2836117021501919,-0.06504412977630689,0.0983047943197877,0.003420676228156963,-0.3269982217895091,0.254551379944744,0.19022982250282014,-0.044082647441314,-0.11615780448504293,0.029598732251146828,0.0600823576249596,0.04263312406262387,-0.062077536799373535,-0.07302917679681374,-0.11381386059284745,0.10832323566579373,-0.02843067532663572,-0.28167320944353147,-0.11171416089189105,0.05807049688115175,-0.03097353705777349,0.017876852436080864,0.05461183117964473,-0.2081224401204767,0.3448192451051562,0.023513751329902247,-0.1818222303626363,-0.1413394954689986,-0.0792130653255729,0.11459197064682085,0.04802893257305642,0.008033139016215976,-0.48677337306653123,0.009668572507044972,0.11551753128544798
62.57244873046875,1.1086997985839844,0.1601136105661221,-0.025533097426084426,0.04901024074061102,0.07889060621558937,-0.030383572306642542,0.11124547233774967,0.1509722427085406,0.1464458829496888,0.38203616389298534,-0.24244369533727045,-0.15386631851744204,0.18043503538012065,-1.013204196657614,-0.27958986377775896,0.15503117352803214,-0.24566054038414506,-0.020079089666938936,0.3717899018442428,0.5825946113722237,0.07709235162176965,0.31384651666544255,0.045043643198504624,0.4222737508736157,0.06974487585983845,-0.13168070820059477,-0.021914256961765667,0.022529091800780228,-0.15160401431814796,-0.013787640967497749,-0.20005646675179356,0.061199336385571665,-0.1124518385263732,0.03782612910076617,0.19629946552797822,-0.05134448640945895,-0.17729309309829325,-0.06299981413945896,0.1377414184652515,-0.04920539453653118,-0.1421105268410033,-0.09435700868324642,0.2699724625151067,0.10065908198441148,-0.05650184003931365,0.526972614787268,-0.062211590586972766,-0.18506945566138538,-0.0604514305560008,-0.06769930478182759,-0.1669909652513873,0.13158463574106666,0.009202694003833597,-0.06391922247229972,-0.10852734763526367,0.020837006361281052,0.1506503743476082,0.13571493322532793,0.3402594231833277,0.2947528351182931,-0.31642291641787124,0.09892516026742976,-1.4439087364063337,-1.1990390852339958,0.2520729150345556,0.03134670950721983,0.20126170873583152,-0.1364673507812486,0.044657780575977024,-0.31392991599633097,0.13375119536258748,0.03213037325560412,0.13596418040752906,0.14493760214369705,0.05494085110308366,-0.011477146414920703,-0.05270663520859453,-0.009840033475193098,-0.07814360899526447,-2.33542472619086e-05,-0.04606243277099967,0.1712575077871167,-0.09556915340488485,0.1614201463859269,0.03322976090282141,-0.08368514686306053,0.25738759526468846,0.05616527857536026,-0.1032759595924782,0.3104325630902247,-0.2471107204588977,0.412354298553804,-0.05421134685213004,-0.4486679518506793,0.15802320888226826,0.11378223410249816,0.27354391513166404,-0.25141943502448144,0.16282809723814648,0.10438067077481696,-0.14449345502125904
63.681148529052734,1.0983009338378906,-0.016534901376031474,0.05462069842384043,0.2236662214029354,-0.12362631254145538,0.09568773764060784,-0.2667681858602721,0.13452888121061418,-0.2414776836805569,0.45886489359522664,0.22602333038609115,0.11401281939439514,-0.11997452884377792,0.06736286410043978,0.021203297352434078,-1.5398193291724505,1.509974097144502,0.2783888793200805,0.02855461553461522,0.08331145677418772,-0.24685375791508765,0.1848951198902222,0.012464899107451341,0.029775362554815825,0.01974140610361791,0.07501085584142331,-0.02250112571524956,0.036772266042063975,0.04246660915788847,-7.198588847695574e-05,-0.0447660060470229,-0.03758001087682791,0.029120175018346642,0.0961655008118278,-0.07254065988279051,-0.19674662564840054,-0.2631673545451576,-0.07867302939419668,0.11473577428483625,0.2984994351506276,-0.08996987310901891,0.11582082027510449,0.1700298169683987,-0.006796796946401252,-0.11291772421080011,-0.08168369488378266,0.16988288401013987,0.045123058421360225,-0.1449382663892736,0.15230576987759709,0.140185230406736,-0.12015160560448304,-0.035227761139045397,0.05843854183767219,0.023713219851065066,-0.06329620556724655,0.10236677574867423,-0.10477571351905471,-0.21575340547788438,0.10128441527939153,0.09599105107955051,-0.24927707564966864,-0.27355252852767975,-1.4894899840115232,-0.06688001088950152,0.24692291099946967,0.27580344547158603,-0.026020829939145246,0.17389348127239673,-0.11412073794040531,-0.22489758789929892,0.12668531602200042,0.3636439069379098,-0.20981247540638148,0.04577680082342389,0.03425445487515001,-0.05950535957865483,-0.10237936744498574,0.057515201585710635,-0.10070610090988118,-0.0937027673472758,-0.16533345220189855,0.024711186745165946,0.3346850197753226,0.08536457842803677,-0.09655083264368229,0.14817291919677414,0.004015436011273028,0.17941260159095473,0.059244296164655756,0.3407388300134713,-0.14955159360367515,0.28219685390221816,0.2744464121121538,-0.47667758193194926,0.1382444624439717,-0.07540807319245588,-0.18599150343797813,-0.06014019173977822,0.015211830903374676,0.020488010141815102
