start,duration,0,1,2,3,4,5,6,7,8,9,10,11,12,13,14,15,16,17,18,19,20,21,22,23,24,25,26,27,28,29,30,31,32,33,34,35,36,37,38,39,40,41,42,43,44,45,46,47,48,49,50,51,52,53,54,55,56,57,58,59,60,61,62,63,64,65,66,67,68,69,70,71,72,73,74,75,76,77,78,79,80,81,82,83,84,85,86,87,88,89,90,91,92,93,94,95,96,97,98,99
30.107200622558594,2.2522010803222656,8.936323158642672,-2.907796109129894,7.689589512116476,10.582809060192623,0.0285591978989021,-3.3152028156782105,5.30977736281515,8.942117742398088,-4.866072007372078,-6.221380156189439,-15.49254907799962,-17.940606802726318,2.729944046052719,-12.616649422527324,21.349781472699547,92.8729434074299,21.85373921635871,-8.182145043545322,20.997325491454816,3.0662830438953,-36.6441019369985,-31.729088698009733,48.88803184245626,-29.59853461615554,1.2173099568790384,-30.452995597826185,9.234569385981132,73.45887833880886,-93.60361119990156,-71.54797173559386,-16.7404206540598,49.19155924309365,153.4286038887489,59.23143505502147,-70.46858026367964,-45.36624418430389,91.3155098838435,92.534765746808,-55.67598991096228,170.9704164909504,51.52806740396924,-35.672381502786884,5.244724804462126,66.84675405671055,2.1990986050896915,-10.091490505626837,-11.465605619456824,49.59209700551325,2.570325794162482,-49.63771603886959,-39.96883191818115,-10.971619575931353,14.996134885918115,27.065693620166908,88.94496498833644,53.88506402272206,55.29534287799903,47.819146660165416,6.1218914158211355,-27.11164555351847,-14.773350541170933,107.55464773019085,-44.77041059361774,8.50870174504449,-32.83668508095479,73.71291142095242,33.17816679912674,1.4121818063677471,3.4091022850511448,-28.50625293291531,-31.092593655651758,-10.417399877363838,-20.249869243756468,2.7251507326738484,-9.185294200817088,0.3979247947076221,11.144957096862534,-0.15120779295640496,13.539920940657693,-21.009190104521057,-8.341618882788383,-0.3730996163375422,-16.668323209124896,0.9224008981747587,7.383941079774931,-6.423667725351757,1.8216522674710207,4.3415719376935575,6.668863962143583,-2.1298481632855752,2.6745517269623833,0.41168019486593843,8.169510640032966,6.698007274218963,-10.65319932106608,-8.015442050311433,-1.8479875691007739,4.181821462388396,-3.6549348901945273,-3.587097458917153
32.35940170288086,0.8502998352050781,-2.403344724316945,1.5511094164181949,-5.255088002047749,-13.259576627677992,-4.710757974943018,8.954895896751811,-2.480364496389665,2.3207243318944695,1.0757875685155032,-0.671025833215098,2.704701033252107,-9.033450816564052,-11.974097447072214,11.306532074960812,9.547273678523599,-35.44942541357932,-25.084595164973944,-35.30799072777995,25.9136307478531,-0.12831575369962334,-94.79243745569215,-132.32865225721366,33.306801762537724,20.39055496725702,16.9663450460796,-28.34316779264028,-248.66721473036466,-91.84921220937295,-95.6684604944837,-64.45846221401162,206.29076984372813,-61.05874283366116,-80.41044578450186,-28.87747081646023,114.04107620909276,-147.6523271184356,74.32729561883728,29.192199686169772,39.65329187328605,-17.977103633391668,-65.45308761638768,-13.129346966236302,86.10502153797489,79.89284155559812,-2.4702359062369617,-16.187691233550222,-63.348948363859144,-25.091230026335058,113.46207748373777,45.428267065208274,-50.42709981791004,87.40965576293772,59.96527126723884,-101.93215885752483,44.85906469311144,-33.25925766297936,-14.88905810579454,9.717385764780024,144.64801289781352,-40.41939377426512,16.292836744597345,87.43090085880921,29.08053966852284,101.59925642314843,-3.489652875796717,116.12897799336126,-30.835749508207712,53.477136740748264,17.15519225581064,40.674962259458354,-20.149417213395946,3.636522664381478,-2.1401339935477797,12.335841824003925,-20.64545003403503,-4.855083977539718,28.121374998661395,-3.9314726894172756,16.98596807516776,2.515704505577702,13.875674322276245,0.7013226720823558,9.477161896625708,17.660042129212517,6.221696548466696,7.355767732781641,-6.687500753090336,0.1444599588901978,-0.33046691193495104,-6.185756402347068,0.8973074548099129,-3.3693876282610966,3.994851572426234,0.6410022693175712,0.6320303887429866,-5.017587631407933,-8.394924067695419,2.625558577000435,32.54701125162437,-4.993745199160079
33.20970153808594,1.4614982604980469,1.1475930830162824,-13.38046502311022,12.762888106046075,2.823320595390183,1.3451253671928751,-4.281230052591223,-7.088033070713693,-8.602248159357938,-12.704789931872163,3.6714881108082,10.624384010182789,8.947210042209155,-8.796317810490894,6.46276226749763,1.1573633728403085,-0.4974672932468991,3.223466133030183,5.723097846262876,4.410740037456156,3.5450431630127923,3.9267449827040175,-5.665289618897771,-11.481506536135955,4.989581719328812,7.1724317784636,5.25344938614591,-11.595649862065143,-0.7590991908741204,-10.89587229942876,-20.700666358040923,-8.818169558439326,-24.403652999751547,17.884317281638477,29.46025297310534,3.9564012717014516,-4.481557090699149,2.538272491339686,-1.8373187096939425,-5.090134592583354,4.306389131031326,9.977482712241699,9.026436335640357,-9.884635338404543,35.95857212504623,-7.574286263764865,1.245960346739226,54.94355986288704,-27.90112807122717,-28.06400840046523,-28.33509692930594,35.799858723288835,-59.88140348385308,5.6947846785559895,-47.0047670497355,12.80052633703633,4.374589155760711,-3.928671789261988,47.04043163030538,-23.26287238862804,70.08967385144206,60.68844569788152,25.788965232655187,53.086031201732396,-62.67751200623128,58.28397592110251,126.0498255120877,70.14653464104384,53.553289664312366,-154.2090613737653,65.20015043446239,82.2099428432154,-64.93848731769148,-36.114447759914974,4.804787539635097,-167.31974360830753,-74.36141387762856,-175.46536681477562,-92.61992261209656,166.68148824036518,15.876170574428627,180.85917388256206,-77.66893245364702,-211.25593802319116,13.05802000620072,-18.528656965586414,245.39216341760326,7.5049961415789905,-330.11294772126627,74.38139941758826,-118.71965684296079,-38.37850406886977,62.783807096272305,-357.56629329616715,-16.71299754102085,16.74997363331938,12.245350262136682,2.333619732448014,233.97775965091512,-75.60575886742924,64.92456222519503
34.671199798583984,2.2326011657714844,33.602787102927465,56.483234591472325,31.992994964496635,-30.300474286661828,9.592336877933313,102.91495239585787,19.146658715032245,-11.93383418470515,63.07545207370205,74.29894786914147,136.66995611585952,-0.7790306389945791,-14.953304341140463,61.70454862127862,6.501715527811385,136.91493716172585,-37.102648729135524,-20.507840240283063,70.41526147073739,33.825428391105724,-27.13617517017603,-23.01224751450749,8.838991445190349,-57.869250199185785,43.706876476376095,-33.88116261658432,136.42142783138968,13.257786984565758,44.424754497714915,140.59243926747442,-32.4663167950111,42.07848235156136,10.170385712680684,139.53539533568264,-56.65744381917439,-3.009570161532462,-27.139897448364255,-127.9172209164422,-39.64377375757113,-16.872850245483704,-11.99342440028912,0.17747826761173258,-26.32131897351965,-37.34862700581408,-39.84861059389653,56.108126635915355,-24.504516372185797,17.909329108791116,-36.48846624918299,5.779094653051574,-37.49733842088334,-5.077249482281532,-15.09644946225347,6.327084720409648,27.12456852066139,23.565233807301922,-18.704625612558058,-49.05694479344278,20.992880595340097,11.68792672158451,-11.087370943802599,-4.8020846537628445,-3.284117821588448,-17.03017892879149,-1.0699515738853682,-5.070573189937003,-6.335444343367139,-7.560116747514596,-24.359165863352757,-6.1370207931253145,10.440683972850902,7.136877415982167,-0.852936127381705,1.8648679805170976,-1.5672133575619451,-5.098621179449242,-8.23246710364084,-1.1241852813688382,-0.150150747641288,0.8432746478658641,-1.5828878615100161,10.525565617230114,-1.9071951447239428,-2.097485487771258,4.512022646592415,-8.015945322751017,5.918939966740687,3.6222840348550873,8.525763708450258,3.6482385571106795,-1.0297165357993272,4.256302044104985,-1.7772248362466394,0.2732118789054313,6.826621874501444,-6.2262249096389315,-14.680644403256341,2.5221017185822756,5.944894949296228,7.00591251092111
36.90380096435547,2.5321998596191406,6.860444899161569,-7.674707880357861,-8.873860549639549,-3.3589317159199403,8.190416179198115,-58.372225025442845,20.206074115959836,11.74695810408554,15.450227023405724,5.053497206425142,-7.198747175481951,-39.2200753849386,2.940884109614419,62.23215666906792,5.435171592746378,-36.428009138750475,-46.00103984709284,-15.963080269608255,15.50032390787743,8.773218857582279,-46.4587759656302,-7.144584314449882,-78.05273675549009,-24.41627622392051,-61.01196030203113,83.048678944749,-55.11195288683329,113.45564342071802,-122.41579970338834,185.4809610969461,-60.999694348406365,-98.14249067385974,45.35706265375346,-138.20539111804055,-65.47815605269025,144.1848423808408,-106.863567552989,-41.472376898024386,-117.80987688054405,81.36063496212721,29.42635613094195,174.41049922196723,61.499298191454876,38.723150171407376,54.56324487356143,-19.40236544870828,-112.74807300247227,137.70538659785302,81.14409287883058,-56.00663528659215,78.61301964021682,-105.35134802995867,-15.670016732470081,2.205087670515996,1.99567927924803,-85.6247685390571,63.773350857086925,25.60784146269237,48.97359997742278,33.70781500466293,16.81594172832807,-19.745624205285292,33.08848678984143,-61.05773051302054,-59.01507759504839,-3.992783638247606,42.298830311844,-37.42430722255454,10.228844179258902,72.35169514897592,-5.678471587250961,-2.4208948704480626,-1.0679535367932012,6.7351520314004265,6.193125970045687,1.0731805295073265,-13.701979872089629,5.050761425050756,-17.389285851188887,-6.252747837937049,12.065007182370158,18.243250218027452,1.3900890501753527,-9.217843236544077,-5.5755513305550055,-0.2717729977281579,2.8454326929820084,-1.5743201001386267,2.6953939727479974,5.534356661081454,-1.714265977231132,-2.3319209727626378,4.581519433487349,5.817680873613645,-0.8798769181287369,1.0455469367834551,-1.9010402724791586,-1.520408966750347,2.5860322427321063,-10.64860427360239
39.43600082397461,2.4321975708007812,-5.909997981952574,-3.4786761259968513,2.5645030490931124,-0.3633020870859003,10.361642181797336,-1.457624735900197,0.2057398392904224,-0.32848343717647865,-6.339028074477632,7.110362452675059,2.0369984676224604,4.267690259255402,2.0831981057461677,9.702648414245056,-8.404371453727654,-33.98756153400926,21.348388396889234,6.621696005272952,7.364097540607272,-27.602249145413225,17.87397935615393,2.9137823269529033,11.249722175165214,68.56436250812314,-30.236812897330715,76.09247574295487,-76.67649576349345,-20.420798857822323,-68.53254081106886,5.915967580049227,-51.6839770754067,108.69125013983748,-56.62041963217136,-194.33257056906547,107.54347431874626,0.8348781654858293,-203.22094327613829,198.97133851018486,-102.01176107006766,149.48876704854817,127.6545074710478,-1.6139504532095579,-60.403207617841936,40.353294470206556,82.37096165816821,111.21359912918145,-76.42398017537681,-35.09162882901293,95.35196062399443,-4.621490610165619,-80.65240180096241,-10.340827717804824,67.7293168285115,-3.38338369886967,120.50193460939506,-14.726344489308815,22.13537319463135,22.348002100306157,59.98633432663377,2.380883412364934,36.33667004684973,120.20488329201395,-36.21174752216352,4.051361075527792,-29.65287147811339,-27.96249482871952,10.738459028338951,0.9608431153423452,38.33788750191346,17.60995611092739,12.019006750992762,-3.9716757825154723,-42.093450965276816,-19.91017534230441,11.320243210930652,13.847606872308791,19.747953737441286,13.062504184396525,0.09212697338853576,-19.6800104412964,3.9250368157428674,0.06429915713467227,9.08877926628958,-12.739098484686206,8.109015210237665,4.512706183215632,-4.476782210267025,3.0690147674318524,-0.7446552672375617,4.880886452122528,-2.4395469827186793,8.743703482249567,-0.5166670516259158,9.543342627322357,5.304811120278375,-8.063468092359898,4.6890289817225606,-6.836451301155161,0.290512514969433,-5.027386108879282
41.86819839477539,2.582500457763672,-7.369255151704316,4.970680244091201,2.3860258976784126,-4.5520489843728384,-2.6632276548677236,7.846588087022686,-1.654385196105718,1.206561329523668,-7.017383931545451,5.051958603312681,0.9224866264539564,-10.65789545599307,5.239145742640248,-10.815634062426675,18.08121974738714,-3.1836505055854136,-5.0902680475290385,-0.44801669108480735,39.05927733455138,8.351255833106853,12.440990243308066,4.535275350543763,22.57234813580964,-48.57136761178047,-21.98520686195954,-58.29504863892688,-51.398191193468946,-33.367933154105025,-100.0544216535019,-8.393476703333963,82.31750339173506,136.46199368165878,39.45751694566657,-78.90504494562099,52.495710554092994,1.56293210152851,5.754936953377175,94.65885040040469,137.48822883786798,140.38757893133553,127.65793034450921,-22.871729202572077,49.24782366798651,-181.77203772486246,-26.635409739977607,-11.337565985585204,-8.456095639582712,28.226866890652122,-3.709411791388682,44.956341937798896,5.974462005007808,42.67967129260142,69.00768144501747,-164.21748001900983,-87.3276250804327,-22.719812893539395,87.83104675089479,-20.493572145805405,-93.48444138529013,54.38712703301329,133.7192259416072,-24.697029170521407,63.76257993252792,-25.978210088732006,44.69541947181715,36.461653496132556,-12.611949168549316,20.30212975774013,3.974522088132952,-24.38385147003124,-5.410263851468164,-36.27927289334846,-15.562628975307064,4.039764053301504,20.5809991594354,4.201831420093547,-19.85559833750347,3.081015540251215,-12.158753293891635,11.029858519887961,-11.598775712122812,4.472997136961752,0.7995369637732433,10.035025609401545,12.189860858928737,-6.886415417718914,3.775120632095698,-5.881422060202806,4.137094710931876,-9.121160508710544,0.5125819075179217,3.925117383459676,8.183464668820061,-0.6077543389176923,3.1940278263355357,-8.410221762206167,9.991525783415529,-1.7770522583284376,3.786193249262008,-9.363702902382277
