start,duration,0,1,2,3,4,5,6,7,8,9,10,11,12,13,14,15,16,17,18,19,20,21,22,23,24,25,26,27,28,29,30,31,32,33,34,35,36,37,38,39,40,41,42,43,44,45,46,47,48,49,50,51,52,53,54,55,56,57,58,59,60,61,62,63,64,65,66,67,68,69,70,71,72,73,74,75,76,77,78,79,80,81,82,83,84,85,86,87,88,89,90,91,92,93,94,95,96,97,98,99
30.107200622558594,2.2522010803222656,19.186712682481208,40.15981473150154,-40.54115704468904,-4.16460954557272,-9.108136887147564,35.05432329085542,13.77469245871417,23.797431243971623,18.32325067106627,25.85018206769322,13.534802365431194,40.77403968983546,0.13978173661631987,-13.773869841063009,27.312255772746497,21.9941481641847,-94.19708543899755,66.47381104587406,11.960112793882665,-76.04274475892174,48.211063786422244,8.96135625391584,-8.098845882305351,-4.619085051762028,237.58124883201043,125.04085757849549,-218.95124769415602,-7.50458902312646,1.2660947087721226,61.52025187261053,177.87436290497084,-54.92598585446666,-186.53954521802288,83.35466092676921,36.39534391437702,70.05435500220344,-82.23641390885786,-99.0281081706426,-93.43652478203865,27.473973249191005,51.936756943684706,60.82763454695566,33.822278068823735,-9.139558332733142,30.288209368876988,-110.08757456405199,33.49135543848489,-10.504742331802662,25.30488964244045,-55.23899223726652,-56.90435073134148,-34.43897821718684,26.58867199477271,-107.0521123034896,-67.16912261468087,-12.17535255583914,37.39300324700461,63.282422259762335,-33.69079775888322,157.53701133244851,19.881845047200684,68.3940227839475,-9.698391780751592,28.19494991729396,16.04126807106814,48.477336766686605,-60.009865055753295,-10.654006960753161,-128.8085144435695,106.21905976533913,25.083366881622958,-40.87254539799139,14.828777431128497,-1.6712766541363453,-1.9335501949970628,9.385647126948925,4.862858671381735,-14.908812279793139,-15.119781035470645,32.67922482921586,-7.311774225652009,46.63686438968408,5.1703236633864345,29.92194272000987,10.061804803341456,7.044902820841324,-0.43954211900302,-17.941296659499777,-16.907582517795667,-12.398235054889403,18.301134296926097,26.944853764269997,-1.1521406399655276,-32.5840800255149,12.095704924095525,-26.4242410214198,-14.951956961663264,-9.948005298111696,32.93113512779926,-12.836569247706102
32.35940170288086,0.8502998352050781,12.697905391924541,-1.3545130849186606,28.79732545440336,19.24165909582905,31.871407315530796,-36.273836522718995,12.020882399008315,-35.546120113855416,-4.984798699743016,41.54476326509075,27.358090315867805,-0.4555040861197277,6.182008702046716,16.926563027331966,8.248875702688862,-18.986714680915227,-24.870829028060776,4.912548606854401,-79.20043979718582,5.055552404290445,86.87561553102358,37.56193690525987,-55.91131368211255,-74.01599756622207,12.030845345480941,-58.10752497985375,124.82416922390703,10.618010142535569,72.11747616780296,-11.640600150246733,49.48529303744685,-64.66495291679165,84.79571926415055,67.4923866657844,183.45369195550532,132.16821787511174,-273.13427690251257,-3.6125450839308417,-126.216761671007,31.522025152898706,-133.28603809340535,-6.9493622733665745,-11.641947829578028,-18.893905705722798,-6.369688764627469,154.08429106883258,85.36077441208344,-11.885227794680159,-121.79339364597874,-92.60567986579369,28.12659310045792,-21.51560563429193,27.11618185370886,-21.673679575480346,22.71585732073811,61.073788039747186,21.550254105511943,-38.242342885717086,-35.26239211094608,14.797135272051118,-11.829461824743413,-9.894568703557777,45.940529827409655,-79.91167178484845,-63.3168946809115,22.820326471260024,56.345592632259844,20.346726519577253,-41.615851895504825,-63.2207353663757,54.563414397416935,-15.583271973614945,3.542965803436161,-17.061883966936037,10.953483825281335,-7.005781697360959,-67.26604485287832,52.50111043204719,-2.716607823076181,3.547834139304932,11.389957860351382,3.6892000260855298,20.060000679244034,-25.764541796322035,32.10645982781688,-9.46825509166797,23.441583921576747,-4.521894607810342,41.45410431947992,27.683002300789312,-20.290751506127656,-6.204613422053487,-7.802271520926475,-21.793833476040646,14.155230144596523,5.14871201088336,0.4250708983587739,16.085162214936314,-25.30412495236438,1.5156899787234552
33.20970153808594,1.4614982604980469,-23.760826939853338,13.60827300085386,-38.77091135801445,9.204687844255918,-5.093049839405044,-18.300082231766595,41.77546311920857,21.193687739992384,11.956806341571069,19.65937641199649,-29.38197825973213,-37.33498178626368,3.790180738393123,21.883871947814452,-7.462727656791558,33.763969278902245,-4.045760461988226,-35.27199202617474,-8.919721524427935,3.219516114337802,19.605003375394286,9.417658508454233,19.826178240938116,-0.1066520071854633,-23.258835208330126,13.392324779283584,35.8866392983802,16.27748452288032,26.76623522595611,-6.947584062017817,63.13922173674359,11.154394714151664,-63.37028381999758,10.967759787623399,18.199939368384264,38.07230712745394,17.266989910653987,30.094259956012714,10.42357474903217,-54.18396043296915,-27.69589426042373,-48.053466728823636,-45.7570790969305,20.299954781940976,52.0297367723835,-31.217554457027276,20.942503187885762,35.52045695928355,7.600013360377904,0.8005302140884574,6.5878558937585545,44.3667558964399,34.82269323172123,-22.745653585826883,-93.74323463546925,2.418850338160662,-44.68705656992501,-26.095905874094992,109.77275207809556,-69.57030425998221,-55.13884829231772,61.41705815756322,-57.309942992485105,102.5856998857383,3.0545282720129405,-109.22777408303905,137.4821831275666,64.68640993136421,49.93051294428164,-26.976949727455086,-151.3304207280974,-71.87134492508655,128.29393000227515,114.2746204166961,-39.21290813189278,46.421773290951265,48.04072146959145,26.98011908035653,42.22670247893768,110.74965250041862,-95.39193709803087,-11.344893593230605,79.42981270387992,153.71557434313112,-0.18923527201969748,-14.386468282529876,9.826351582160367,175.9539007877319,-52.427348734555956,114.49771138880104,67.94454493513564,161.73100594436875,49.824782594120876,112.59572877315298,47.152297850653675,23.17146285017692,-19.59829989481068,30.977576014065008,36.22620379552696,64.13801686681417
34.671199798583984,2.2326011657714844,124.4333457204655,-31.580956970635043,-141.14841569964398,-61.112580071966995,0.9214360223140474,-11.530873065436108,13.305203244782565,35.978129995676674,-61.394543050655386,-108.86082968617274,-109.49512112621719,-14.029707210650837,-45.64469174199326,48.97404090360032,-17.733382265814107,-150.63541397442413,-74.77839664815286,-71.77829864329692,-94.80107376103602,2.4799595586966827,-163.8854409860082,13.205964242356597,-124.05127925345437,27.389987197569948,-16.300833998997,2.73158143386929,-3.718682774129281,-16.20661037846592,-13.10309798577702,-24.67214695877695,12.507272330325037,32.13986138504133,-47.412330682146234,-222.5781476153632,-5.790876349346604,19.96221819221482,-45.4206205040182,169.3166381651345,75.63729002589336,39.88289740504494,52.79879055782561,45.51010231238465,-25.63656493949641,83.92264083115934,18.415526033123022,-48.8114929684293,5.812330348188842,-15.347976018085355,118.99097507638828,85.97138368298803,108.6373871888406,-2.1770390178286902,-27.201902511971166,-28.68764796997805,52.386685153284475,-5.49084645287832,11.478349997566077,35.267301817565865,-50.01353729411592,-11.083532567220558,51.937202026806894,-3.5411812753490084,62.42900846684623,12.249334457877636,7.173820471648288,-6.440413671862358,29.506874654432792,-13.017079448291339,7.450492330562921,-4.988995078756155,-28.19103431623679,-3.6480593967359916,-21.634179416063752,9.831242929983194,20.574239702156806,20.712627438893023,17.521688405722777,25.997875136043326,-16.36701535615256,20.651244875353377,-16.626512406573095,-32.70085084831277,-12.134246641011227,9.880131972860525,26.438339983013275,27.890843387410403,-5.2181160163126625,6.606987473901823,-30.213192838917372,-14.271797237638213,-35.8759390480413,11.54895088519052,10.893907500952281,-3.2448700703193563,-0.3758944685854999,-42.395907476986174,32.348370325035035,17.4347497016787,-4.526185090660359,-0.688241170174634
36.90380096435547,2.5321998596191406,-26.58491810769051,67.94123243723378,30.530585933799486,-17.813197359876543,0.9815775173412025,59.53625925347826,-9.746033417430649,-1.9137361546761777,18.495201857492855,6.784050223683736,28.94283106223466,23.319069059431193,-23.706239121523634,1.8503016330822835,-2.6335270280527148,40.43870382677258,49.68156923747188,31.03862050916569,-1.0495327321843817,-31.02715568780294,60.04286325256978,24.01218793641091,26.363688901893994,87.97015873100057,-88.97110958426815,-242.25566414878594,-32.060083153101495,-28.060319449956268,-35.49087134389065,-125.01630343856223,3.5225380960862935,204.20425069715986,106.0489907187143,36.48984705559127,35.55077743055773,-2.6943077924853336,37.31633758929037,-84.4902058820338,-72.87646087686586,4.9288491789909505,-30.393959192681518,-55.212007638627675,-12.085976479415132,-72.4483291828183,-39.31982344253521,36.34051326870186,44.063576859640634,-126.0663301517673,-15.434983805611047,-61.60992377227231,-137.28692042323055,-10.661028299313376,-48.28946688319587,7.148606448497617,35.802716198989046,40.84551795390724,66.88489172237429,-60.15508690406998,-73.96848180665269,16.523951700730485,63.05155479811491,-68.86453163428023,-54.74496052831288,45.3736354398839,101.9382888171373,19.564478139069145,16.275939388261122,36.421877113038406,3.878842027141377,-22.950841476902987,16.432802604721118,-9.502253526263344,-18.29647157158554,-32.93646693043948,22.559971270828633,7.890622007983332,-10.226651185140266,-21.20693412612034,50.867499982582714,39.71741401313396,-3.883902718221953,21.654029716679844,51.55980190292329,39.19371973920091,-27.753790925652993,-6.986499674348414,6.54472527577912,-21.55576817332182,0.5542062980017675,-10.944789357265252,-0.8205050699999497,18.17749866162559,-1.4947483486047464,-24.738848507366036,19.054026982813628,-5.330918329784026,-41.73645760148576,19.396369556658996,29.593163086016038,5.168122055228457
39.43600082397461,2.4321975708007812,-16.085280582317193,-17.758894508343083,18.401676778772547,-4.086068602230506,-17.59169945421086,35.88834967099461,-9.212000631852973,-6.288347128927632,17.77263055445693,10.895648475674474,-3.480299430656207,-21.447144247309396,4.261642349088516,-36.53478341452244,-13.123850567439668,8.886561584874102,-23.29741811517479,-36.52281001022108,17.964800651755567,-44.11460135188628,-32.25723898629241,40.601874703419455,-13.65704145424075,-62.51216541466558,39.58629125515162,-146.87411300567413,9.240414099553032,-18.378896501067373,141.84074689755064,44.457175488593684,96.92608108723041,-36.35981264960509,33.13975126770358,102.57276419679991,-56.192833760520294,33.015807528836035,261.781191578266,-78.00093295264254,9.672200284433103,-90.1767243266445,62.88717568451598,55.456728778977194,20.785103966394853,-101.78921192111076,119.6490293889727,-57.085116237647995,-46.42394372912323,29.46152962776241,-1.3446835482865538,45.45344753234285,-95.39647085497442,124.9004486925158,-9.136899833003111,-51.53803499803352,-62.74307310462312,-60.94603340095163,61.707656951476174,-27.25449457913048,-24.104554510049766,-87.20412674048346,-37.498228768415636,-17.507160579657892,-107.37835050137392,52.10808081986482,-4.667912286021098,-69.3089600796471,-72.10905761788128,12.861264088960892,33.45246981482273,12.989810680608649,77.27708988220007,4.189209527782751,24.054073580898212,-29.274987480579462,6.939224092173628,0.11601834609422212,12.790760052752983,-9.654131686482547,-7.161380406543973,40.19809111707807,-26.841168634049325,-16.757804280358933,-13.708208137723734,-18.037204506789617,-29.027806069699366,-3.897069061444057,-27.12423436189897,-27.073320411089107,35.36859493179095,-16.86009379097264,-20.561994121783954,15.270892243609438,26.667011390881086,10.358375699930473,-4.926425338961796,34.44707086139988,-20.359224148382495,-12.099788905922527,22.32152164857152,19.391248638631737
41.86819839477539,2.582500457763672,61.99374587796309,-26.966938748869456,35.510712192566075,0.09731301207018106,0.8355297090496243,-11.216130351035767,25.30567445704203,-14.613645999890913,18.31085810360456,-31.541476989642085,-4.4405994352955,-24.586637889501738,-2.6001331122340687,-4.987599047661871,-14.21175107443856,39.358385952198,-37.6517379204616,16.233905767699707,-36.80482115386899,-1.1880903469734356,16.271941769891555,92.78127506457423,-10.020499869400503,6.760288448724971,-62.648850823131646,55.79388981523085,-4.906336575169478,9.658064496424451,57.263160510925395,81.71053351978658,-45.061881695562036,33.243472882278084,-97.15603614259355,17.990184554624253,-60.694674621996995,155.24493118428052,-33.919070583395865,-68.69979273892939,-106.24288982695896,-106.96041245268799,-440.16724791406693,-29.490661460376444,-57.714048356077846,8.034067154421367,-41.90916918800193,14.913851352182327,-43.72703510132955,-72.27153248041772,50.814067089460515,-30.308400370057416,-13.302916560701966,-28.970852930770043,65.02889791336085,96.18206127794323,87.84416783729418,1.6607435252386757,-101.48723221188004,44.20963067430627,94.92801693637392,-167.89129438570245,-12.726676899858596,-3.815482051159111,91.89566390399617,-87.81326247135134,-93.42231738713726,-81.71581410931331,17.576079668205082,-101.45311850669587,-11.019382168967532,14.353013155234983,24.28756607766398,-0.997676097292274,-5.05802665271716,62.25534492600548,-27.768502044635003,-38.13540630639115,38.103593653302966,2.46043919865922,66.69173031048803,-11.165587800799866,15.315356614568875,-10.253010681276043,-19.525291652897288,-12.298630441442057,-39.558921762534055,-15.364129487794527,17.932765723790762,-18.950738190663962,10.240255163339446,-29.60325799512769,-40.093880814978334,35.82791108068341,-12.2586148436461,14.681046182810583,-3.419892698925093,-3.8657712308609575,-12.984370727510967,46.451103245507106,-17.431549564726712,29.996121487826453
