start,duration,0,1,2,3,4,5,6,7,8,9,10,11,12,13,14,15,16,17,18,19,20,21,22,23,24,25,26,27,28,29,30,31,32,33,34,35,36,37,38,39,40,41,42,43,44,45,46,47,48,49,50,51,52,53,54,55,56,57,58,59,60,61,62,63,64,65,66,67,68,69,70,71,72,73,74,75,76,77,78,79,80,81,82,83,84,85,86,87,88,89,90,91,92,93,94,95,96,97,98,99
39.68605041503906,1.1016006469726562,-0.05251601095485653,-0.0729845235012106,0.005724378741662519,-0.028370748022492356,0.05667485915487231,-0.22106756882345335,-0.08250195517069488,0.0018417407731601276,0.23592047772818506,-0.132995634189983,0.0970287081306248,0.20355191094118347,-0.012056114280881422,-0.07534548381195688,0.006034669760350067,-0.02468764189401755,0.06569125536253714,-0.2046539393382942,-0.0717685619020439,0.024140421990455366,0.028457659557645246,0.08319825548910227,-0.06931769838865835,0.09891203222320946,0.015867879013021512,-0.1431831099826665,0.00863771996976466,0.19721500410866133,-0.12383605490927167,0.04972962530644783,0.072414125212375,0.03469191161162474,-0.0016941843412549146,-0.1791219491474704,0.04564073407166276,0.15763460060168127,-0.08481238119546082,0.013210703510773476,-0.07844693676263903,-0.17309750714753455,0.05850285222534156,0.17848291109076264,-0.2759000219508583,-0.18367174867364358,0.052066174442270075,0.09046847548252825,0.07466840719228367,0.0020165425929878494,0.19041283468720732,-0.36375646452270693,0.03844731837814427,0.452744758987228,-0.05107048410387874,0.08150384608753047,0.04942360853135244,-0.0024395460926602097,0.0994746873708728,0.01584229459898894,-0.09984035852218211,-0.03707421489889604,0.022581353902897984,-0.01978094811759796,-0.11745144908120184,-0.12883029945124835,-0.050555265896061956,-0.21820946648476428,-0.15504470721590602,0.18075544610890085,-0.27901853431023743,-0.22187221943874902,-0.12227573134259966,0.0015233158403378357,-0.09167755231462486,0.023383129370990238,0.2365109876265432,0.36450229219130564,0.15523431004944135,0.06896325207757607,-0.012395944351799507,0.05586139779102059,0.1000714764858204,0.08705659296808006,0.1958393549358999,-0.036593239313502376,-0.036012236012430504,-0.18373052326483771,0.22884161279751256,0.26960610529345075,-0.09707795870209633,0.05210044321173847,0.09622310320237334,0.07581237640121674,-0.004968791321569856,0.01927925368544532,-0.08400291846371742,0.017092560726893212,-0.028360151896940137,-0.21300941525599126,0.11119244505744617,-0.07381721807534355
40.78765106201172,1.081298828125,-0.0708848868405064,-0.1294731415049002,-0.1262998375270824,0.053440655415283006,-0.11733947564327414,-0.1626365597398293,0.0760497606505482,0.1296341255486506,-0.033208180910144824,-0.20154325808004175,0.1482555941294816,0.08713269117609124,0.1653549408870041,-0.11362085913857345,-0.023931223406286464,0.01885391431660211,0.0338040224626343,0.25472156728409245,0.13950827157841328,-0.07643250540758399,-0.08766802434924277,0.02589332955586837,-0.07160447016061629,-0.010700580821997943,-0.06122520958376591,0.36159034459500766,-0.04120169221165306,-0.03947060152572463,0.1271388334698036,-0.05732205567858907,0.10447274837710016,0.03206310791775099,0.1720682283709685,-0.0003624818768764304,0.10708702040240486,0.11920771647351315,0.2654322888616875,0.5361709280859386,-0.041384987843976206,-0.19098677532539238,-0.1727205981608353,-0.07837411875714864,0.346315537795201,0.09445260605828043,-0.12121656265347878,0.284515022767203,-0.10622979075793697,-0.21965809096834155,0.13907767366995327,0.07991132576010263,-0.2765464187737472,0.05905673549069491,0.03395092934618678,-0.05695967836942695,-0.1405894549949563,0.003243290557589833,0.12965174876745578,-0.06712629741298758,-0.05990929992777329,-0.0005340147172958609,0.10040098428746294,-0.06558316499429452,-0.0022223474916528638,-0.06822881136050213,-0.43089277202126025,-0.03486018855352006,-0.158886554278278,-0.055511066421845306,0.08288178144732748,0.20077426617624097,0.05438074613746966,-0.23095521815750203,-0.19369800442326618,-0.0597858418629802,0.07948479169527609,0.025146781355276145,-0.013749743884642292,-0.010028692537341044,-0.18274934873588622,0.0708338285096852,-0.04308338866887887,-0.07672015452888743,-0.06889683108726699,0.03918167247359091,0.04889570936886359,0.07720630857621603,0.13119406543424258,-0.08699440667701107,0.05631195002697536,-0.008673260517255175,-0.0783136194732873,0.1695969176661596,0.0794328344337662,0.07814491282268905,-0.17714031608653602,-0.040334513158159765,0.1467316065952241,0.12444417567170413,0.018644821849137252,0.1905581280790965
41.86894989013672,1.0913009643554688,0.05823956521980081,0.11604830894990124,0.0029732369095180605,-0.13377390535456857,0.19069949088884341,0.017299251043007013,-0.08416928900639009,-0.08426433309901518,-0.10973434355837902,0.04076816681752531,-0.22423629466345588,-0.029421560678722578,-0.003387680350673966,0.05776087794137086,-0.021782452549432722,0.0017997173676147062,0.014337463097204559,0.33461269559171314,-0.28021193833365804,-0.403438650447446,-0.052399472361854764,-0.11310111480983845,0.033554933413237384,-0.10427646956442567,-0.09146327358835156,-0.10342074993597053,-0.0029715143192102864,-0.12897131479303955,-0.14824232354121977,-0.0691696857991383,0.07994465894590505,0.25965188477087175,0.07025687576485858,0.11636765536232886,-0.11010886310619426,-0.11932569331945048,0.16471874598213515,0.4193550124567394,-0.16165062124802687,0.16635520510908583,-0.18734181339538675,0.16196128085466627,0.0821131219575026,-0.19267158147253496,-0.016427258980362437,-0.480379252089284,0.2201662778252569,0.44274943604834266,0.04741939531882833,-0.04424100585350741,0.08170131162054217,-0.011996086356233828,-0.25681101252454996,0.04915037280601512,-0.0077789718827021796,-0.013390707599358176,-0.10264454992230153,0.1180476208681668,-0.09586097995503759,0.13088328991245687,0.08631099852868448,0.00354285885410582,0.37035474462643153,-0.21144948326459592,-0.34644973421706865,0.31226539314832463,0.10188135585842062,-0.05866651916904089,0.15915851285474714,0.3038087471119894,0.12651262418937373,-0.16725195260539633,0.05870295689021164,-0.29393244582169425,-0.010206392286697234,0.013052001923363322,0.017172869481108972,-0.09650200163090958,-0.23543545657621462,-0.11109634317505541,0.10319315479375929,0.12529537460615672,-0.18686292424350726,-0.18576855597612804,-0.1436964938704454,0.11854850912135276,-0.03267488231161139,-0.06333398681224618,-0.11154464820370802,-0.04512922957214165,-0.02064665030816004,-0.046851358121854564,-0.1421201103056935,0.2148118945151725,0.15622331537943174,-0.012535609110868623,0.10880049103580887,-0.1402299311969524,-0.023857327717989867,-0.18587685883127072
42.96025085449219,1.0309982299804688,-0.1862347569797452,-0.10181485113206555,0.2234198384464262,0.2098823740210052,-0.2237274514324816,-0.022141986778722058,-0.00969444182984936,0.21146170427487856,0.2356115546999315,0.19044054323453224,0.16348045562718347,0.03255361430829324,0.10989586658629333,-0.19942400593235335,0.04863812335343088,0.06180638213606383,0.043184539452785636,-0.10383762226306961,0.03738797264457776,0.17721991255831762,-0.06175895651095855,0.04393566645743194,0.1803462679632038,-0.06267621993387502,-0.17861644166248355,-0.18830050260954834,-0.10765581976614141,-0.12235099795604433,-0.009203450189851529,0.027204766467060326,0.009830462487379678,-0.13146615193077474,-0.0597107649892645,0.2728611006868137,0.09070984018433847,-0.09570902655145049,-0.2666879560044334,-0.096852579784168,-0.12457949667287531,-0.24129501808798678,-0.1289445880318734,-0.05239849503883192,-0.039635497879338205,-0.0159425610934677,-0.062405757852040854,0.21480505738070263,0.24153878003436716,-0.136112939994974,0.2918446011606696,0.3258893315974704,0.187307290993835,0.06249791043421125,0.05184954678662125,-0.2336828896386487,0.10347994421746007,-0.22806856776322654,0.018436030270909225,0.22349848704658523,-0.1460055354032097,-0.04827203571817916,0.15867379359790376,-0.2486081720069207,-0.08010222980390269,0.03048827523797185,-0.1945711958069958,0.15742064263205585,0.33445512682200096,0.04746341321266745,0.24733893559031966,0.20878017042553756,-0.14123765162973634,0.22038618179518665,-0.39512091086964823,-0.051006628872266216,0.08729357271369058,-0.0028613184358926534,0.08216346325580841,-0.102772861421428,-0.09902309015830503,-0.029368091626313597,0.19844348366623932,0.4617113642729302,-0.003504535699373941,0.04344597126710875,0.07513264473309952,0.2831460825388395,0.3049671480552185,-0.17522216843386693,-0.0731880597232685,0.06632789083990374,0.18316213634172965,0.0748574462428962,-0.09261584395626538,-0.13533765754986207,0.028552640152537116,-0.0646630065492536,-0.15290923798185557,-0.011874638332897399,0.13151215179462333,0.12055558290707546
43.991249084472656,1.0913009643554688,0.28272493514649266,-0.007054148353920293,0.010432462776420764,-0.054954164932404834,0.08320679289300421,-0.05931407978419806,-0.1264390365025785,-0.011997839227084264,-0.0520152102746834,0.08959616101857454,-0.11557977570154503,-0.1595164721213776,-0.12614513848716397,-0.11863570956575234,-0.0016285161208035095,0.24713983557866043,-0.049343069119831044,-0.09746187981583262,0.27255768015223375,-0.015088623204118592,0.009791608699264136,-0.07334405223822109,-0.3019727953707084,-0.053656606418997,0.013554620732627448,-0.02921649557198193,0.05586850564297923,-0.09175101451394806,-0.04985625970483231,-0.13574726872859305,-0.02675512597508563,0.00655556539725365,-0.02975855927843326,0.0541351691589214,-0.11977561253675792,0.04085291543128718,-0.01811784612875412,-0.017371352828240934,-0.2579836518771811,0.1415346074321528,-0.016752916363583475,0.05955011482455823,0.08591788580737576,0.15590727571816704,-0.19668136559154387,0.0689888205441395,-0.05093167392904649,-0.14825106768601184,-0.17444055775427486,-0.2610345955362154,-0.13510157797586728,0.12035032682933144,0.06636600939515594,0.038090304905107335,0.07520974688986591,-0.044071247924304884,-0.19810634677547226,0.1574680114461985,-0.12603145956599585,-0.07356931140755173,0.0751934827573982,-0.1364266500732037,-0.0926904558242049,0.08985061433412769,0.19149872662668194,-0.1331178338772801,0.23664234844318008,0.03570621956291747,0.2412709899323292,-0.20150347949720812,-0.029543014038242117,-0.10935211721839878,-0.3330899276510706,-0.24024111677651674,-0.13947110383946537,0.12962540526926192,-0.13750740689357385,-0.04639681186632433,-0.0589029954453075,0.0975071778264692,0.31706563250062575,-0.32537778238249154,0.10966811550872413,-0.10790097198467986,0.04842149648872294,0.031923235169745975,-0.0886450628352307,0.0950163575083347,-0.0357119369290995,-0.06606945459705504,-0.02227050686774896,0.18336958298567518,-0.08727496036299465,-0.09986387470267594,0.0029834238837179667,-0.03282919055003631,0.010205287615701258,-0.04920974658884053,0.2624920604676625,0.03209302941633161
45.082550048828125,1.0708999633789062,0.18337771691888152,0.11711105438217846,0.010707549840061578,0.011470882074104544,-0.216802236746538,0.052647017304125604,-0.06454059736682594,0.028528201310523776,0.19869122123583752,-0.023648462104778327,0.09419307655507908,0.11618879848619769,0.22552891926240218,0.12467511095320338,0.1405465243357309,0.12319817558953347,-0.05483598932082631,0.11087235530491195,0.03539884433236917,0.20993152239038557,-0.18047202365388973,-0.1944582037331546,-0.2116826667579458,-0.1798330916448476,-0.10010962747761526,0.030258949510746674,-0.013392761690985706,-0.048277790882555204,-0.08455540041754413,-0.10098722537780738,-0.09274563204782835,0.04133618038454044,0.11113709174727669,-0.06337787280568115,0.07374858498163657,-0.15372009857395882,0.17666284166068555,-0.06426745031880582,0.020266097412196264,0.11561665454307396,-0.07630955606439788,0.05460974085040349,0.16577353265572983,-0.08478020482900082,0.12533770237155928,-0.4106263634015341,-0.15180816176456674,0.21923482582229425,-0.1256260719599429,-0.043711129739719974,0.005655443293050955,-0.07505147235120219,-0.07724319226741713,0.003037836911489969,-0.0146000662220471,0.05209742220517279,0.11494985894416242,-0.004283148775226814,-0.1025219752152448,0.03817876567092686,0.11194425706831264,-0.18780440058960587,0.034811458706048584,-0.1843572190186301,-0.330888245201833,-0.005653746119409131,-0.07375305271894601,-0.16241227550780477,0.15309576916577414,0.3574570479290086,0.371048735340175,-0.05016916863413563,-0.32763076836791627,0.22127433064764193,0.03036953439580077,-0.04863093220994862,-0.05505023191981203,-0.10530812504426681,0.19387559058493067,0.04935520942043978,0.2154720582189444,0.07674820612650843,0.19085230264600253,0.09929003178143943,0.0011361716040164116,0.1661975484347889,-0.1397139452862517,-0.1833631737309844,0.03776404359380474,-0.05588412994284958,-0.03159600026960666,-0.17800544672766627,-0.04482679055991563,0.04663205957886874,0.020330520532619457,0.004718618528087209,0.037233885707427215,0.16491696757855695,0.04047154114052001,-0.13880040048755574
46.15345001220703,1.0713996887207031,-0.000510407702161153,0.18673014220331255,0.0837397091627126,0.09611687772056486,0.07551341746166854,-0.06894468854001043,-0.16505085888388016,0.042435941756195125,0.14546753263907647,0.01614095376139535,0.12078381708373953,-0.19054841529096853,-0.01548288660334613,0.050887228302836644,-0.04920063010427858,0.03738699729030206,0.09588535126676115,0.35462859331960134,-0.052195542984153395,0.023032661947560665,-0.06502230089871167,0.16812421490644264,0.05898166217447531,-0.1045397298690453,-0.0019279809986569498,0.14131720408601778,0.015006017813975302,-0.138555562829503,-0.00892195130176409,0.09602144461513162,0.04087465803263597,0.13189707334174092,-0.045528426862579074,-0.24423987044126874,0.05154175562030213,0.19338357759713576,0.15336925490241324,0.08256785169191008,-0.6033592844359885,-0.25784007354042526,0.1679970160182695,-0.3165143801799157,-0.0960782060731128,0.17080861400598993,-0.05495923545600599,-0.19552804094050008,0.02860644203926596,0.04149968197920058,-0.26352951391955026,0.29847540616322366,0.00555143703407663,0.007684025056675148,0.573921521489381,0.33346200000566745,-0.18018505130459525,-0.002574343318850387,-0.029409535999007475,-0.041958113238856336,-0.0888006067691911,-0.062389837121344,0.054585713494663554,0.05609951951691173,-0.0723834758914969,-0.28105301430830254,0.19380306696988428,-0.0034069914282516822,-0.13117420796850154,0.04727388401309889,-0.10658883503358862,0.014348356468814515,-0.007254043928260349,0.11923826854126904,-0.03652756245740994,0.10868669332338102,-0.10254494393075693,-0.2067219741597872,0.03727036631998301,0.03076774979273316,-0.018304103175319136,0.23068953249171756,-0.10971337526130728,0.04381644143394136,-0.30623423661991206,-0.1283065144574441,0.4321634129753919,0.16521623521302928,-0.0821014616259082,-0.013938442373401659,-0.029134686558935193,0.03486399112317608,-0.15149166320098006,-0.06465175787713032,-0.05412190034539363,-0.04877100741577972,0.016765732701147958,0.07415489183188217,0.058156972669426196,0.10703550976057033,-0.13425274409797933,0.08330414822235367
47.224849700927734,1.1212997436523438,-0.049010984720239514,0.2181011412613944,0.027878796970614805,0.04966792838279395,-0.027184204953345538,-0.045295484772001696,0.14154893378595607,-0.0820525054166351,-0.139104977130133,0.1857827080190423,0.1958150820340482,0.0992859387326025,-0.08919598003933765,-0.009574798248951064,0.0785901176850433,-0.19663214881710406,-0.017429915240255167,0.054141343162084,0.08513060433241604,0.12132043297777813,-0.06158788611611075,0.06478628993424539,0.053164523536550726,0.009616457256367054,-0.14936546133521725,-0.05864873475580066,0.14997020314603546,-0.05551798119605679,0.15461084154408697,0.23868960341361908,-0.027743440142455774,0.05740834427302878,-0.13548122324360223,0.19965603774002094,-0.08050870267273533,0.049383070728774556,-0.022841924893614807,0.12137344828769082,-0.1147285662406446,0.3881606230216904,0.1106328363045771,0.04848595967937633,0.0009243822372717115,-0.029370856397973363,0.22335912346942616,-0.007898533854532042,0.15268184283058994,0.1756768269165166,0.25608677179403483,0.07416736639976045,0.021854476256292756,-0.2186908403692489,-0.09682743982019201,-0.1218405497380692,-0.08746645251054808,-0.10615170750743973,0.09743444654703266,0.18177266975283984,-0.35495879055967916,-0.044267791340144885,0.18308704795235545,0.020344338988856285,0.11017072082573975,0.09600200717864116,-0.4983169124396204,-0.3031436352951201,0.3723880818158662,-0.34829227868270857,0.11473281422153153,0.11311782583774428,-0.12416119205452618,0.27070783583493063,-0.008326053807411127,0.02716905141959279,0.10321128321144814,-0.012600488128443665,0.0023966978154348383,0.031201119173254535,0.03783514490852451,0.17524227802765946,0.012846468159689626,0.10766402705547944,0.058403698439289095,-0.1740826880628502,-0.17816213073550152,-0.03770743086584856,0.3936688250307437,0.04895759668106828,-0.022856521283294882,-0.0029171617646207293,-0.09770805677241694,-0.028779992770726837,-0.043754841128467274,0.06047315895048234,-0.08668815288688783,-0.08094402185287104,0.04391298486035615,-0.0714356642136466,0.042408955009381834,-0.14399367802958032
48.34614944458008,1.100799560546875,0.0001307101503509045,-0.01214635985111343,-0.04931663859701189,0.1464065486371321,0.025331470826152697,0.01271911653267977,-0.028225281526496435,-0.02225535683553527,0.01656062841570255,0.06626367239898093,0.07868887092713459,0.08131684961818618,-0.0628387678475367,-0.03308500698408348,0.12500862574161364,-0.17209795735965538,0.14615748248592106,-0.07540347605648956,0.11249905412120137,0.23080649211699586,0.39816735238795364,0.19139273169660287,-0.008298294965370115,-0.021695417514529552,0.08967104355513597,0.04520729392953807,-0.030363684241183995,-0.0035153033623757223,0.19623091981169977,0.07068197421119003,0.054891012986595836,-0.0348623388761864,0.015808631798697778,-0.15080009949118536,-0.11139367038238543,-0.11396675129325247,-0.036232042958653676,0.11835785069285149,0.15885056735448033,0.15231142992584643,-0.0011746204370167374,0.27225354827922527,-0.046187804005452825,-0.035695393780456275,0.3210888767694049,-0.14803247739242437,-0.4789604707154085,0.09612052297424203,-0.05010124542757496,-0.4130919479803122,-0.1761751976867116,-0.23284344109233057,0.30576835833094773,0.028191710027620772,0.15355893339561622,0.16677977325110657,-0.08794978166544355,-0.07893409147691732,0.001816672637142195,-0.015719183455055075,-0.025756133342126127,0.029853678676800385,0.14981726653737823,0.10867115700662201,0.04524184330563618,-0.26350091085371125,0.015770133974491257,0.2530669424870755,-0.005612719057454623,0.12167089224382541,0.44375718599847697,0.2303894699051072,-0.3356245461153561,0.030649770839285044,0.1713858401646943,0.29552586649135887,0.08393872005115807,-0.17950194898192495,0.031077035561175095,-0.08150747162753262,-0.016295421900928784,0.11412368267665063,0.000134150705357855,-0.11041964982588323,0.057049816696552014,0.10213413611056171,-0.02748137005506148,-0.02628171789514684,0.1413726115511751,-0.058473594819281396,-0.1738263608350879,0.10495753923710831,0.08421288428272067,-0.03973599970812528,-0.006934485690963804,-0.015567852819708435,0.09231720935391295,0.012361496936237773,0.08072363691125398,-0.009618255434884475
49.44694900512695,1.1114006042480469,0.11470240518550039,0.10836831328050567,0.10834239787049056,0.10139238799350253,-0.07819387966329197,0.04036240192022883,0.06599960920858877,-0.09429673336314005,-0.1385715899826933,0.054090963681777224,0.011070064687547176,-0.36962464455876476,-0.13685336905097595,-0.027400796885618927,0.07500003555554606,-0.059776090232714525,0.046826179050422204,-0.09301722046841465,0.24042147823892088,-0.09467938818355107,-0.2263098414302907,0.025171886216479283,-0.11901979232209016,-0.010163151041179957,0.14686330699003947,-0.13327848210435356,0.04182791168659525,-0.04735829187860516,-0.013500597512587417,0.05308171345784131,-0.0715865628774984,-0.16313584442313173,-0.17565345395450788,-0.07354819564033498,0.09457764954704855,0.10339654036016832,-0.021426177513964445,0.19754838483528653,0.11681091539136292,-0.1898896710172479,-0.32376593314307245,-0.16436149703875247,0.49013323589126917,-0.1672182615755887,0.12913547229810546,0.10983852209588074,-0.14019538481052557,0.10587967369355127,-0.27922401776363426,-0.295847808728534,-0.21336225059652977,0.0012298050207281558,-0.1350685683522239,-0.2942375597079979,-0.07706253653754179,0.03481566962897195,-0.04344704933644994,-0.07299893711227977,0.04817226324812509,0.04569179860384824,0.0077144155721396435,-0.0306508530635452,-0.15190998779117687,-0.026183226127656712,0.21963804703798578,0.0879925592620754,0.3687041736272361,-0.03033917329714475,-0.3285013656776567,-0.2656942198513093,-0.16237286924109293,-0.011673015210146912,-0.0411464223270859,-0.367762066729155,-0.19233889303806212,0.09678653215889235,0.0033655286453967486,-0.3915290534818937,0.039466885281472325,-0.18445073917819088,0.27493931724715975,0.2955520457075483,-0.08094014693960584,-0.24279042593108946,-0.01929690542848327,-0.021464853314263666,0.0850458075185035,0.005311052472534602,-0.04541268078230916,0.0989221113861174,-0.032505076530572954,-0.39049071912353095,0.1197490118219079,0.16317322459454053,-0.07837871168724116,0.02032690022794099,0.017952741102602813,-0.15972770758381027,-0.14206114910633227,0.11309653634896691
50.558349609375,1.1115989685058594,0.11658044760486846,-0.04507991065446171,0.09044462675608239,0.005486616444516666,0.07831178094526776,0.15245531859811687,0.09235406247564354,-0.06862331808247799,0.01729383845952981,-0.04734269977655188,0.13669736203672617,0.09667951931176445,0.0091742013771916,-0.34482831206242887,0.020963119160739965,-0.005710238311232188,-0.025078232414908586,-0.03489849615978126,0.07919749375166138,0.03557936722698103,-0.11957933614993199,0.04962648452260392,-0.03769540531980878,-0.00591755678588913,-0.08618129835248889,-0.18311097152398603,-0.023263647931079337,0.05637814566260807,0.12038128076828128,0.022752752726087788,-0.0622518955667799,-0.0351199599224443,-0.11674511957038196,-0.021086172737714473,-0.016408804963560814,0.059443667810286954,0.15380888411856775,0.28836435783385006,0.05644819676324878,-0.18497752934784245,0.047331735515499795,0.1990198255391254,0.007591884655103392,-0.10960612224601368,0.034074317216814726,0.18400802514622822,-0.10070387840650602,-0.1568079985783649,-0.05397081564457403,0.15494597772640822,0.11744962289357713,-0.016282346713633926,-0.012350639904331544,-0.16010125723558086,-0.030284017647699817,-0.04848746880546834,-0.010673120106633245,0.10816099204558989,0.034122335104725184,0.15439693873555924,0.029048839343647048,0.11936731395000423,-0.015326097281946132,-0.19337588146113185,-0.017630354292394262,0.14706305821293847,0.055390556433832866,-0.08927931012325757,0.1112369130868078,-0.10933592309861928,0.04865912250225663,0.07704914115173696,-0.11797117221868256,0.08802202437023461,0.16962283168270562,-0.11116449360151835,-0.2566873986415351,0.09640515882307439,-0.13899720824639047,-0.08526969433889905,-0.01700390099644869,-0.010020200448693305,0.06434617663993163,0.018375321583270696,0.14769055882950854,0.01245610660671795,0.007076789921663565,-0.04862025439857747,0.03040927591250931,-0.042009256902485304,-0.021756025083405624,0.2482470773649646,-0.035872049263036186,-0.016401939027810182,-0.05803075942076104,-0.060051398684473206,-0.0285615814245554,0.10220469121172227,-0.02666006033602142,-0.14075298687003107
51.66994857788086,1.0307998657226562,-0.12093950033021221,0.021279809911793422,-0.11687713195701999,-0.05303805135068996,-0.04818534385617334,0.0666564870742134,0.08143440477399308,0.1547006551281203,0.14299169344169155,0.022780361835254725,0.03512831640926552,-0.09600376647660644,-0.20941214163204136,0.17552447986946107,0.08931041008413289,0.0878732989427276,-0.07157184175036521,0.057014440973439155,0.11743587991082487,-0.1700884934543913,0.1570077112177323,0.14045549687649916,0.06020374998252766,0.1828814025645804,-0.13701784356417637,-0.06042659702207088,-0.10991538213643975,-0.014894243951130391,0.017022585253498645,-0.04567716379736513,-0.09063596085755671,-0.032643167157577466,-0.21561287276071706,-0.22502967902608403,-0.11409038208936229,0.061797768322929506,0.13415126267739086,0.13170326348052636,0.13448124685223636,0.0673290244815128,0.09320899478781147,-0.005393266918005381,0.17848366880292693,-0.041956342688006076,-0.11295288075761173,0.003771094204537556,-0.012158335928301588,0.0070550542117476245,-0.2896200378222404,0.14648441054992528,-0.054849265615061205,-0.08790056264634585,-0.016319816540303497,-0.326636309950407,0.34478498248778894,0.08990380458582672,-0.10900070262135905,0.014381268651601806,-0.12039661223313233,-0.013295528179742382,0.24366803020303823,0.023493810674171133,-0.20404030176606,0.05193658361189102,0.12955247557702448,-0.05990247505999444,-0.23851942084030817,0.19366063277784737,0.2865988481207443,-0.30469436452855475,0.3431458444688118,0.09130165645657644,-0.307819350147739,-0.03719056711298095,0.0018781562589806195,-0.08570717175203228,0.05902697803976441,0.08449764304641805,-0.2963141009367107,-0.09948942884918503,-0.09313967198230111,0.12176337465706485,-0.14774852333679395,0.2270410069974649,0.045195490570725666,-0.2123198982354429,-0.022890584243708073,0.17445613681342095,0.058512799328016216,-0.04892763692024594,0.15561567825649014,0.14008239577661546,0.017893302930292718,0.14143001866234678,-0.13381030415881867,-0.036981030427759014,-0.002246987153648055,-0.06915443312852318,-0.09480624383093694,0.12501611814507205
52.700748443603516,1.4914016723632812,0.13622951755274498,-0.03095639940208104,-0.13309663334839064,-0.02707412107768214,-0.005648699786795901,0.16399827415250812,0.11216486828326037,-0.06623554590066262,-0.28516386948824357,0.004374224232985446,-0.057623398151664965,0.006988749988210419,-0.014529056289316186,0.05972307632415739,-0.021144846731027324,-0.03939098071391051,0.3583864230981974,-0.027599509331495783,0.0009837649727645285,0.14403623950681227,0.0031675573533696405,-0.12119974215262475,0.059529485953025346,0.02969806977679421,0.0805308136980131,-0.015990292210008278,-0.007030708240843656,0.09616715653525922,-0.10326499243036656,0.029921277025672016,-0.1305251675778135,0.013229240536870647,-0.017470341199364733,0.132241784663164,0.47467519906631617,-0.060476918640733984,-0.14294882210785204,0.24116574467987217,0.09819966598492302,-0.06839619416069614,0.020231130107688476,-0.050507460521790726,-0.01569156755273078,-0.236279695326822,0.24073525286837313,0.09036570288663681,0.23449739889647023,-0.1317748067784875,-0.11079481662430228,-0.0012351021381014988,0.11132076230286161,-0.12919724169180985,-0.06055505284521598,-0.023760892818462984,0.14538913122305572,-0.08070891614410051,0.32866926191772416,0.21434933455288185,0.09963141897610568,0.042596883171588135,-0.12199898169515079,-0.061453416280163334,0.031236859259620938,-0.17326139703938445,-0.3118143421959075,0.1548968914879346,-0.20296853275048743,0.1059356013949308,-0.0589987692258718,-0.12629318302698317,-0.29166263855831703,-0.21961503614065422,-0.05159096367755633,0.08819976302957994,-0.33144066269756656,-0.45038097847694264,-0.13865854702372327,0.1762179199678135,0.08312414877993145,0.33170915502632264,0.34389654613017756,0.17952511772269178,-0.19282912427816706,-0.02364323472952214,0.07412118643803668,-0.186589762756423,-0.32756476371284227,-0.192964927000495,0.08172854852391619,-0.08891241739825181,-0.26599675449895593,0.1460412472147846,0.11813153750216569,-0.15378440673001312,-0.11313764297090045,-0.03051498076109614,-0.08372340718297408,-0.06002609171489869,0.019018497083976873,0.009660548580843253
57.60625076293945,1.1209983825683594,-0.050794415676876814,-0.0007170564814515858,0.048437625741557966,-0.003793592779450757,-0.08586690032372273,0.08702496932843928,-0.013504745077597751,-0.05659548764482463,-0.18037394766419312,-0.09988408986643446,0.13531069252857966,0.026115421547648184,-0.11076862961699835,-0.0784480223512042,0.07958528028953256,-0.04369060838430275,-0.07865715408141566,0.17333669181256345,0.046343583440733346,-0.011037132974231702,-0.09308643466342525,0.03880193751555361,0.14892212769843183,-0.1105456168976135,0.17590839073901635,0.12129922182533007,0.030448267901110534,0.05014263583691922,-0.1746596821611525,0.2115988949438026,0.23394477685861453,0.019098154520361454,0.15262057663679987,0.17088164895519925,0.13970882332754708,0.07960138642608515,-0.3757954257221572,-0.20243543050835633,0.2283897361295332,-0.1602563193855727,-0.014357950880211606,0.16091826911315993,0.22212246497738705,0.08216257011507717,0.01141936947027666,0.13394874130435272,0.2548873813322754,-0.11824534160478259,-0.3519732792262305,-0.03167693246893786,0.16981487365664025,-0.22815277767415848,-0.04701999991866223,-0.08433588358886006,-0.02134869327869136,-0.11244729941222789,-0.09053408486054625,0.1171660755858496,0.0910965950321298,-0.28182662744568654,0.036154114003375926,0.04947869429858648,0.16708198389392706,0.19408034764253454,0.10946735275228467,-0.09653446890942427,-0.36484587896133597,-0.040480003968948464,-0.02770467792574697,-0.09537506281770859,-0.2867763872880723,-0.214712830781424,-0.12636624216784753,-0.04430791928920335,-0.14938978266489922,0.14720982927679394,0.3056270998269568,-0.11901669018236982,-0.141638098579462,0.10980322049325178,0.08575862943843769,-0.07434764867252301,0.02564988114501938,-0.018438028764215207,-0.006155425116573269,0.17904699057206203,0.16593696099422298,-0.06624258637454873,0.09297197532179684,-0.1228521001791108,-0.11253227350244929,0.009324069211351049,-0.018442480532333584,0.1173780165279857,0.10472080989091859,0.07253177467608003,0.01785747520116704,-0.07743463434387846,0.039588863635780874,0.010545404932666876
58.72724914550781,1.1916999816894531,0.01804259645170769,0.0503903679560039,-0.01949645503175034,0.0901480492989902,-0.05081862928544805,-0.026636111435181468,-0.07872364028267105,-0.012643916354537911,-0.10997898946507202,-0.10070196802984835,0.08829240083775149,-0.08083085765374068,-0.03510038522221133,-0.06919962010912384,-0.1590602207461032,-0.24848934883075552,0.01614760093974006,0.14504747615167213,0.17080149013366666,-0.2191591222962226,-0.1978653582149723,0.03393592655654933,0.06552590420829066,0.006663485464812683,0.005809579059507977,-0.018003939107944147,0.1450072210912304,-0.008909482353535288,0.1807394339845384,-0.12976131386583142,-0.03721962631175249,-0.002335037538417674,-0.017231550214221583,-0.13235137828164065,-0.029808785345840874,0.0905591213236448,-0.17808279747074718,0.09560567941519552,-0.03174066843945354,-0.024702056139696376,0.059610522830103964,0.12080871807729604,-0.12553914085143988,0.07870717141734739,-0.08793777224076403,-0.05098490476165411,0.4687790705208285,-0.056937280842062385,-0.18897955281371925,-0.1151789646457638,-0.03671721356410641,-0.038980978472569795,-0.24368096355155278,-0.16499157285012744,0.29324254237841124,-0.07352978417587652,-0.2404636156368645,0.2595095786304759,0.2059919202617749,0.08437096555838504,0.37472756144280456,0.10224720152145528,0.013002352566993197,0.08181944097529192,0.07186176138548542,-0.060390129838371887,-0.14906698047538638,-0.3062504563601504,-0.15048590127668612,-0.20487726080785318,0.19738117064401162,-0.026010437244977452,0.24475591864675755,0.20720657362867317,-0.19882424453739456,-0.4775448853364493,-0.11325243322806948,0.11767370634735935,0.00988517783469685,-0.032178438541329034,-0.1668418176691545,0.18270770462874633,0.25761344661779995,-0.2522828255115444,-0.18247942692244176,0.06586034936670941,0.07618464024735633,0.003409565945019705,0.16217576928284427,-0.04634894334640915,0.02228500416744003,-0.08475376439723818,-0.15185249901070735,-0.06091147528681556,0.12298078074787588,0.11798747925252098,0.0629366731211374,-0.008093033757073109,-0.026408748018265295,0.0893051556532579
59.918949127197266,1.1511993408203125,0.09710127421421408,-0.020014388173895493,-0.14437386182869028,-0.06439930587557421,-0.11197621474711132,-0.15640764763215892,0.03533792554258587,0.046029728882314574,0.1341787133744022,0.2424518016878672,0.31071489525514423,-0.05819913715738764,-0.0023715311815182775,-0.10607851573291323,-0.0623408332628279,-0.016989156380133943,-0.13747317761404104,-0.10767927294671419,0.14050596235961865,0.020609465467400813,-0.01892878990798317,-0.08531803518247263,-0.10618739801232115,-0.12321940556407392,-0.016128702257051993,0.1719122905364775,0.07948693774389742,0.02357959743646615,-0.23680776087067687,0.07512146256870844,0.2154093946147324,0.04778523064755545,-0.04059024085293039,-0.12823060602137842,0.25721412489575424,0.007638319655905357,-0.0883163804253164,-0.06230430296508918,-0.22257303780946788,-0.16035208631797923,0.19271228584889294,0.09609981293600622,0.11742595270586631,0.2886924647648489,-0.04006534498825327,0.08045403466213157,0.03597423379354524,0.00023540170046305701,-0.03457156320487772,0.021384127526831383,-0.04002001746719269,-0.10706340411491755,0.056031331013743566,0.15474815078476706,0.251653936751919,-0.01273423694280128,-0.002816076930589413,-0.1518103216821415,-0.04173055715290334,-0.049548481966822,0.049212231698823924,0.02842942446271933,-0.26253478676959074,-0.059877670073074804,0.0447010619018449,0.03435517678530489,0.035866786798144056,0.13130301044166034,-0.006257349333589983,0.09051880193335717,0.20101098465667627,0.12693468440323424,0.0125172059129218,-0.10894638007001489,0.08197212400355096,0.043151881148248646,-0.022933834364303442,0.1473537436863171,0.1833666532973129,0.02914314138043135,0.1545875446715681,-0.009522235292496777,0.04986208355594048,-0.18445651597238746,-0.22643602532476656,-0.06985009070871254,0.03774522406216635,0.0713855852808794,-9.760072601871237e-05,0.08144983890161449,-0.04756708739257462,0.001699489392045085,-0.031375533018151894,-0.053362854025875595,0.14015546711865848,0.03765223083818263,-0.11620218348958034,-0.06881987437945757,0.009971320564948125,-0.02555506758512896
61.07014846801758,1.1513023376464844,-0.03874687533590061,0.062305733446672104,0.230787320980646,-0.12283797594714328,-0.003322587600835286,-0.0053819085992536,-0.08300473306301673,-0.0667799084286183,0.023175219493255503,-0.04439672256709004,0.08531382967840655,0.0817100813683032,0.10373129361788883,0.07322714617278761,0.12489167953965916,0.12908331052156607,0.09370039726324958,-0.09472579714545079,-0.03106559321804045,0.26857294041971336,-0.05634484378684496,-0.05163235955015612,-0.050144269721396705,0.10992240371140251,0.0004162882475164404,0.1878337250707114,-0.08687075172589256,-0.17458429640489276,-0.07763111248797751,-0.024347209804003015,-0.11122343455530136,0.007660718881451811,0.04161099330853714,0.08741481167966375,-0.32945458167152586,0.09029443928784164,0.07614142447284604,0.017131713014849795,-0.18505867122628566,0.0762977843282422,-0.0846584842402218,0.228618879962997,-0.23653302459272565,-0.24579828395710335,0.04130185710452839,0.19371894688471705,0.20757527194053116,-0.4684076319380712,-0.04397895945900881,-0.24496507110055415,-0.0603419313213866,-0.24069963470653968,0.047799883140752945,0.16533163510775525,-0.3214275322550784,-0.007610688611495756,-0.0065840207885747406,0.18165653651167746,0.03939448455036845,0.04348617984696457,0.11259618458767609,0.27524578364667507,0.14821497265759118,-0.0943621804557029,0.1624589646021775,0.12364057412608065,0.04557982996588272,-0.09815593712115096,-0.02363005104637525,0.08293167969213737,0.1677351706705154,-0.031724215513504225,-0.10467063869443022,-0.044286324808500976,0.058824224321289476,0.1375389582921233,0.049995882372078006,-0.36771487967009225,-0.006819013008982917,0.22257402319897185,0.16171122782015565,0.02210962115659031,0.09549767317385675,0.05026159686408537,0.07605228155917221,0.09183603946392233,-0.08725141779708578,0.07905531769902187,0.054954314248062346,-0.03654955497728238,0.09950578312364917,-0.016751356289691217,0.01558497996686549,-0.1211633098839871,-0.16985182031956064,0.0831316452792804,0.07734380635330294,-0.04494797861965538,0.06966006933919731,0.11961304478777002
62.22145080566406,1.1912002563476562,-0.024564757593634204,0.04924818093772599,-0.28965060457763536,-0.0005586196394294328,0.0420238304859691,0.12573464075065957,0.2630867932226608,-0.13110399341070145,-0.029400007840146222,0.04957815750163932,0.08330063922761101,-0.08342324738310009,-0.1232190771085368,0.09515776564248721,0.027899308648000998,0.011417107178072485,-0.10682057333493072,-0.06594781358424967,-0.009572050715591765,0.020574008468360726,0.12159741471989227,-0.14423341680191368,0.0016236813212165274,0.06501654063798533,-0.047577775833913705,0.07370141122162445,-0.05824218582889932,-0.14449814919847467,-0.002366083687269399,0.12551262824058387,-0.0072576954309092195,-0.11858513110686325,0.05309473540134205,0.0894766883864025,-0.038537223142716716,0.15473854241837556,0.40794796839490394,0.4752740209635217,0.2817568943851198,0.05990269058707602,0.055911396413050964,0.20849355501299,0.03121160989122293,0.07964211165509108,-0.07615806404857037,0.07659337447591957,-0.2557801290535292,0.08180148854079736,0.3337294079075917,0.30873751448332104,0.10532284346713439,-0.140731413118954,-0.02458397836780942,0.04754020865112216,0.17128177382233858,0.20348183112072785,0.06947891352670817,0.1570772266998341,0.048575910600072804,0.13369560185301524,0.02013629570487671,0.09955164147993217,0.0006060501445831755,-0.04401277326038516,-0.02505738369076413,0.2685121450684428,0.175102574628635,0.07514052186137338,-0.20617039445212207,-0.3212522587639061,0.07315948390601003,-0.005693653713091816,0.1498430883759693,-0.20500595414210065,0.09381369071576884,0.0004375405404655804,0.1628900185527313,0.11828631711797036,0.1417341881962342,0.07258346680653383,0.07485929673635475,-0.25681042977061047,0.050002221171665945,-0.001311310158184587,0.0402638416908398,-0.1650947271258394,0.02620704894274776,0.10804813373484243,-0.00367534545216845,-0.08133609442726723,0.16618285458937154,-0.09405462237085059,0.067650250912869,0.0178709341454205,0.048308749130960754,0.13788295520536595,0.10726880558259368,0.02145536802931399,0.14380898680297308,0.2464145575116222
63.41265106201172,1.2013015747070312,0.09929559751013173,0.12729027245731683,-0.21446289500349475,0.011673898125415024,0.12848278304300834,0.03942667821257865,0.039778072838351025,-0.20258333442307325,0.07206737030036191,0.11820721072676692,-0.04346980069929009,0.09477789179401042,0.1175416501647908,-0.05220564123580989,0.13244378122701778,0.1313409551672119,0.3774755256854346,-0.15589041954899302,-0.006955742616139599,0.08094291651090152,-0.13277694865799808,-0.015244138265677332,0.20823369525230281,0.03500255290011719,-0.1541366536068608,-0.11513957705506248,-0.08199051573259661,0.12904936832239441,-0.1828450912728829,0.13370129002879538,0.13585340248080005,0.03518057316034714,-0.018288596997099206,0.10999565894806193,0.11640658011089851,0.06106961166391411,-0.08887076117428826,-0.5240859700712945,-0.06470920519618417,-0.19101945485852379,-0.13170766199138406,-0.046562746523121076,-0.12649777834694723,-0.3137559773378359,0.08797579940421174,0.09879761448019991,0.04941963604361324,-0.04746173324554069,-0.057949394828451836,0.2846020376625385,0.028150426189026648,-0.06127900444191561,-0.1733014310499635,0.061180571066568705,0.21039728732103732,-0.1387045056836277,-0.02868722133928095,-0.08403710138371569,0.04755775850141557,0.0377334094537312,-0.04370822469844732,0.016125167924819314,0.09727653627972233,-0.006062205469288873,-0.07556354898205433,-0.08777889406292008,0.0016393730009746088,-0.14078022588017922,0.0923112719161735,0.27004838234472256,0.0956967218778599,0.3947284331433341,0.10604007247567164,0.020598174644495232,-0.034599145422634384,-0.010072076589833888,-0.16247871801561087,-0.02283436406878596,-0.00037507091484605994,-0.09555847612923889,-0.1660015818821366,-0.1524569569230999,-0.09546544159153411,0.016497596629478764,0.18011577942644053,0.05946050035688278,0.015558016456528826,-0.03207148398270654,0.0649258020477726,-0.05861050493315208,0.10931501460958735,0.02619412520609991,0.13308170550409673,-0.02153695192333006,0.11509092013737528,-0.004952010724436856,0.12595931795883045,-0.12153860101926085,-0.08008772656879935,0.0982286420223604
64.61395263671875,1.1309967041015625,-0.05028581360129836,0.17569485814191166,0.0077181895406043255,-0.05895702022901357,0.1560115002314884,-0.18806328212986298,-0.14920810936100293,0.03567237944665411,0.2547857763563028,0.20440739729149832,-0.09743161726422282,-0.0948902804576809,0.08257647485271113,-0.02054259263001218,0.10296495679342349,0.3195956729508063,-0.04262409879977312,-0.16594578692260858,-0.044121465887252555,0.14423568574572893,0.2602291879686198,0.055104746244882596,0.08230115169643647,-0.11767911034424368,-0.012105304863396837,-0.15904476845510865,-0.03705070124527784,-0.04179197190365824,-0.030674145253806007,-0.003164652801843976,0.17318626880332869,-0.026762240512693894,0.05105659729002359,0.21944687280075706,0.037649663866310405,-0.01897199720863995,0.12704601705765223,0.09168442294822483,0.3200301107413434,-0.1585458103425883,-0.2101000001246751,-0.049812201880510956,0.22068961054914063,-0.19817512256798042,-0.059309941192424456,0.10268184945668747,-0.03097653289332783,0.11083250655046312,0.10379128796782759,0.16496875390709317,0.09396034825273525,-0.2535616874794908,-0.15707550596791175,0.13129547119296445,0.0367124166266828,-0.1257283766222986,0.004466671793238362,-0.020969950534638782,-0.0899666809081325,0.04264572097178135,0.12671039236966336,-0.03165187907316086,-0.004050526469030535,-0.13726605724792318,-0.035367860120601995,0.05497361311281474,-0.11657935374829646,-0.06242129633648451,-0.04655710849768518,-0.145846926879924,0.3127182664948282,-0.011728241063395123,-0.0008017451237983045,-0.029940486680663837,-0.04074749419643403,0.07784152265898187,0.0018112677870519775,-0.027429194256092606,0.10273650618641876,0.08313545145834841,-0.11436506242671303,0.07176101888018677,0.12797680121895552,0.16080008035261834,-0.012290149980279691,0.15520605815063562,0.1138811435061462,0.004953916993514228,-0.04504140976191709,-0.20004334866815313,-0.11909354138357783,-0.12890656373716955,0.021717735229874843,0.1046744260980199,0.044303547244647606,0.043592644862126224,-0.06939146254425675,0.17273113690183695,-0.08176345997607963,-0.034842662324753304
65.74494934082031,1.1811981201171875,-0.012216262221602658,0.0034687926599137747,0.03669620436520457,-0.023659328656337374,-0.03239656671371963,-0.11196884713337996,-0.07085681843723562,-0.1537712693809813,-0.00506509327018133,0.23230363229186554,0.032358938380035236,0.12479940296813283,0.0006604778496197838,-0.04734359574154304,0.18682509712441192,0.10559986976871252,-0.00027838135864919136,-0.02332940069445698,-0.13914916571498598,0.02227609272906004,-0.005118870465847132,-0.004611802704509477,-0.1896131714198278,-0.0175653253255313,0.06756753459244313,0.012764337426445982,0.055379435250812604,-0.09433359029740516,0.09434978315880456,-0.1725206165052194,0.04765802947993217,0.1486747977115823,0.0794378456279061,0.008379031601375167,0.272349624040088,0.2040126025317721,-0.09470526031473352,-0.050817185585747715,0.03425423994493721,-0.1614476973809071,0.029346697710981744,-0.11029438846815086,-0.036116045214577994,0.15622716128689124,0.003314711631550782,-0.2614361209046124,0.22601851086382616,0.04432283601222364,-0.10080111264625152,-0.1049715619109069,-0.10075087437871294,0.025774420538385842,-0.020912787765111813,-0.23488074956907573,-0.1119202785851923,0.016607693762932592,-0.14781212173378075,0.0333674800718759,-0.19501619791494584,0.11191691516744166,-0.045633085691938205,-0.07036141941286607,0.14778246053021066,-0.22724638755083915,-0.3565950340009611,-0.025910156301162335,-0.06889374146691492,0.107313351817147,0.018717990831755654,0.019908432774663753,-0.17418462338569987,0.010730911920635314,0.13093547057626306,-0.004349447619843333,-0.2658594166484683,-0.05931527755405118,-0.061893464414214824,-0.06925838981772997,-0.2502025081445235,0.017748938104489437,-0.03511099919573848,-0.03321541755316781,0.08040503631864009,0.18127997215646652,0.03478190042273595,0.09251872541732328,-0.22326808936437667,-0.009619854610916828,-0.06948449657669024,0.16103500312918942,-0.05328228593161514,0.01812218863031882,0.08465031232693446,0.05590257023767456,-0.0356729318210116,0.050712845547478305,-0.01685591691604019,0.018291186130579284,0.05716344950863213,0.024495064679990942
66.9261474609375,1.2320022583007812,0.16773961169486737,-0.013901576909109828,-0.045008334759013356,-0.006421647775500611,-0.009199361811149716,-0.029215612057376213,-0.26085675171074507,0.01637758727059073,-0.02799578002065974,-0.1676772426658421,-0.02709403560298903,0.00301348892888326,0.1186111391544011,-0.07256152652346376,0.09078656338597407,0.11974410279519043,0.11754490770125992,0.08493964839987907,-0.06626181096926313,0.12927818517768686,-0.013250413583867802,0.06812440547132302,0.08669776229436398,-0.02537929343587278,0.19291884919573074,0.17746468715732014,-0.022423078947145302,0.05174999015152296,0.19393234899332484,0.06461967067035741,-0.0733237740158715,-0.011977411495912067,0.3204617945652795,0.13687309248827956,0.14306849827604945,0.22367271958837795,-0.3334084502849213,-0.2481278460090001,0.02321171006846802,0.19372300486824987,0.3603871522104417,0.2249553866114722,-0.02015600991661143,0.16070739016301233,-0.3538902563257425,0.11598205156272673,-0.10950169972723012,-0.22378775342095839,-0.09099287887776711,0.02539321672386885,0.12746306292229126,0.035568368394962274,-0.2532564139136188,-0.16400154881603513,-0.07722345381831211,0.006575122180238008,-0.0673248143053766,-0.0527291613204959,-0.07155873188530584,0.12115803097490625,0.09784177641455462,-0.05214056363628931,-0.11109253511396817,-0.03493422091728899,0.017079776294599183,-0.15511475998841304,0.009150810722778811,-0.13327764093627006,0.09785275167977,0.22380248981896977,-0.14122051722980172,-0.22493477950889165,-0.3286327183445084,0.0013756428733903345,-0.08534235876621205,0.0766113884670951,-0.02036084664510284,0.0729400996627574,0.048738740084891936,-0.020187958924436224,-0.15386282106601296,-0.09577408772414864,-0.05417749692226851,-0.030700566714357794,0.027814954894685925,-0.002880354085511894,-0.03924084529495983,-0.21143436158728796,-0.041491196839197705,0.09202997910843252,0.028928470173608042,0.17754931654519632,-0.13913712503944026,-0.0853611250174938,0.07691740202233743,0.07199163301880576,-0.011760348500461305,0.004566773030757749,0.13768552339773882,0.056044752493199596
68.15814971923828,1.17120361328125,0.044490961519252914,-0.13002963432597797,0.06365574036270993,0.06321939084251428,0.22980996819126698,0.18927731828863023,0.05417083087785159,-0.030442148519502325,-0.9243370845920476,-0.1775616609046157,0.1507703762824706,0.08268634369438298,-0.037943267444448085,-0.09750281956200332,-0.006849161992646267,-0.03800958734260875,0.030758270737722887,0.053633008432393915,0.08260822808044638,-0.007040001684735959,0.03454807611518519,-0.035419937766316904,-0.04085256485366984,0.23244428014297952,0.012846257778449608,0.04924776950402232,0.07741837683639098,-0.043848086986893034,-0.09040247523412204,-0.056452820266922055,-0.005134770879615405,-0.026139510340190117,-0.018934463864517994,0.08047873342097887,-0.14975583796048186,-0.025665999835374667,0.0756328502809423,0.025669746625255424,-0.12227902481213156,0.12095903019682,0.1170071284720014,-0.07317334553041076,0.10546351431017612,0.2360561334222457,0.045384650190370926,0.015522166391218475,0.11405647439860113,0.35019971672543915,-0.07327692201824747,-0.08938366645304589,-0.04139929348002202,0.0772591610261022,-0.16097206159494318,-0.015296313356426922,0.05793981631501051,0.15385450489520888,0.19530048349565937,0.13595335100956568,-0.17681280788972134,0.012824583417958058,-0.02439661388309547,0.009595379222200495,-0.08765926876476064,0.07832962608017473,0.07149668875469312,0.024113269782554562,0.049036225166886035,0.02373915996901737,-0.007132217246066164,0.0813634220122858,-0.14634607121947918,-0.1295396017522014,-0.009111829335613183,-0.09607535598998929,0.00019251179695602139,-0.0193737482113659,-0.008038494577254737,-0.09534918607182681,0.0009311865379361371,0.036323486781883164,-0.002400420811058915,-0.026093946809510243,-0.07563805139376242,-0.06878437504138465,-0.13668392153914383,-0.014979677857352179,0.0452485512064586,0.02328608567003979,-0.001331279529376879,0.10758458493043475,-0.005741671967930299,-0.1329842551595162,0.008654173414751894,-0.035611042028238664,0.060825311699481674,0.14413554598627898,0.13738698245290776,-0.022499230339972438,-0.030188183266960527,0.10955537073141478
69.32935333251953,1.2710952758789062,0.2505520531266326,0.07991307405085302,0.10461141109814022,0.05662117361955353,0.048698592500732406,0.08771702780540773,0.062428179312924194,0.05270395439504106,-0.08517205484080105,-0.06446990281916304,0.044065780213700195,0.02757847180001738,0.04299330859371598,0.012063714232564778,-0.095305871328061,0.08091034698798416,0.07564830546919388,0.028295959079552922,0.01873078306951588,-0.07054137014027648,-0.0013419480061350776,0.01609972332541311,0.03370026914792754,0.12673415333136323,-0.13028376840517258,0.06286629424472889,-0.0807686866710711,0.044696047270324155,-0.15000375294803936,-0.025744554499305076,-0.08006955482967393,0.00375535457074401,0.0012657393179490509,0.06350877198034019,0.022951469126846587,-0.176658809480587,0.008274175809223747,0.0013719023999682264,-0.10939734053551234,-0.08849810986233766,0.13630102187269358,-0.17498103155053849,0.23562339310400146,0.09813983709710968,0.056591086683158605,-0.2752827752843887,-0.06866504953239963,-0.08938990418835617,0.031117322020879995,-0.00836746607030735,0.2706938325875665,-0.16716467383564282,-0.07362079423081523,-0.1783842113087121,-0.030106024114592542,0.058442736411741115,-0.11782195893600271,0.13584498469511158,-0.06991563354323291,0.09459771633609204,-0.03417909519791777,0.02691011317376523,-0.06420617944534597,-0.16746399922849092,-0.016034445489653812,0.011474035017134876,0.18271043606983395,-0.06091519445159317,0.024118007426216344,0.10718311748702752,-0.18300228128155532,-0.06206423739419578,0.008745303789405908,0.18328217800609314,0.006543949496257629,-0.06746146046306205,0.013861723359273773,0.222754454545293,0.23923941546441763,-0.04261748914219153,0.03969082128556501,0.08935382589610578,0.10739609644856929,0.0006197204402577979,-0.17325075017301408,-0.22414781858442,-0.07292076159047661,0.05298174975970469,-0.014570453050626127,0.0019391740876149976,0.022863564227912744,-0.010029047515695881,0.015743799654143617,0.12048051369890614,-0.09091296503319594,-0.013098777265870803,0.042894749818584654,0.07107604666273006,0.00013523888278012264,0.0016539293101463862
70.60044860839844,1.1613006591796875,0.15010649721317132,-0.019651005586850557,-0.17701801458085603,-0.051958364132573875,0.11781071099983635,-0.02655204884003937,-0.06450555636603106,-0.10207082919411126,0.08192895146200706,0.040985565670094246,0.21819066500829334,-0.048059702811617956,-0.04457092458496982,0.12033749548758896,-0.012723549027228312,0.1567352001227365,0.03412701861195682,0.11857153260395432,0.15501922075937166,0.0014614550146768565,0.2697230692221563,0.026333658809117602,-0.10916148355985765,0.07329696065716428,0.010151348108191724,-0.034402353447291166,-0.039232343211057716,-0.23571643572545775,-0.053471753839913594,0.15525652101494622,0.22182593294564143,0.06771526518493248,0.11666096392802139,-0.021393562018203263,-0.05441193961889472,-0.039872118228785336,0.12386520509205548,0.10582600186878452,0.028375074272678394,-0.03853787653805099,-0.22684323715966032,-0.2533829415403534,0.05929260110224256,-0.20644603860810945,-0.10264733177126299,-0.024448873360487067,0.2541013828904534,-0.025960311241529317,0.23005540277171582,-0.07392935662055614,0.24961662204221796,0.24953319457864706,0.03907960067633015,-0.32583792286052765,0.05982349290037183,-0.14606729557083345,-0.027091461239470722,0.003522374282343657,0.056872431216860295,0.0037879798826798506,-0.1849888092987675,0.0052696154266641225,-0.0009335639297772813,0.013017334452691043,-0.0556584244992336,0.07035454973372564,-0.15200656815807242,0.09903163844409808,0.12065487499904899,0.060493056348457454,-0.015837411281835884,-0.014385837336350718,0.015608294185204943,-0.013572194695851185,-0.2255402428251613,-0.19467635466865643,0.20829105671727122,0.1239182145797072,0.07491687570440164,-0.3358968139097212,-0.01946745585343541,0.288146510246379,0.21940245223104787,0.09678256564552623,0.18527302641258864,0.002127813200504594,0.0022252025593221657,0.051391801220509764,-0.03244503635856979,-0.007691114387752282,0.09541745807885176,-0.06636725880102248,0.04579741066849437,0.059405356328210375,-0.12091447082324024,-0.004557381902095196,0.008007690326026166,-0.0008723217496970082,0.011139841902720032,0.1433854307474086
71.76174926757812,1.2415008544921875,0.13193867566270648,-0.017725789290865344,-0.0398313139731738,0.04534887988811816,-0.00384934302212444,-0.023902304019435515,0.013068343304839261,-0.16445632509674554,0.06291711681298125,-0.11884219139889025,-0.10227812023540316,-0.005810798098767861,-0.07531402847830558,0.029652566902178844,0.05014434253104997,0.005851572608303272,0.036582148349822936,0.05433872811559469,-0.15976460423004654,-0.0554374044147696,0.11064175597102063,-0.025457732427956497,-0.16792848146734005,0.11956328313279457,0.003760266743086516,0.1823889178505805,0.07857760182183932,-0.1462843056713639,-0.13472663868734058,0.12459984361428011,0.050915086269938306,-0.04277510772739351,-0.030944181195638396,-0.15022539127181422,0.33538544271610327,0.12192902978301043,0.05524114943024243,0.012977562957568524,-0.23551724522995984,-0.12114830316518434,0.03922875278524525,0.034143604919826084,0.05334776114916943,0.06647616999514828,-0.1069116974053636,-0.020072267914249736,0.01675003085133178,0.21686533427261032,0.012903546654793013,-0.11804777545939663,0.4928120607347621,0.45423826691917524,0.019697037944752388,-0.23365439077590713,0.027309397212155074,0.15501233575035692,-0.12006738477208748,0.021471978729623652,-0.0644045787976504,0.011074996120624861,-0.10930100904168183,-0.13722968193242202,0.14838211078448926,-0.06855456623457819,-0.06432285204737437,-0.13945324630346823,0.029707472638520936,-0.22747261392648122,0.1285809048987771,-0.12341216355014772,-0.12385185706635465,-0.15102008995975535,-0.2069426427194547,-0.11825196562434251,-0.11436158328502001,-0.17323838308213593,0.015469102733845858,0.05453545742410201,0.10603784053556352,-0.005704845582043377,-0.10594538644587859,0.08391388124157276,0.03752724028586275,0.36621041085528044,0.08071140740962453,0.15332203961570204,0.0962073167892764,-0.07172231783155299,-0.057059162998098135,-0.05124835271616916,-0.21119370821530564,-0.12129463142610356,-0.02575948917056147,0.060064499838284324,-0.11082637322602365,-0.0840804564742555,-0.040570468204659836,0.11709779082629755,0.11762942441257063,-0.03993816466618824
73.00325012207031,1.2415008544921875,-0.03735377549785611,0.0827472202973062,-0.0038620514642483603,-0.04757439374445573,-0.004300053261952996,-0.051809480941870295,-0.061405882607074795,-0.01920300696107593,0.1118139738950753,-0.02108682519808013,0.0367915081268879,-0.15133275816766778,-0.05747994934593953,-0.1586289217128684,0.06948618107876035,0.004626444866049431,0.16833172964401452,-0.0272874791650869,-0.061224478619278044,0.04966412733478121,0.05213961236768494,0.09903957564160057,-0.0903746216279018,-0.03192022822543451,0.2676651649690218,-0.26619936076605044,0.01309058623871292,0.10290134501133963,0.09318151763981361,0.17163828166896208,0.12293004981814602,0.08483551249728705,-0.07880094285226119,0.10741195294273566,-0.013670121372197747,0.28384300538497315,-0.14610422731150058,0.33428051266302955,0.02006405802430669,-0.2779879337447652,-0.18168846945707126,0.015922505873737385,-0.1367147395887006,-0.24344634396284198,-0.20916864244468147,-0.4370556118819061,0.02884656104201898,-0.34006805111487703,0.027191039660471927,0.1732100382088358,0.06264776482422127,0.09071492780823594,-0.05164635069533581,-0.19765712690404624,-0.18296952195205957,-0.11311477011578076,-0.07119007108330025,-0.051274379664813435,-0.1814345413038907,-0.08145660556251141,0.08446782239624244,0.011956689829634774,-0.08248456349125877,0.045359279954860304,-0.08597237519996989,-0.13180079774223896,-0.04733412743003293,-0.051894011471453186,0.07923197726862417,0.3100040064515901,-0.05160464566228383,-0.08615893330996927,-0.1837237313156737,0.04013278054626371,-0.0960445242595871,0.05003151883714977,-0.030952740875198184,0.11634369036969626,0.21494831518015425,0.04685413246223978,0.07022006968236963,0.011978308943529747,-0.031898163617668424,-0.2589989129572887,-0.10782707661572222,-0.07659013051685902,-0.03140677377333144,-0.05501880699610092,-0.04056363850729901,-0.036232371987451,0.08893118907662707,0.17350680535504157,0.08692032091663963,0.17507188052205833,-0.0009841552988407581,-0.12197443211324353,-0.10497081019441343,-0.05943868569198722,-0.1721609521556831,-0.0073006055837915446
74.2447509765625,1.241302490234375,0.0063699382030697055,0.1304810863461527,-0.04368056793453002,-0.020565709209580826,-0.1289435608474816,0.19238887152372322,-0.11707629735325242,-0.3121444332530335,-0.03780947546502755,0.031295315338778794,0.016592861522155323,-0.010148948887012227,0.01757805779105756,-0.052006459529516796,-0.06829398788856979,-0.0557218894475222,0.10209927247341835,-0.2867841440202335,-0.24642748367661255,-0.22494442491691266,-0.016953758315578132,-0.21597955266833127,-0.09937663953080463,0.033046220734136905,0.11630589718763576,0.205766557119716,0.22739646959934895,0.10151244620950489,0.060547306676540416,0.008225949200848152,0.03165537727419207,0.02847237288563284,-0.01659056283174487,-0.050182170568919736,0.06893924932940826,-0.029320934390425858,0.11347003711974508,-0.048851187858502954,-0.02632818771448265,0.12308924180678325,0.18083012287591854,0.12316828497074127,-0.15120722222528626,0.11792575164564456,0.1095685966738515,0.0036699513109980384,0.11298553283593323,0.08641395033426418,0.007690877938952912,0.11453843604808835,0.11195214664817169,0.23989349075007155,-0.3389518495638775,-0.22817101949861038,-0.01857796886021444,0.171848127789483,-0.07209141668213272,-0.1566398259333091,0.03882449842696987,0.1862846714838029,0.07978597547637546,0.23504574324449637,-0.08108158913162154,-0.22180494391557656,-0.117527182542841,0.008292055300352288,0.05167536714313427,-0.19945383922072188,0.010314278793988664,-0.11225882292190252,0.058240305194355385,-0.09268122736296729,-0.14720493683678473,-0.3275783491559579,0.0646266218806689,0.13634106900226495,-0.2671831829778918,-0.0287395650504349,-0.009463106944527898,0.0721835981124906,-0.4190312608566496,-0.28364584449371183,0.03684131058973944,0.09327494498964889,0.07592377680818818,-0.062127880332364105,0.1782753088055357,-0.11631859669675955,0.11207562852173816,-0.007032852076616296,0.032597038927670685,0.13220987405579163,0.1149741056866046,-0.08359221862730472,0.08757542752755752,-0.11279143889042982,0.03789997703181931,-0.02631312208478212,-0.13088718272982178,-0.10493197551209657
75.48605346679688,1.231292724609375,-0.11000349451762105,-0.1783174780753756,-0.006705570785984579,-0.13111367926216386,0.005259239953871551,-0.08445250378236395,-0.06238748859013538,-0.30963592250771027,0.06664966612111771,-0.039564564943596225,-0.06964333565283515,-0.050597566974561546,-0.026410482510192925,0.06396384679801194,-0.09860089493732226,-0.045147752462524,-0.027136594589202614,-0.1273232995125696,0.08009227120460238,-0.06131140993472999,-0.06839094486792834,-0.033576941253021624,-0.09482761015912347,-0.06956001261295901,0.01390104962164408,-0.03845664693184255,0.09505644829885884,0.10023552212825246,-0.029238511504707475,0.016631070755854384,-0.06895513342420528,0.05697564802912648,-0.07281445772091921,-0.03363697128851796,0.024204041191709123,-0.1372237972070897,-0.1880033361932743,0.05395254683851324,0.1492601294041934,0.030870795671315523,0.0001521602355212294,0.10451848922772924,0.16717880872631694,-0.007423921162878772,0.07709820386341618,0.09863085783334981,-0.14892744756569254,0.06382512194400614,-0.1345599387777336,-0.04059992494007794,-0.042778761870230185,-0.31396005689683343,0.06168815610313939,0.2261255135758305,0.22186665897455343,0.31158253249375273,-0.2958414085000907,0.039771480989082675,0.12022429564377916,-0.015814802052826017,0.26513825429311966,-0.11081743295450282,-0.2804594235241964,-0.1742648001027243,-0.019443687949321577,0.0004956443780392839,-0.06480839647189617,0.006056704071219544,-0.1851640152715403,-0.07758077106411107,-0.0344882840451752,0.03370544842050756,0.1827794649223198,0.048055234127085684,-0.15111480012704748,0.07847021239728594,0.11444572691666409,-0.17864498724845326,-0.020675815507014056,0.1030863493051963,-0.016564148430004894,-0.033169125672065786,0.37205150123108144,-0.20031134851388788,0.0983049687295419,0.044233748896401484,-0.1047157933394455,0.02041758590429016,0.18539772797270349,0.05598278059329626,0.2156499296808081,0.04126239382980988,0.07226802740365032,-0.058232435301272006,-0.10808844449939456,-0.024294457261536447,0.032721307247796164,-0.008019859382155804,-0.04469544346543955,-0.11275386696312298
80.63165283203125,1.2314987182617188,0.002055526237547827,0.12622314043303368,0.162746096884442,0.02881967411188746,-0.03279751608602081,-0.018314383127720858,-0.15917773559195247,-0.09823658658327938,0.10152314147198065,0.10113196358277185,0.19436915948118763,0.15304721302860574,0.11268396881669203,-0.18976935517046017,0.04164498628929842,0.04995473594471963,-0.1203034578692485,0.03269973934740718,0.0903477992255938,0.010011932081065503,0.34154855047753585,-0.16227286480997669,-0.14034148786810166,-0.12993708567976042,0.08378759535511046,0.08651359598764526,-0.05042245638377072,-0.012921969215389906,-0.0036669701151514807,0.1185218009425969,-0.16544918948668838,0.2434877495277912,0.09960120345608094,-0.02884985977337446,0.08951040730204496,-0.058292880363929274,-0.1892665552510769,-0.2686459704710221,0.038799369978324685,-0.3439650449845397,-0.24716337044929115,0.21920096571791386,0.12071637128329096,0.11593386997762105,-0.2141393519915502,0.14432794657152803,0.2687629488158464,-0.01880680448859616,0.004265751290249615,0.37070181092486965,0.107455430717147,-0.0006550482182603188,-0.07150785326217925,0.013071646729263017,-0.11657418675766662,-0.19265188495090607,0.055528676528329046,0.15801624560165609,-0.13261738276828286,0.21825576096029597,0.0009561450425047361,-0.024202497184802177,0.07283676748880415,0.05621972766215929,0.018534864910047237,0.08281631946712115,0.12321221529228958,0.08148868554547195,-0.05017367631377788,-0.04634558681074823,0.15769827644299061,0.08554806312223434,0.1994516223955655,0.001961769949757081,-0.2164299479673445,0.05129383322684103,0.05630344990845607,0.146794138950621,-0.17821735322184384,-0.234993556444571,0.14665114005165247,0.17837754211701265,0.1152196292261886,-0.1438076061076759,0.05273148485886389,-0.012156132931516083,-0.02528361560536514,0.0441682170638408,-0.04637081379972416,-0.020030585721067844,-0.038096347331187004,-0.0906036400644601,-0.021809678152446825,-0.01856521207305105,0.03755405853521056,-0.0072910852373060595,-0.10934635939553797,0.016298284117200246,0.0015882383469721095,0.09526619691523122
81.86315155029297,1.2510986328125,-0.04713529047450864,0.03673118396751559,-0.11059166723823076,-0.125512777238581,-0.0006352022460560268,-0.028190578963978488,0.22322348979019263,0.8059298990574089,0.17042720064006275,0.06607041733345612,-0.12550963440095592,0.06959184501750632,0.033134436647158046,-0.05165639142514296,-0.14468625564438986,-0.07120531786061456,-0.07860794839836552,0.16111691288765018,0.11418296495745624,0.21689334884225925,-0.1657240005182616,0.06064903263908326,0.08272239661781593,0.13051647924155818,-0.033964833237078655,-0.04735672873517901,-0.06338915830123029,0.06440892611300651,-0.012460494619059528,0.034506245581134604,-0.152176174429098,0.12714860944173945,0.12721454515389835,-0.10276700492381634,-0.0695226363002393,-0.13806746933564254,-0.07587079264942315,-0.012649143840612553,0.15998542122362705,0.3126468366000702,-0.03918265338653798,0.3425389069141003,0.020318830305468515,-0.040217265759639,0.03002080717656167,-0.21321995986421094,-0.03594634138824355,0.07591802209720137,0.02472446938973255,-0.1435300218577137,0.07787957519106994,-0.045317034145481126,0.013423356342381204,-0.028073358071394494,0.12506506904392622,-0.02254076531107433,-0.0908026028387639,0.04444206206985617,-0.06350765322986165,0.1347511767297748,0.017348682727614122,-0.11066286866749321,-0.07905826681134245,0.04646278429630413,-0.18094732988652168,-0.12333933893104898,-0.10850212381035836,-0.17060226417943097,0.15414186767506727,-0.09611565329459108,-0.047423518664343085,-0.18060129167491806,-0.11323755117144764,0.03338652894731225,0.1014138706382597,0.08678942713263829,-0.005344548977244804,0.03448363741741979,0.12621336785028753,0.021359106450812255,-0.0749766274164824,0.00430479820183942,0.11621475067730527,-0.0541502256639014,0.05379665355558056,0.028227107593076166,0.02177081089539529,0.005996909087855436,-0.14021139660345977,-0.08646723454292407,0.0069374494841765505,-0.07912756334153431,-0.22506947252610512,-0.11049331833898593,0.006215992901402398,0.014200609814270607,-0.04183628485609206,0.15158911138347844,0.0533861002767522,-0.009539493688353592
83.11425018310547,1.1616973876953125,-0.009705488261060692,-0.08208922831808167,0.14675264308648484,-0.026914559699639448,0.010542052147963242,-0.05900867229104718,0.10139506535397683,0.4570984114077481,-0.034680245126447254,-0.061168330906316605,0.015249710508099019,-0.04792565029898739,0.16786809216591772,-0.020967774894821115,-0.017727744572860797,0.021443635095234566,0.06175927171362212,0.07098066911167732,-0.02360977406321762,-0.04564003752097702,0.07304647147000831,0.24462658971149653,0.12376947628163512,0.05540316844218752,-0.06693819580334565,-0.09907601473448327,-0.1992747472867118,-0.10689300154584813,-0.045918277407620556,-0.10305721871642289,-0.10920484864287819,-0.13459979102469924,-0.10277248014959661,0.03371415695450375,0.17287184794747285,-0.06213130764335484,0.05941583909723798,0.01942454582179457,0.017474423548077357,0.17723085372130165,0.0024770517459714383,0.08878284966015149,0.25984231277939146,-0.06961647284587617,-0.10042434756763513,-0.3112638981706179,-0.3113501818808356,0.06983851667502528,0.5028299551656927,0.14963305328952098,0.13929391501301192,0.0027417177285910393,-0.24356877233726007,-0.1362504852949254,0.09209779158355189,-0.049296801206319955,0.06244451094784924,-0.11816574725382503,0.04358864134002026,0.12230531488838581,0.033396265244101477,0.2447187007026531,0.010807657871736424,0.020860418824156457,-0.008358354912786801,-0.06866644159881716,-0.11827926536625323,0.12392391816403601,-0.04698544353722857,0.012143472938261103,-0.2958261262833538,-0.28779684205030165,-0.022548924123184683,0.32107172461258104,0.08315630012129943,-0.2097427686176425,-0.12857932314610246,0.0348189978832725,0.06252190791759812,-0.04109088740059327,0.023032504603815472,-0.09653733607401456,0.050235074708093984,-0.032296558394144866,0.1423711308166271,-0.0855826358653012,0.14671924773706982,0.0536328748715329,-0.14970014146798782,-0.0378300333949097,0.055299001250653367,-0.017068147660455373,0.05380668918151095,0.12500644959634963,0.06702711027816968,-0.08251877198703321,-0.07746961322795481,-0.12572152971911577,-0.003994573406592319,0.023874163753105665
84.27594757080078,1.1211013793945312,-0.12969507585377102,0.06844527038929579,0.2799615078290785,-0.055120399703971784,0.10935359262488864,0.032323518845253925,0.028670615216264753,0.0279040439864488,-0.16944464670402365,-0.04114965763195794,-0.19033373093708525,0.030516060102311518,0.06725611749262372,0.1288670920662973,0.0286085223706318,-0.13926385699437246,0.03981262656466873,-0.1327519545797157,-0.07454205311629827,-0.14609892008320857,0.008164521042562822,-0.026757536988382305,0.0006429068597387996,0.17753456185053174,-0.08172630144538047,-0.09159556598503131,-0.07119722433069685,-0.23641508380967444,0.11186482138148815,-0.0823555183652355,-0.20763263127301496,0.06924335359713427,0.08437289912366838,0.12688999704732526,0.07448793471299324,0.025556347213184748,0.012885589081230456,0.17871992337291503,-0.42507072790326317,-0.12662604027677987,-0.1303755075337626,-0.2306792013426432,-0.3412787052598513,-0.2442759670019116,0.10834940570238402,-0.12944764993374763,-0.030731645578286684,-0.20620739483981,-0.03740258081845176,-0.13708557893559037,-0.11157057770207125,0.016805077480258362,0.06097962478954359,-0.06929255824440689,-0.003970426965324779,0.10448298165647342,-0.09557286291855978,0.17721021647481236,-0.09467093612042475,-0.05480333644956445,-0.015435477724699767,-0.11489195878782067,-0.15802701288603344,-0.10530938018391975,-0.02715702360727852,0.1223294389051649,0.04061553118204558,0.03729097107386464,0.1857367788364722,0.2157285304100989,0.021840193858544778,-0.1702331519427965,0.06641428668163307,-0.029347250806939357,-0.11559914233848766,0.18929121698904972,0.06348562314112761,-0.0850193080031707,0.04962589858540666,0.11104836784222276,0.2287203087414683,-0.10121213358536454,-0.000910551084313661,-0.01675644721615464,-0.1806194831880367,-0.15269315860569185,-0.1668636034563565,-0.10325534476637158,-0.06834090950664132,-0.15953374631434075,0.020287746435791683,0.037865330055369024,-0.12658983524196477,-0.024845793354914963,0.1296493947902899,-0.06601145048741133,-0.1496174387472058,-0.25806744815676264,0.1256353980004995,-0.02662702481390125
85.39704895019531,1.2114028930664062,-0.04418802887617977,-0.12592583666405135,-0.002803397897455979,-0.048894697358286776,0.04769313779792321,-0.21767959705588083,0.04048680354746677,0.16982686036514025,0.047227877920287216,-0.17612439436442948,0.053475746291523296,0.22838704633809762,-0.17958740624463465,-0.024674469651613608,-0.09641333224802848,0.13832771346174508,0.05042310001549503,0.07970504313954076,0.1009107602299746,0.07377578752603803,-0.060027887437650966,-0.004096578900475777,0.025667081591924802,-0.06517733795025658,-0.007491219249567548,0.10121258701110786,0.00041844992712467563,-0.0860297627556308,0.009330406734282993,-0.19889351639782887,0.046933944402227604,-0.2088518924728502,0.14270633167170074,-0.15305822440160202,-0.00649929377969481,-0.04372867577820804,-0.33619924706621224,0.0553127051325478,0.29493263484968457,0.2177755767954414,0.188752507215023,0.2981124659069763,0.08361394891411897,-0.1154853900323932,0.06174174802903441,-0.043854655524046264,-0.17538183022089837,0.11538815905951279,-0.12310509015130942,0.14133103151988444,0.1323593810699601,0.12434489488081236,-0.025371066113314775,-0.012690081299409852,-0.1279884343077074,-0.03444885642001841,-0.16991514608418973,-0.007706609540247289,0.048967740092649245,-0.008710662626326172,0.11341518306577986,-0.23348283891256078,0.08717632570566633,0.1961198191821465,0.08205140081191332,-0.2779312681481787,0.14694363114048423,0.010994731913082097,-0.33143251948822433,0.23360342132338785,0.19918707176076506,0.04741358637165481,-0.08805207884345459,0.07609205070480941,0.17625882228890968,-0.11552476212544782,-0.08803638241799971,0.042072420519746606,-0.11272175485245368,-0.15760035442852727,-0.048950291018293686,-0.020188171246161922,0.11518810519593284,-0.01577058541849162,-0.036349516832219965,0.0037225258387046014,0.01714090273131004,0.019095158511733133,-0.15696129780290358,-0.16684570999065915,-0.02266123142421238,-0.061693543114674926,-0.021319080274866335,-0.011823227401049213,0.06002665137463163,-0.11003270656056229,0.2424198844807505,-0.06410059868967777,-0.09830320136494197,0.004923968428394251
86.60845184326172,1.2407989501953125,-0.0019467942806005029,0.00955021000281834,-0.15038487520198446,-0.17673791800234237,-0.0321188365838016,-0.1457678313371637,-0.01337261330158683,0.14453790189590224,-0.3086156439213221,-0.03926977753226542,0.04447388946847739,0.06266049740607563,0.09059622910362346,-0.19274122716217396,-0.015689183606243957,0.08062330621951794,-0.004398287158117704,-0.0697655619611692,-0.17616809164311723,0.13544726395187567,0.05734852301476859,-0.042431427945766854,0.029221118765536087,-0.0815925005898952,-0.05484667450506925,0.0059567434653898955,0.06922694475603414,-0.13729307544418734,-0.11204544357806055,0.15826424803304956,0.20394426493279377,-0.04800376174954593,0.08416994292904498,-0.15750996157827435,-0.07540853561427581,-0.0838547659702931,0.23466876353233151,-0.019408840538855814,0.039605341853139714,0.030288430943087447,-0.07691639408834222,0.3357458418899436,0.03696307207959018,-0.16442034229951694,0.04467514888984937,-0.012222374491401627,0.20681894465290798,0.3339795605598144,-0.10843019874075852,0.13669645799053257,0.3403342803663363,0.08241045052767133,0.14105052098624696,0.0979775415518002,-0.0749539679417875,-0.11601650194037547,0.08593351060054732,-0.1264042351070779,0.060909214112692456,-0.0030486931785852676,-0.141526579714005,-0.01000107399707409,0.13651315906090083,-0.019157726540521683,-0.16804799854913885,0.016249703030292537,-0.06961858522408071,-0.054761888558698665,-0.018884475543528567,0.162056733450093,-0.06044315268780229,-0.3176550421422669,0.20096355422435255,0.39272632184025014,0.01905383245987307,0.13265813724939401,-0.0883866408831193,0.035769777695499924,-0.06430233172928387,0.03774021984346358,0.157544044012839,-0.039712630290752865,0.11972341257798852,-0.05423633930549066,-0.13086833982007656,-0.1476329384979644,-0.009866476017657543,0.08653716877305176,-0.06322003809544707,-0.018462101490757186,-0.03932669017577595,-0.0016872523701114694,0.10514789493410649,0.016327787880756357,0.0047279981150562984,-0.009055809690151793,-0.09087916917780707,-0.11476719487305369,0.1272826650166181,0.06503911139091229
87.84925079345703,1.2317962646484375,0.07086424167141514,0.2014485366343287,0.1162132438241,-0.05921536743002613,-0.10016264584091814,-0.030839861625406934,0.04198498196177104,0.03831346498765003,-0.2371506754913217,0.4201494736875789,0.37174188229666927,0.01680485249285294,-0.179499118466793,-0.07212621337155704,-0.07659094742727336,-0.034069426429070335,-0.013846897595870227,-0.0672803536350769,-0.03836282991326025,0.01784435787106824,0.12454528810419072,-0.03686370893861508,0.17002787844343453,-0.1287064780762196,-0.03760289788967941,0.03176878546243907,0.08399851304917985,0.03966474858411144,0.013969440812596316,0.004449092890692678,0.04459463998471528,0.024588520773708156,-0.012107015477998334,-0.057560875821815315,-0.009090190163572582,0.06920953441725428,0.019851924534051827,-0.24125495694665927,-0.038627876464130406,0.21122367916199378,0.23943380974544848,0.056679378860055835,0.29717358254515963,0.06009166358399827,0.2678169172802058,0.07243506105950819,0.16061351455175768,0.0819996715631093,0.13260125100277406,0.0689490821573033,0.16999866249495885,0.020009974383801414,-0.2975058773540753,0.13096222715903477,0.061166858796944584,0.00263124312797907,0.27033928182610495,0.007747441849434246,-0.1893727149840576,-0.05715314483445601,0.02855784716112811,0.06392146227225098,0.01664956984878963,0.02094840117295211,0.07455723147878568,-0.01981216298168039,-0.11722757406687814,-0.16958067682325226,-0.11584545821512464,0.03020386502151699,-0.13608577210836761,-0.1336610959398309,-0.13150131236936086,-0.20405814545331125,-0.06653179161728096,0.17581102489573505,-0.1267054221199777,-0.22423642946300815,-0.010832405617503892,0.06997849029992816,0.22264638718982377,-0.02605660177387142,0.07876381464170741,-0.10631908350611294,-0.11512287613198723,-0.01960297657104587,0.044835340584174224,-0.051213404268231746,0.16561620254109358,-0.1120452121952518,0.1546645737940333,0.12210282058498394,-0.029712212710229027,-0.058844788904973945,0.03985145016561484,-0.06884664007030915,0.030278407284869344,-0.2908462595449093,0.08532922396900336,0.08219425146676322
89.08104705810547,1.25140380859375,0.07972048384411823,-0.06333398551137272,-0.03130353683654774,0.01835201959608672,-0.0034257370703556222,-0.19797074708537918,0.032550146419247854,0.3746179425457228,0.11037689167082339,0.20045558402819164,0.0834377056040982,-0.09802487234007401,0.03302895603471347,0.1084528891240212,-0.0160724024724752,-0.012340864490343745,-0.06987230803537622,0.025095868884168097,0.310197761063956,0.0434791177863412,0.012362783068492936,-0.12423249582850182,-0.07675939810177135,-0.07983354017674252,0.038196236479900635,0.0427230696951824,-0.0847080826521285,-0.249356773699082,0.09173848758770589,0.08489511201157553,-0.19432844482784978,-0.1523278911657123,-0.19258616583913085,-0.09692642307610402,0.07269076197633119,-0.05810228592176384,0.0633315532420932,0.028018097267339868,-0.14041495525487935,-0.2944250462561758,-0.42965882306007636,-0.06196444270191678,0.09190330711148217,0.008194574881109123,0.07850657047212468,-0.14492534930717743,0.019229154582750513,0.2247631229119384,0.047578017945261765,-0.07572223418482522,0.06924762510207318,0.07350243066515595,0.024863036920973955,-0.05334473673888458,-0.11393251156421498,-0.17371596448384855,0.009305278352572072,-0.04897705895263472,-0.012393223439546255,0.15410551382574927,-0.038573643034684905,-0.054485774154809,0.1520045663927409,-0.21265768798959206,0.09332906170003125,0.0634718918013652,0.11796648096142906,0.1229093848798806,0.14039757060062671,0.20062392084075886,-0.026315485872505602,-0.2829820347177181,0.0015796743904335983,0.051956147022517316,-0.18801197293698063,0.029572976408298302,0.09758693221735495,0.08676644405567707,0.112566348003031,0.040428276868665874,-0.06523885690516296,-0.10131357721605676,-0.0822740214185186,-0.19631159424401878,-0.03850458843821353,0.047788788877729166,0.004874199406334462,0.14631682388000403,0.05991134711764245,0.07876186124413909,-0.11849671116872076,-0.01800632790931565,0.057539651089620565,-0.00482395732739206,-0.033116040682641734,0.10241584692704606,0.14422510097351315,-0.02271782162624507,0.04561417813380468,-0.09170467686551749
90.33245086669922,1.2910003662109375,-0.08885332632936482,0.02931176600438251,-0.002498091968691844,-0.015613194254280987,-0.18403005962000715,-0.0519656427367081,0.058291782770086654,-0.08833094973666614,-0.26518074895558885,-0.4122457264074643,0.21937664199607446,0.21794705597693675,0.11532635041012754,-0.008148763715551153,-0.05157120651332504,0.07448524763152618,-0.00966913901300702,-0.04243880191056609,-0.09619458727695121,0.06362044271956686,0.21707250510927223,0.10113692224862222,0.012399887322430652,0.01572374127100019,0.11534256798014146,-0.013134440579484137,0.05044016847903579,0.1298273881314188,0.05636726670063316,0.026332086005049722,-0.10395653804744448,0.06824534779468161,-0.001270884578762895,0.020453690073014077,-0.10052555037075425,0.011244514256470911,-0.292536297427837,-0.024194939812438313,0.038865693963042854,-0.019960562193071418,-0.03189693422335105,-0.38976008739915297,0.09105418994228864,0.2526805672021724,0.11315475527178204,-0.04540426484044417,0.11305305670296172,0.20340811572973494,-0.3071008157288281,-0.2035758498978812,0.2207236753464951,-0.06732622721220996,0.08242943447079162,-0.08305937784818872,-0.10161730536248188,-0.07707331913990932,-0.10015815147114476,-0.1188223484454868,-0.0902266021502237,-0.10065696319022309,-0.014299492922460952,-0.08769681466613775,0.03578119051061968,-0.06668192288786416,-0.032464246199005904,-0.14654450503794336,-0.10920127069717868,0.12906734033185643,0.07925600168086852,0.06967835797605307,-0.038958739711517025,-0.02253761513854749,0.18521837174646433,0.36975752614125923,0.07681937353134435,-0.0591776549943332,0.09476522835886392,0.36647875957186804,0.0820084908374985,-0.12212836394417374,-0.04471892176041623,0.18358071186747327,-0.06232921400882906,-0.3137850206663468,0.10256314189713711,-0.02547453462303051,-0.18445507119840804,-0.09980173184838932,-0.05054419645365697,0.11494850433435219,-0.10470276791467407,0.16090294115020162,0.09616448350317207,0.024049514606871745,-0.1406399580275133,-0.08740955587959505,-0.04128163009412013,0.027207092686929158,-0.02351982893972325,-0.038609391860117165
91.62345123291016,1.2512969970703125,-0.03805923773791837,-0.07269737675753962,-0.09963800958437836,0.01047962349641046,0.07544201598808868,-0.09277465177584368,-0.08206283287972994,-0.05432065840065334,0.03021584203804649,-0.39567187813589444,-0.12702666938676932,0.09577022882201677,0.12540224144734805,0.050290967108337865,0.04877675169991939,0.29818080419578996,0.0438904964501815,0.11055879653095078,0.06684533304408424,0.15095095501584307,-0.18336131071891465,-0.2102601746737459,0.08454934754259699,-0.04125848913427492,-0.006257527651314065,0.010343716902164131,-0.018025880154472963,0.1030897795877351,0.17550005846283057,0.04436588979641328,-0.029857334041863602,0.00996383697290007,0.2694333393745002,0.16449936204298368,-0.16063829340604793,0.014591718820595777,0.16784248852231573,-0.07267969270508412,-0.12178423951905787,-0.1272319698169155,-0.16169341948597477,0.20665104243992105,-0.08310038244197453,0.0750977299597893,0.143178150030199,-0.10316848016339561,-0.09228216793726932,0.15258791780305953,-0.31477755704340504,-0.37338326232919045,-0.014898957004808604,0.0031323950219074546,-0.06694096834502541,-0.1670985105599855,0.0463043206437974,-0.11028706093793855,0.03915714371125111,-0.10906668072294519,-0.03338984331584036,-0.06333925442746363,-0.07421275150970917,-0.021187690906002477,-0.02434323258584072,-0.03082193904493643,-0.17125978533695504,-0.12150146535539623,-0.009723801605033297,-0.038047833984159854,0.17181813978815685,0.43878921445607355,0.7347910940209385,0.32126248816924496,0.10444845450147754,0.09946112714501475,0.11347278424767036,0.04193919356696835,0.3492533399556351,0.025826824006745595,-0.13591973778089722,0.19404882513990634,0.17169932881790498,0.04231391573510825,0.013429200195694796,-0.03817997973248311,-0.052270064336279023,0.014473565069097194,0.039214614982311664,-0.09781434137234946,-0.09248708120757866,-0.08378439884057379,0.017997026749942677,-0.12988408976577454,-0.1306056179283922,0.007087295110765403,-0.000691626559306425,-0.09248923124730216,-0.12476855705141628,0.030212718076800926,-0.05346663667148217,-0.12587564598532242
92.87474822998047,1.2415008544921875,-0.12355899775764606,-0.08116391153405268,0.09522676568591149,-0.016269499909767657,-0.019429749009947938,-0.013322731665907342,0.007128161503861209,-0.17851492908802402,-0.04842761611763155,0.00616301336072208,0.07595877674262023,0.09425015179475697,-0.03522999273108619,-0.20960976754858443,-0.025874930539272995,0.037247125528834885,0.07233236485523215,-0.10913552313407927,0.024077690959353547,0.07755670340033634,-0.00956186850358444,0.20320502253464842,0.04403083348375669,-0.1978006397293433,-0.12063350156435701,-0.04125337013006257,-0.07465431088757134,-0.02615051628836412,0.18081942385439323,0.06223119806526464,0.05828994186494646,-0.009856492151545729,-0.24084404095917022,-0.010525216630621566,-0.06614401509135599,-0.03160826967247972,-0.01724449532195698,0.045349534793585854,0.02058660303322245,-0.18976691672398227,-0.432854474970851,0.20355504654739104,-0.048254514698390066,0.05480404845911476,-0.07533830199959121,0.24318426214265448,0.034339197850532965,-0.4502582613407111,0.07127884046714424,0.27288002561207103,-0.040812378846856734,0.08309912647505724,0.06655323779037636,-0.2829474224136152,-0.0992890425027813,0.006802099092762404,-0.2805665484498917,-0.20027841367353538,-0.030977769081343243,-0.07042325772843736,0.13480491370126982,0.18939927865055112,-0.06769516262240385,-0.06336212780120087,0.00976191028217354,0.09945979018368338,-0.0669958833444537,-0.1270405936147817,-0.18708815184631505,0.13725368226074566,-0.012890797546768577,0.0911920467086242,0.14176339340126232,-0.06850618499391255,-0.02856943048388351,0.19310212738489416,-0.05459808237239468,-0.11809842181671883,0.10732639588370406,-0.09091866549263644,-0.07599101504989886,-0.012096172865441845,0.019931598881861662,-0.06556109080539646,0.010653835537836946,0.2787841671999294,-0.1041387816786435,0.08294275424546162,0.01057251157606293,-0.012278519726655834,0.11599940848979036,-0.05632120172051288,0.06125545976145042,-0.08505815172035505,-0.050417156442293276,-0.05512743628479928,0.11214130456107663,0.00421113145384241,0.0982173647759691,0.2320016472578427
94.11624908447266,1.2217025756835938,0.0808798635619361,0.12799427939212352,-0.07934252277996734,-0.07745627007650645,0.08707987429577087,-0.08619701949786136,-0.108724785414662,-0.019949378236538248,0.06290273844715136,0.05283888839889198,0.08577885308707589,0.018030665658807035,-0.0453699091900508,-0.062439258083272595,0.11982104092707944,-0.02666162117410916,0.1122818607248442,-0.03794711672614043,-0.13386015069145196,-0.07858420190497141,-0.0019281064640885364,0.08526148444419282,0.0037232496452560674,0.00995804929648203,0.013792726156095794,-0.005385390056811779,-0.13128013333155605,0.045925494916816426,-0.015832602143251634,-0.15607963099824307,0.08996782722366142,-0.05298702207083711,-0.04810895857022255,0.2986587281511419,-0.0071209322145868266,-0.21338840039333956,0.2589473735846565,-0.03683084614538251,0.037900431157100296,-0.098286997358307,-0.03043707166557102,-0.0027242992869504707,-0.06536531066644607,-0.06484100121289654,0.20159210402819336,-0.06245090444366419,0.11137514193122969,-0.06776881390389747,-0.2646072779152074,0.0802841348173375,0.08119209138170355,0.09774157801278718,-0.08487865834005699,-0.21210470155887778,-0.0383331861130679,0.08464274387198863,-0.01953841237684434,-0.049162050382465565,-0.09291961015138823,0.007500534461170492,-0.0392216596185785,-0.012241695393198557,-0.04281239909586433,0.023107118587611525,-0.0902434371251935,0.007155462571778057,-0.01680767280935195,0.2301377739622326,0.06221244022868811,-0.07293906939587566,0.3634029500817357,0.056393470762617866,-0.016665231332764197,0.1780920048627666,-0.035784990898072355,-0.09758425639604378,0.1282085357305645,0.0908225917750829,0.024365953089503123,0.07121815319336225,0.11771477712127043,0.16128719560513913,-0.20230729546072682,-0.18027756862370792,-0.016943853162027678,0.1334839515428526,0.06882304557344758,-0.10981767083961035,-0.11087066530384239,-0.09287558235704199,0.07695063017178957,0.04977058049568023,-0.05526027132998245,0.0061914212375753785,0.06925677739938811,0.007425208689465839,0.03538919878488772,-0.06284212860519815,0.0658988511790879,0.05454412099087291
95.33795166015625,1.3513946533203125,-0.08703198382331834,-0.13774134333188787,-0.18141823250674888,-0.0015468287172987396,-0.0068957597823548055,0.02051826675061215,-0.05926352028359694,0.14859152217207683,-0.08596377901453744,-0.09144604652698853,-0.06950761983544608,0.014973923810416815,0.013602937787215627,-0.08608369634691232,0.11658424573876891,-0.24657346904860036,-0.10425153857443233,-0.109932262861232,-0.04277945834726167,0.08072413348945692,0.07983129928817846,0.03131606056431206,0.1034194172929953,0.05633286475151571,-0.09023981644502,-0.040980208975169394,0.08737041420139013,0.024508132985722852,0.11513396163852477,0.057281876438096666,0.10952351046578852,-0.11032851792735986,0.08612577764985536,-0.039292640824986534,-0.2008063239603226,-0.06594749351197376,0.14910255931302657,0.155572236374176,-0.11346009563087578,0.10403709258755696,-0.32092752771036914,-0.08820867405817462,-0.2114738035657882,-0.11744823144791845,-0.0552896173284913,0.1777746951145278,-0.031188021725287954,0.07035059765786067,0.08436165213401209,-0.06499011497382272,0.04473449722630437,-0.01543798246328433,-0.24472567982737042,0.08907333124917088,0.060870165086316694,0.1453738131303756,0.03355906387417601,0.21527071414155896,-0.004805390644863974,0.07071690894898373,0.0008970165412641195,-0.03982218121783035,0.08016525858502653,0.02720865910817403,0.036769555202070224,-0.02155037211942388,0.23101821116850235,0.12033117363757106,-0.025078517489065835,0.0736902734221395,0.28736533121093255,-0.21567640230866025,-0.3384038393403115,-0.05516482408743829,0.29803720081107127,0.04927530868853867,-0.014258608310913953,-0.19520528330690884,0.0814258624195941,-0.2873093366579208,-0.05882312478950845,0.24207529045100373,-0.025334546272634557,-0.1529520550323139,-0.19326900492176508,-0.11925567961884141,0.09892230383066378,0.04825173406351821,-0.07939881095105243,-0.025825660800745876,0.13880197625051185,-0.049349573425813274,0.0039933941353555635,0.05812608134107583,-0.06365826088825374,-0.020314882151116972,-0.006028008879950008,-0.017774990197012966,-0.1050551768520648,-0.18837283008451922
96.68934631347656,1.221405029296875,-0.04735901207311724,0.07998951832068141,-0.041162065359727926,-0.1529946149458981,-0.20093026152599333,-0.007717108847486455,0.34120627925709185,0.9359695003658088,0.22811875321196268,0.008214037012237375,0.06004803568538196,0.023262321925450496,-0.08289750731697201,-0.17489633600507892,-0.007073351416501917,0.03480605654909482,0.045814778508160105,0.02554573264964959,0.07022776766174725,0.09295809893263024,0.03585007924665269,-0.09543219701152982,-0.06163441251672006,0.07578422082519523,-0.01928076644534196,0.05594144604559118,0.1765770520623719,0.030458904198351414,-0.08410620354034583,-0.0714571057680562,-0.12503254934197688,0.06411126992110747,0.11736800930275204,0.06285027120291058,0.03470342177427216,-0.1108142974777603,-0.06895635451932,-0.2347702975908774,-0.35210987640907776,0.0697292345292452,0.07342174745446355,0.06737237485823133,-0.002563107395583151,-0.030012958580968835,0.29551005321739154,-0.1953163373058222,0.38508195792772804,0.150576468184851,0.059042809586995745,-0.11395100674843636,0.13356130747135472,-0.017748723898784166,-0.09246415422986946,0.05028345720974556,-0.035428778972171296,0.077676604591336,-0.1315398242261161,0.04651225972560928,-0.07334262465673683,0.2896221680127027,0.10825038129751313,0.0222063050237365,-0.025798520060150064,-0.006302548221560053,-0.011745772336421673,-0.059648251496912594,-0.1463378168840711,-0.012585115542200459,-0.008352204404488835,-0.032633982536368816,0.006845464696067088,-0.22809400800183333,-0.32379054533600277,-0.000721531207591164,0.28989622314796554,-0.17947678288962074,-0.14898100383471197,-0.05952679547856168,0.08261082415433064,0.007820048529394961,0.1592570137049896,-0.030662446793993756,-0.0805777730330453,0.021748177773718024,-0.17640705088990966,0.14362514126736278,-0.08073143764399443,0.060105911412034835,-0.07322188444642126,0.025075919232193676,0.03484113509883234,0.10241347833647124,0.070558235286295,-0.015261293007531748,-0.02306005884028902,-0.04695895486743353,-0.15921150780536011,0.09543119186022801,-0.10011159085097435,-0.09014185451925946
97.91075134277344,1.3013992309570312,-0.08454890603713835,0.06029996803996467,0.0038747835283518203,-0.1365702515034037,-0.08403805904246937,-0.0012183430866328018,0.11233192473893884,0.36500422400010923,0.044957292917893125,0.01174775166400465,0.08519143471502678,0.039675119252396765,-0.05391254835080137,0.23517771552877426,0.11454842483311932,-0.11440250873971927,0.0653303830963291,0.036141173275417576,-0.4583187128929932,-0.20599340380681788,0.012260499967938973,0.0529273687094109,-0.07845525076079246,-0.008948055048012597,-0.10600392436898373,-0.06887952184471613,-0.18850260267899482,-0.08974475812653403,-0.10983853615551314,-0.23098279707272462,-0.004468808932644397,0.03958933730987492,-0.20464749792372786,0.006571437239462213,0.16330579363871603,0.03945563645181533,0.0503842154372076,3.8578281237306605e-05,-0.009759656448603257,-0.001285150262366556,-0.02637247195762997,-0.1042307973221357,0.24146484568561935,0.06616375370981127,0.04290411018760136,-0.30500168132405886,-0.18801852188183865,-0.02859783184394143,-0.08303079424004331,-0.025497325895404516,-0.04976203381576676,-0.062304797337571015,-0.1267328437309417,0.034446360871506015,0.23547994655221205,0.41221359639393096,0.033189183490360014,0.002805764512528646,0.05845402619254802,-0.039752228518087324,-0.019210582454935073,0.039044598674643716,-0.02216129915542326,0.026712496501464178,-0.05152330116502976,-0.12491281508732373,0.11207963918291144,-0.015975547911809336,-0.09417734561488807,-0.0960015193785474,-0.08288548255807889,0.07692476707074601,0.07684319263562375,-0.11636832760995162,-0.06249747046772623,-0.041539365991102715,0.06610207120326321,-0.04939082002154186,-0.1662110466978732,-0.04784452690050252,-0.04535411197741801,-0.016173545928385963,0.18853198738838417,0.025747198307130528,0.07902436871009551,0.030499747542581564,0.03918219287760427,0.014482042156047464,0.029897943788507176,-0.012851387616062056,-0.006043381778914019,0.15417259879818682,-0.10113248225026275,0.045849876817908065,-0.014946363475281475,0.02403397515600332,-0.03626046551505658,0.05980955241214472,-0.016819922043002797,-0.06673533018283773
99.21215057373047,1.2515029907226562,0.06636127208515355,0.007307505602494421,0.07055512391763004,-0.11219103804116727,-0.06303550892540871,0.047346128233456096,0.24476442730343861,0.3212603929923045,-0.0158563273312005,-0.0564986622395113,0.07081752862208185,0.04175431671869506,-0.05591991533232559,0.010507114732059057,-0.014795472501357994,-0.03629488598610803,-0.016036449610514425,-0.2039006224297461,-0.08810024512884528,0.06567035605124298,0.06500911625936437,-0.05623033288356215,-0.005678624489340297,0.11123618468862818,0.09839908100070259,0.1367160823430763,-0.005915224657923393,0.049235519052347285,0.014932081615920328,-0.028066985902552702,0.05835525228867485,0.10180530424999769,-0.09767762945843464,-0.16592599300653582,-0.11640202404648375,0.06360433684796725,0.1590583150908036,0.05114812887677592,-0.10047912441377933,0.036194689849916924,-0.015321063654432776,0.09706529569544164,0.12223279323970657,-0.2580069269826735,-0.17767296496183943,0.24139033521443498,0.1528420974540946,0.0846136264332204,-0.08802666841457266,0.03324927666924246,0.11343394915363018,-0.008770412216258365,-0.028142615050140055,0.033456518922925685,-0.07759882277396056,0.08959532648446851,0.005568863311209845,0.05793377459644675,0.02827492188408119,-0.12286939456093349,0.11417353981825029,0.16914056980304404,0.07555813769060676,0.030913493052488358,0.022425926163789932,0.2622350069763652,-0.05057096417052422,0.0624033754777093,0.06808637353577379,-0.07009922344695955,-0.09991474971788164,0.09426310580994748,-0.02787190032298914,-0.01990021355636888,0.12943080328682385,-0.3782514182537511,0.07237379818498453,-0.052309926864560055,-0.010454019715833124,-0.04754765567494734,0.05988215446695468,0.07207980684924152,0.12441280293822679,0.09954674964030662,-0.032460835886554,-0.10550641450510798,0.2524130351652302,0.03825375082147548,0.017876858974998508,-0.03820367748226804,-0.0656706785664724,0.08896784102539175,0.045670624886529176,0.14978155879572433,0.0832269785231515,0.11965690170926606,-0.10137862252735198,-0.012447459271979114,0.009860217291501383,0.12290913512772711
100.46365356445312,1.3613967895507812,0.1251413575784418,-0.14596798071015485,-0.03634222460319714,0.04832669234838333,0.15080365243597252,-0.4635481956874064,-0.3485323866050897,0.027204634164407878,-0.10343951932688208,-0.10931455372488054,-0.178460774295059,-0.18716189468528344,-0.07185154541068459,0.09633717108549818,-0.287778442909605,-0.1879020324502087,-0.17316734091478764,0.1128500844378027,-0.19645993966328376,-0.06720222270211651,0.013763549130462516,-0.07762181095657074,-0.04011167351634567,-0.16722767802857763,-0.04092862763060008,-0.17931446834633455,-0.13851287532365583,-0.10928087181011738,0.05007049423530697,0.057692290547950775,-0.06814855140189313,0.07244273806892092,-0.10668208337619285,0.12810404364272604,0.1326395130431533,-0.1010369870546643,0.26614463188312243,0.21301314239802943,0.28241787493511616,0.07623676449492542,-0.15225355031587942,-0.0552462498855173,0.11578634840969543,-0.14221215308027935,-0.3306320896419909,0.21958375575011999,0.34740296051654057,0.09792575477187132,-0.0671836763580122,-0.07123936074314274,0.0060771602042075795,0.0012731319188295925,-0.08237379473727238,-0.21641940036250773,0.08233542343781552,0.3646068901756481,-0.0590504551222205,0.0009779496276189912,0.12001149876764207,0.1326207657775028,0.12889317865455371,-0.11128543544924789,-0.11422867897593149,-0.05038854151151694,-0.16802437970960432,0.09028559161156179,0.12065593087638726,-0.09046249063279468,0.005716920574748905,-0.08115585782413727,0.4032470935681469,0.23667654095691132,0.0005661933024659581,-0.07966015020213568,-0.07520199981171323,0.010156367622045887,-0.15910240306709883,-0.2715699251344421,-0.0018286789681570533,0.09207707283004098,-0.0743469576310922,-0.1717634260072169,-0.010451577189152197,-0.0231547917451195,0.1493857290924323,-0.14869110879631553,-0.21619871455911338,0.16715883509427515,0.20318883901284662,0.08293431256119542,0.23593297782549552,0.024327477266197203,-0.025634718353764043,0.009012770001361428,-0.015504519381877612,0.027723335541761714,0.0010646832116887883,0.04952806352392915,-0.03537494799696139,-0.07961055078317988
101.8250503540039,1.3115005493164062,-0.07923228674703858,0.04747344254277471,-0.024847135037495454,-0.11300671466408208,-0.11411603897878544,-0.011770517631489771,0.22131951825875376,0.25936927160211376,0.008870408713540003,-0.05657965166239227,-0.008547220351609486,0.058217321944350094,0.04017102189648304,0.05862004801247263,-0.02251088058984449,0.09670965234078144,-0.06036775580288295,-0.09085867423478125,0.025542755068688677,-0.18948570401237327,-0.007291443627643895,0.1295690565250329,0.08474781456056894,0.039289065217017666,0.1260750271851699,0.037658998315749724,0.14018059017242093,-0.2169327519158986,-0.01899384648095684,0.09928554444198642,0.05180690102274069,0.025193497951472205,-0.0869668091399044,-0.10915263701963536,-0.01758369277010606,-0.007525773070962444,-0.04717833645556394,-0.17068269212803142,0.03844429899942284,-0.09653837335770736,0.02731181341400469,-0.047101409860993315,0.2558102676235115,-0.03466452827047355,-0.14624648110724875,0.005067017772939804,-0.009371153417253465,0.0013773198106104855,-0.21785765199461862,0.07933917510645974,-0.21567936214230002,-0.06234935610826613,-0.18385438101355786,-0.08985844863230538,-0.09370631366027869,0.06852163417639097,0.15133373456318203,-0.022512348654867995,-0.11472236304337582,-0.009844369425903284,0.08391524595927219,-0.020731901534548906,0.02280707727056711,0.07045324902884212,0.09633405368322304,-0.261267749491441,-0.08534470406823329,0.1757692421536329,0.22132589301385058,-0.21845856332453464,-0.19329851085824062,-0.2930039324648926,0.03129764054656867,0.1969254604287315,-0.04127432909706689,-0.22257347965282503,0.025567161775957616,0.007032310015425869,0.03871560032981576,-0.02116826448635334,-0.07757980728975564,-0.01872017923871354,-0.09094754213241547,-0.09218516439009641,0.12314118703332796,0.08268242000538847,-0.008827662262307821,0.029400737049556813,-0.0679229445513054,0.09071090924030648,0.009887999908758747,-0.059201366455146245,0.03742402757359815,0.01486027979579336,-0.08683915213570184,-0.19175908956212434,-0.09964533919455099,-0.021072319969812466,0.013166106557460477,-0.015806626397501244
103.13655090332031,1.3115005493164062,-0.016940234869340612,0.007099570472534403,0.021356656482765177,0.06563673993442487,-0.051251058502882085,-0.059470756372148194,-0.007030054863726765,0.015811327699116164,0.47562711661110757,0.505197295451437,0.1285141842671448,-0.004912317315332315,-0.1265732382217274,0.002101878223936565,-0.16177738333359726,-0.12357383872428758,0.09253496136945569,0.005084832652753862,0.07325953572928372,-0.1531818042472925,-0.044217908429739966,-0.0283173374753546,-0.21779302506087017,0.02092129395197464,0.11820070838320249,0.21659392649368286,-0.11088159472589328,0.02140277674462447,-0.02145671221321087,0.06874259224042611,-0.02001067365699545,-0.08603869485042402,0.05543046592132862,-0.09531242652096704,-0.10325759156164682,0.06682184985334474,0.15346866486008232,-0.01285057933469129,0.15251198122255724,-0.041265506264464194,-0.21150323417435735,0.1574164871465809,0.1859364528833456,0.08251368178268459,0.12722587498720028,-0.09585182335717876,-0.2968344322242844,0.03759680362474721,-0.09136404527302538,-0.07677482182696656,0.08012908511085662,0.15867805783494393,-0.32843526806527645,0.13923043704000446,0.2581612097260165,0.07282540467499095,0.08286648140780319,-0.19499348926419824,-0.08958673655181033,0.0654172524253273,0.05054063492989054,0.022237446148991313,-0.02842205939258167,-0.05681725936224457,0.07542792704700808,0.02187660550784632,0.10157759639872367,-0.0030783714001724055,-0.005879309343229545,-0.14913587255564464,-0.01260432628716039,0.1616015586167358,-0.052048433170884104,0.038213842876067536,-0.05357703141271131,0.06341213251644473,0.18930945738601734,0.03805217975883862,-0.11199584758686343,0.02766778014713187,0.06419881374275825,-0.20035232076870918,-0.0786503392440267,-0.20647700717588152,-0.2729515725346755,-0.051556164310354605,0.15395792495736207,-0.04728336956809779,-0.024067694781475364,-0.04023155297720884,0.008140514215336963,0.013176529919657134,0.08523031929919751,-0.05671836855400349,0.03958644786715754,0.015032174508853411,0.0017103019012961493,-0.045633631363062935,-0.011338598011295636,0.04226345338169307
104.44805145263672,1.2511978149414062,0.04670232613831149,0.026300482733058038,0.15998144394261207,-0.011063376850595717,0.020636345556967216,0.08797880056290192,-0.016838559272696615,0.12046981431693334,0.04490790910526731,0.09874702810280425,-0.01141000018910042,-0.07995600107891038,-0.008878486780714206,-0.029897937128325395,-0.0803817480861642,0.08491661274369434,0.016043401535537717,-0.12520756870754543,0.08053891672288015,-0.05926924739069643,-0.1659732903006988,0.07133258486562664,-0.019051446419224828,-0.013199948086386724,-0.0033160351885985176,-0.04051604070957451,-0.16572827037554805,-0.1668334527381484,0.0378026687863168,-0.028503652851691076,-0.09510869694513055,0.03673526299239268,0.03111941904652373,-0.05644159411725012,-0.05573914591407319,0.20555038153758676,0.10220467364357472,-0.035959574076872336,0.16578775407598426,0.22465289292844673,0.18011462680934268,-0.23833695792639145,-0.003262167884902162,-0.2715696588308287,-0.18232943228539364,-0.004692945598897158,0.20719101255864392,0.007083177550939367,0.11961582875425371,-0.01816004929091359,-0.0376665581297669,-0.08274623045423012,-0.08091705491861664,-0.03906836626770954,-0.44777550225085705,0.0220996258911573,0.04156422761880192,-0.1088476664061121,0.12063404723078842,-0.14563042664597314,0.038720081089883555,0.10664269860846075,0.07759752147091908,-0.1100022870360482,0.02827324803040743,-0.09053064163694746,0.0503130548791277,-0.023443967790078048,0.22948477044180235,0.13103978093805627,-0.25702473084477384,-0.19728023843293382,0.10964030992862026,0.11398691047743237,-0.0687099121276399,0.0944631861313952,0.26889473700337213,0.041845189099781535,-0.06881279109790785,0.1772837637235697,0.05184728032536866,-0.1421867748449785,-0.09396088446075766,0.10478146066755478,-0.07908706721747549,-0.20894514376026696,-0.14456237061496544,0.04013370615816854,-0.012890382628216847,0.1541804404827464,0.07671846617567749,0.02938639466456966,-0.02202243123704766,-0.008943019496411398,0.11977368530187571,0.02585491385179061,-0.05743277835977831,-0.054236504249047794,-0.09325314960914442,0.020356357483760995
105.69924926757812,1.3516006469726562,-0.10892814895075474,0.037170647832250076,0.1358586377191201,0.029955410279173048,-0.04834124690294996,-0.00994664994671221,0.16170985847494526,0.29123629554103114,0.3443692996129817,-0.21151612665491007,0.08948203104684672,0.207714689499591,0.04921810894501899,-0.13224231486137575,-0.118222809780367,0.1801730392165537,-0.02646504664606418,-0.1246688616287587,-0.2179552971641324,-0.4630111428266994,0.09713713753838556,-0.026234592115246688,-0.006465116730050796,0.0664312922037342,0.08074953101183681,0.046330996802037776,0.06812787779522148,0.03800159050168596,0.13917554663660742,0.0007831790630731814,-0.027878055178377957,-0.09247270409884865,-0.17576048188302695,0.009095179849061413,0.03687632404434408,-0.14848938534090111,-0.0021144539459103722,0.026218645416806203,-0.2375655422385513,0.07839453495786011,-0.3039541684470029,-0.0790396353072427,0.10291823992787663,-0.00566159055820048,0.06336429830818784,0.060373590682583245,0.3394864300439674,0.19580176247904904,-0.13888932211180371,-0.2002299091910374,-0.021130369466178703,0.04853182830106269,-0.012178569896122714,0.08426539909039783,-0.14788476448808,-0.2263663234635695,-0.1616498318654727,-0.09311911159295751,-0.07628467304529914,-0.1147657869331231,-0.03129421304459959,-0.10632922695243457,0.03782210650461116,0.0291819422293616,-0.03174755563676637,-0.08382793151341389,-0.10184136989647402,-0.13236418604110378,-0.020038921053207443,0.19204119668841904,-0.0589821266105897,0.14915084994605643,-0.13827926872691393,-0.21466549327275028,0.06616240747235069,-0.041201986104473,-0.09678788834368186,0.09994481340491475,0.06809098180496495,-0.07251864349805347,0.2023697425687263,0.03377930147517144,-0.18724261446259743,0.12630447494588426,-0.004872173555900342,-0.1683527037214585,0.053343036097402624,-0.051355436532080155,-0.0396065998525697,-0.052741098460081744,0.01465437541257647,0.03608326025926289,0.026739910510660648,0.04365170331340697,0.07328526001672434,-0.04992519578759703,-0.0034534102269613356,0.054889286016132015,-0.03247310965259351,-0.05270488613619054
107.05084991455078,1.2815017700195312,-0.05182666484108092,0.08787711909138653,-0.04316360978546075,-0.05620377436588304,-0.08728447211929595,-0.10492602757473196,-0.020764806086646877,-0.014286998332657756,-0.25849402998515136,0.023135696953355708,0.05840034772209049,0.026290193201030196,0.11073166241524526,0.012642985697429936,0.010080031853213163,0.12720317823958227,0.031223771310483872,0.04478845629323337,-0.19071869212069367,0.05356700156243592,0.06801023977657258,-0.09798138277245867,-0.203767090633666,-0.11722975604110167,0.07587733002570211,-0.01654839494445283,-0.11488288738867339,-0.032023471759509634,-0.04296199322765572,-0.04012671868027028,-0.05886611311982713,0.04416365673935192,0.1349342512761833,-0.0620090198385803,-0.03195149227886194,-0.16401985073443462,-0.22904760596041188,-0.08955323622508722,-0.05067184255999091,0.13687196843148552,0.004711119664485673,0.10930701194188223,0.003506058109794749,0.25629471359544465,0.02785756948919175,-0.17485075263905747,0.10244357574403856,-0.13940365157234483,0.11836952547802594,0.019325324828283173,0.0650020683442418,0.1623713952251223,0.19613672540956528,-0.006572254594784506,0.2689849146555006,0.05227623808054787,-0.1278795627504174,0.0444792018992646,0.026716868930538137,0.029209486323153747,-0.006606894262015793,-0.006594135179875253,-0.042788002232053486,-0.057254601980205364,-0.06271743829034407,0.17301496008781458,0.01947012435286205,-0.08730463568285277,0.08054546881984616,0.15580836326330152,0.00878379147564104,0.04032840272299737,0.005088016741593368,-0.10279795019427072,0.10545910707645165,0.1452818626868687,0.11109671755685151,0.0629167782391072,-0.07500615299695527,0.10239674165814036,-0.027401513501750855,-0.061820881297653674,-0.02332557277344445,-0.1359918410943197,0.06512778114080643,0.2117909724339131,0.16193717387171494,-0.13118873131685138,0.060463244281061944,-0.03257124455131067,-0.04325565083419565,-0.06806543141775266,-0.03914697739264174,0.11996732459292578,0.1553632057457937,0.01945781990652126,-0.007739495641326542,-0.24095795599718448,-0.11950981879542268,-0.1672543050380968
108.33235168457031,1.2815017700195312,-0.1581744690871854,0.0017270234204378575,0.05128308623225383,0.07725617526939303,0.059240960761084545,-0.007830964323353829,0.1925701846384772,-0.06496682002144084,0.3481890269168207,0.2119525355318081,-0.2091879995765751,-0.1916057917793374,-0.051766685990582324,-0.04650973341005986,-0.0021920688241676644,-0.005441609557157737,0.08391483709505944,0.11352177874736723,0.03239879412830318,0.006412732277902927,0.12347564397452737,0.009689357139857514,0.06220279533770394,0.02186952434423238,-0.025784878136727123,0.15629761741047662,0.019485515167415493,-0.08674934522509442,0.08222853132183243,0.17594317868974552,0.005695344057808149,0.03537268685687317,-0.010233086263052152,0.01444444459642745,0.045700744435226655,-0.2123365098062695,-0.13600052152728792,0.1204388748490165,0.026693613507230228,-0.055223109136022436,-0.04621909160286114,0.2509495752472016,0.10142704197760836,-0.2067202072779781,-0.05917903089569332,-0.03138312160741723,0.13599038289003815,0.24314131639763267,-0.1781587307236573,0.21911749863760918,0.2612294394371168,0.06471062419165086,0.04976243501681464,-0.08537053567968864,0.011363964407760774,-0.10459155204737743,-0.02237336418900033,0.42129877328017906,0.04864492852861164,0.11823196801408525,0.040876047366081074,-0.11010544001436087,-0.07782865598035538,0.07629007136651361,-0.03782049165774748,-0.15392523057403582,0.020932316834835037,-0.05745071882863063,-0.01306094047340748,0.06425920437846751,-0.09628845882292676,-0.07018565327182637,0.10915642980874331,-0.07446788463090621,0.04605092001961229,-0.01123417022850498,-0.14105141184496578,-0.11429475725218415,-0.07648949026293982,-0.06354682412247861,-0.03254978089097993,-0.0850598050276842,-0.16391530238870133,0.12683478694577163,-0.20815423621685847,-0.07698809069317147,0.11249949393924544,-0.07573051637116919,0.09630877622311293,0.05642536013350481,-0.07503929667107531,-0.025672419763456758,0.012883584830492104,-0.04521548555907554,0.08595727564839382,-0.16243925463015352,-0.006111069556938464,0.009272114326402755,0.3389377173285585,-0.09076977651754047
109.61385345458984,1.3514938354492188,-0.07831551671097718,-0.0033954916681814135,-0.027639234866047108,0.19725596214408908,0.06439810748413995,0.020178137675442034,0.006460908866212062,-0.04101241824614034,-0.05716784166253464,-0.030816220311467968,-0.08382667521643597,-0.06593174389162043,0.15115498117930232,0.07636661362348299,0.10982507717610021,0.07737217623070643,-0.036388527990121516,-0.31520887486956983,0.1955148798470903,0.13788061232187462,0.01976629791242947,-0.04660830208829425,0.088634909072186,-0.14305654963057834,-0.07712498590645764,0.15611949738215794,-0.26139212843030485,0.08050739768143798,0.1410699931321553,-0.02833666064739407,-0.13486467967423185,0.15381971293347174,-0.1178552871294272,0.06697327952656681,-0.06110684194098931,-0.10263910866240437,-0.0816503845134052,-0.2748196325942956,-0.26603985441234934,-0.014546476199943932,0.0064188687583300735,-0.2550233323531972,-0.06338490643269679,0.11638233880496886,0.014830762591643981,0.13196290438909491,0.07711430775332676,-0.19178925997089513,-0.09825431500619136,-0.1920787743211123,-0.01656848665308228,0.23211708118379154,-0.11206942237065602,-0.2600059491511457,-0.08433244642485285,-0.06954676313237335,-0.07647353729743628,0.01315199790763348,0.11011536444762979,0.013314895590862203,0.04639904082199761,-0.10036022826979907,-0.07687769621965596,0.03424162616205175,-0.08182261317267213,-0.0635537447637903,-0.19021850989735303,-0.1861317590036051,-0.0198727382498178,0.08370752859157121,0.12405407967791761,0.022071290230164922,0.026134642063597332,0.01695071807527196,-0.03562248153114155,-0.024689460091436882,0.17765664876488588,0.09004634687410401,-0.04549406513669599,-0.08252197870273123,-0.09008693176480762,-0.04145359439641953,0.03236611342168744,0.03232111660038825,-0.048009591555128045,0.05862447158690389,-0.03849964252998866,0.059754303647274236,-0.042852351307230294,-0.017836575780516315,0.024262578150180972,0.17360328057037663,-0.024084915462801802,-0.046648903379195125,0.022099207205578144,-0.03150570208222303,-0.01739041441471595,-0.06842105278621907,0.09137596490384117,0.0642333488012367
110.96534729003906,1.2815017700195312,0.20081788916104734,-0.006992967912705872,-0.08549815624904616,-0.038119423622722234,0.0524238284926347,-0.12311334136898414,-0.08452573314471383,0.0842878671668699,-0.007570827344332257,0.15052990659719323,0.13581609998144223,0.02689677291580453,0.10485383036415574,0.07140413565195226,0.018848592705368948,0.09049068989544866,0.16034913653094288,-0.02373844822521934,-0.06197184538088815,0.004379040863497209,0.010056939197832073,0.09957416460799731,0.10193161349421133,-0.012548568309235841,0.04493775764475009,-0.10905644164806494,0.023487757932188644,-0.1980749438294236,-0.14749631119381573,-0.04015557843431282,-0.062221568143060686,0.15326693078867923,0.21632613397781608,-0.16882551418277808,0.1329563262959297,-0.03287371070371828,-0.05156789145925611,-0.20689033167421128,-0.13010036913760192,0.011435651473904433,0.09610583112047284,-0.0010423282616282836,-0.045645770945427225,0.22750712065838138,0.08564634195541238,0.15714050013527722,-0.046375802470736485,-0.17821283516188968,0.16406508615399373,0.08882592162550607,0.0364929303558648,-0.08540258144881613,-0.04991151004531776,0.10365094174297981,0.06470410103500185,0.17767015525881358,0.17081706305630392,0.09747116128525152,0.07082352645744361,-0.004579549258851901,0.09924667581062965,-0.022347014850413544,-0.031466600667968025,0.04984788123731283,-0.14676567567749152,-0.07518846743828654,-0.10635106381100985,0.09622705035752258,0.0403454686371836,-0.11489445630381334,-0.044298949184266606,0.08311120725876142,-0.023759491628372518,-0.0016905577829512686,-0.02003684782576989,0.1646755069321087,0.14112588934247502,-0.09321654324870939,-0.18263472369780104,-0.07838492799913521,-0.12691653658665686,-0.021674534702342298,0.026713412314268603,-0.07104001447558606,0.09975593452403778,0.12888215711775552,-0.016378430437252067,0.06829591725829304,0.13522100836817816,0.12004725953079053,-0.12741292304866794,-0.07678547173571079,-0.05607789466192619,-0.06130014767125232,0.04420363961432343,0.14397784750986553,0.06727180155116178,0.16816418326465368,-0.027052484827062004,-0.1571575358503871
112.2468490600586,1.310699462890625,-0.15787188624401371,-0.195112026861789,0.09901781855615559,-0.04020866820284828,0.0615617629088782,0.090527487727296,0.03749961532631265,-0.16267733624463454,-0.02661746142240437,0.03703106270655681,-0.06350264735938925,-0.09806265327861836,-0.04083610471939407,0.008936120758062776,0.010653899414159252,0.02611513845067627,-0.022110867505598278,0.08921022349553782,-0.09106299259936103,-0.055760747949634676,-0.1627292347241205,0.11139335646391652,-0.01816645715842725,-0.021211953077532972,-0.04368931304320953,0.07905871999783001,0.11477775815632763,0.056168049941961534,-0.1474101026342125,-0.15735701951679315,0.10438351808572488,0.213494922355372,0.21611125679888699,-0.011709779757566189,-0.3246965867614223,0.13838832284280764,-0.009166572683821267,-0.30390107911597786,-0.2560552192172583,0.2268814862405769,0.04363080212095387,-0.15079798246154458,-0.09878931523979283,-0.495692111309039,0.20607014099349152,0.014196756432580221,-0.08249436643528452,0.15760195711438682,-0.15002050147200868,-0.12752270512425143,-0.0798415863367855,0.21056817237814607,0.012705468564162797,-0.12292923853374695,-0.04166040864283073,-0.20679306044010068,-0.24791315672965825,0.11518939184946146,0.05705644668544525,-0.04071389157148905,-0.08187314924575044,0.26493792566912683,-0.08528210593304715,0.034012956756588136,-0.07803247683215814,-0.11717232168294997,0.02120834516801563,-0.020132672073181403,-0.08248059729224062,-0.11538879617493517,-0.1943455677465486,-0.09298848357664488,-0.30162492930755347,-0.1438362081847767,0.018506625350825954,0.07382349220532232,-0.22704329661224715,0.021937931873365568,-0.07111174603202824,-0.07927427617769325,-0.1548400908112042,-0.10746229032303292,-0.08012953240590243,-0.09791656881517442,-0.006300060396170612,0.09329269676753218,0.021871627580711477,-0.10101487937148056,0.026207623014409025,-0.0849789900851501,-0.02796380888771805,0.04779515168471458,-0.010968276813499036,0.01748135509908831,0.09414914170060584,-0.0012592632076447174,-0.06472740340906274,-0.13699897739922057,-0.11453761197408382,-0.09624386479489762
113.55754852294922,1.2519989013671875,-0.08132876369575959,0.17459833323340906,-0.02960000812298666,-0.053785266500547976,-0.04346570446844905,-0.004154746520299685,0.026201386448140393,-0.031562571177762504,-0.08788940769609178,0.10058770636836008,0.06977417189331021,0.09662640766321433,0.13765881706406782,-0.015083586439246652,-0.05634976179273977,0.05406619992559097,0.05495782155974188,0.0760572365931497,-0.033492512283488235,0.24627789485948576,-0.10389629664567393,0.022258655687399504,0.024561409611033726,0.09469400014843847,0.05831549292033314,0.1590909007625081,0.16570769871847532,0.3043177515087249,-0.5404204300782671,-0.32587982466572174,0.13364105740689466,0.004403176134134027,0.05171275333126442,0.1511965101609855,-0.065334806555451,0.1077499959512573,0.1742486862669792,0.1508100614517166,-0.030806568773164667,-0.052503031644208165,-0.10774643128816731,-0.04230673912885092,0.193295207506315,0.10095546929567147,0.05615654804575857,0.09659128465859737,0.017166158254728323,-0.1514772283910001,-0.036658834455400406,-0.26223267516022286,-0.00044680852591469014,-0.01612445947815863,0.17649697235513695,0.012808564525976084,-0.025403867383382114,0.11846423130996839,0.24083027362203782,0.10656186649908475,0.08986553014321143,0.007914324341184702,-0.056327689821380394,0.019582688885870156,0.09037288791959656,-0.08785477627176838,-0.1931414515878495,-0.2316040834174451,-0.002527826519033094,-0.20668562979650468,-0.025814831354988216,-0.03861767650497291,0.13688322152694776,0.0702066019943212,0.03464291849914876,0.15398175298427455,-0.05930354200385227,-0.16092969321264494,-0.08478357395582388,0.14853022617651296,-0.07846629096331356,-0.1890008697833917,-0.10425036163537438,-0.11795327664783711,0.04402684799421966,-0.08627418381352336,-0.06595235826263354,0.1400251014307893,-0.07711249100206014,-0.06641450020179993,0.000893720741582435,0.0385468806235171,-0.005488381017854965,0.03059105655596777,0.03741132231219391,0.04555450517946927,-0.036011249828784474,-0.028914080511270625,-0.09160985799975332,0.056829483857094305,-0.07661940629508873,-0.1953784465603523
114.8095474243164,1.2913055419921875,-0.19420370213757682,0.04877670729005564,0.07031481145200713,0.046087048632245345,0.09442971731444266,0.0016439865606199065,0.032265271999852276,-0.4227156967859751,-0.1929055599409164,-0.11437542558213001,0.10545128309255428,0.02054472472570595,0.024274898461595612,0.1562276688032242,-0.16348093407100692,0.04180099684657271,-0.011909717276561786,-0.14297559050030512,-0.026720882962712588,-0.1535323342078191,-0.06267335770349823,-0.0030055772567870054,-0.06757740626196798,-0.08348664121800564,-0.08131821805397015,0.0675594758802715,0.08066015543109435,0.03867868707063048,-0.1386637575751099,0.03513691381381514,-0.047944007311062055,0.023010045506181694,0.057880546712598555,-0.0713773857503727,0.04944457567538891,-0.06447000766412893,-0.1575202970890931,-0.19513732229758574,-0.09044182767216531,0.07029593712912183,-0.23100762035748543,0.013607701953821627,0.11344427678971981,0.3083972967700367,-0.11175505096470775,-0.096202935789861,0.08632457902864613,-0.02189171044647662,0.19263951318962808,0.22592428364748257,0.04808923739600909,0.07633518427358882,-0.18033834830149487,0.0058820970114464854,0.2822291169177089,0.06604720988701984,-0.20303424556307578,0.05399813521321025,-0.0057939881833125526,0.10914599996521734,0.027464788183930496,0.11072399597382203,-0.14985264173884102,-0.05498138671062998,-0.18674174672124144,-0.15421977363341716,-0.16762585807478758,0.09882320925474253,0.2067817169825753,-0.04569764943131641,0.08963835956512109,0.20164788828298616,0.2063885295946163,-0.14667997091186155,-0.18688930845574753,0.10161447770697453,0.04964692801182541,-0.1199448436627168,0.006183192371045737,-0.006977509100745238,0.09327275212082381,-0.11126219311610927,0.04636279224041455,0.03380850461390547,-0.008062425336835717,-0.08817136102557088,-0.020267534629196657,0.07553945508774366,0.08314654185079762,-0.007100622467554362,-0.029053649897195014,-0.10574007390513519,-0.16005989563290152,-0.05609588792244422,-0.003274041117089392,-0.11748488314616955,0.030612199982659065,0.0667574853448196,0.06368482484225912,0.00881094024654007
