start,duration,0,1,2,3,4,5,6,7,8,9,10,11,12,13,14,15,16,17,18,19,20,21,22,23,24,25,26,27,28,29,30,31,32,33,34,35,36,37,38,39,40,41,42,43,44,45,46,47,48,49,50,51,52,53,54,55,56,57,58,59,60,61,62,63,64,65,66,67,68,69,70,71,72,73,74,75,76,77,78,79,80,81,82,83,84,85,86,87,88,89,90,91,92,93,94,95,96,97,98,99
37.464698791503906,1.1925010681152344,0.09562426931970881,-0.13465966635197246,-0.5462918103202662,-0.2808307396587468,0.37775128551454307,0.36044825754292065,-0.15012711920082078,0.28927856964475235,0.5747163783542094,0.3527214648938426,-0.13816652175354263,0.1591555979038743,-0.12274637530876112,-0.02343624067852091,-0.0022742378258266043,0.09755095398388866,-0.3151160702235879,-0.05377258826682566,0.09723625331222703,0.110504664873842,0.0813868813891076,-0.2524856662140182,-0.043584207602640784,0.04262245786614696,-0.04127202436129698,0.026758656885954538,0.015188744349844867,-0.07807709120606379,-0.1539842373690523,-0.01333585860233861,0.0766023892198307,-0.1459684720607046,-0.1087119898479696,0.043828957281090944,0.0016613418871008548,0.052407345926786086,-0.0304896555073262,-0.17694477116070897,0.1058672309702812,-0.08338955605578365,-0.14177068728876144,0.09103660218169611,-0.10767376314755879,0.004815623537010856,0.009783703631156604,-0.001961615131715312,0.011834942730818906,0.027975614419371686,0.0762312596110259,-0.06510612016207729,-0.10396446137109905,0.05267161395405185,0.08014553379141665,-0.02948112502536195,-0.051668585611417524,0.037311090633095276,-0.010017121219009287,-0.052891382480815846,0.006775341973107807,-0.053186293654837506,-0.0738793751139869,-0.0465228387816627,-0.19316366376615401,-0.013588467887316344,0.0063828802635224596,0.07090521251051843,0.13299332741273984,-0.06059778347939768,-0.035578229841299616,-0.09224306170554125,-0.06839156858992176,0.020957668663661333,-0.04650840312551993,0.027344025997728158,-0.016422060599947514,-0.03999301396884016,-0.084444722547542,0.012304536123726372,-0.024474669357137283,0.04881295147209665,-0.029935882525147423,0.012108204570636483,-0.1278604607428367,0.02272753840601096,-0.031032841383738137,-0.25489262822845843,0.10579630068367396,0.37222813408149613,-0.12020648149745283,0.06529101726717693,0.03288934514976465,0.2773215879932832,0.24527601724998135,-0.21453741723121747,0.1837433127319221,0.08462865679887413,-0.2768762303444713,0.03904472575159176,0.36368850251981877,0.026307025634335717
38.65719985961914,1.172698974609375,-0.018442846243578864,-0.2641161199856922,-0.11125350176457889,0.07524641008848032,0.24701994843846004,-0.04142109798273536,-0.2778087173658346,0.1524340670185883,0.2390651731162328,-0.2742276420929619,0.03269171539179426,0.02061953219137575,-0.08054065872216123,-0.11401224188367644,0.01564436921376884,0.00467244382598735,-0.026730167289942177,0.03267559305136243,-0.06214214341334758,-0.05049226680336765,-0.12645966437637013,0.005736908745340004,-0.08154690477256313,-0.10897105730686352,0.05631540494541575,0.03235438930519151,0.10765631908951817,-0.07881410167128099,0.09564895348840957,0.0017380817473997556,-0.04065801183934523,0.037114412888994516,0.004083143324995108,-0.08744450463585177,0.028078296598917668,0.0861829292548027,0.015619798612134639,0.06334182247184962,0.03712502118256941,-0.03127111804209721,0.014985385995512121,-0.07359577773596698,-0.17802989892229237,0.06661987399597138,-0.17044703287261276,-0.14247503695685299,0.051601825752218736,-0.3745176712618121,-0.1720553401113462,0.004548434639329777,-0.10437271640157711,-0.010420169904957017,-0.13491561132894322,0.01912376569826479,0.17910340588448875,-0.10716708939563438,0.02621093124999234,0.017714569778942185,-0.04085728328509776,-0.07223746241694551,0.0014553798163666198,-0.09853764209841162,-0.09603078916975963,-0.07280567929685393,-0.031921347498361285,-0.05682007998431543,-0.015069891157233695,-0.10188453194077177,0.14761925219329392,0.020878568912772497,0.030739653178652005,-0.005825874089285209,-0.01831039111454104,0.12714728910865017,-0.00014422823471412632,0.030569833163098144,-0.11694774216142324,-0.03098948688097404,-0.04344941090100686,0.11155532094483595,0.0838603426896855,-0.0006283555919341165,0.00042610960676617987,-0.0739947380635079,0.03821623133991047,-0.03654333722306756,-0.1277315892967742,0.16115242170097194,-0.14894468819625178,0.017975890159633266,-0.1304003901651622,-0.07052075316766451,0.1487762832287174,0.18803158285297084,0.06914637602923535,-0.10481960055657755,0.027975712877144294,-0.13474189474751444,-0.2077441921171731,0.33907486854991314
39.829898834228516,1.16290283203125,0.4586198567850528,0.5216411403125685,-0.6545442909478615,-0.05242064141079156,0.2093628627609403,-0.3323169916709237,0.15688384569984185,0.6290209190185356,0.12766045474034518,-0.2245901523486991,-0.3228736090270418,-0.2529963061549042,-0.06852422291519447,0.06046184962342567,0.11207024071188455,-0.15084605644015908,-0.045183729774428354,0.3517542338221618,-0.16004142063372112,0.2787283146642422,0.035176723809706004,-0.12845560453610955,-0.0009034575113081589,0.040660038940529414,-0.01848743669798277,0.0233084859497319,-0.14003514641306947,-0.06222283301392895,0.03646422093335175,0.18048120045275035,-0.03106211019301474,0.09864603317824037,-0.01679362425331954,-0.019143290491097725,-0.02739124061596168,-0.07831751392427398,-0.02183911232572701,-0.03813885582980668,-0.020923641645648305,0.050971466041052904,0.09785546010265155,-0.07799411981572266,-0.04228475201643387,0.03815755116628581,-0.07525081155830768,-0.06753809168964009,0.13293290886506293,-0.06169770526994094,-0.025392748981881593,-0.03900379029696824,-0.042866491780285676,0.01387930888778074,-0.029240968118396257,-0.05006629694543907,-0.03745516594527024,0.0551733020355768,-0.02959942521628703,0.1167103905545982,0.002551000453098057,0.0019535642100770617,-0.060810381834525855,0.016910369808703536,-0.1293066317021018,-0.0016825427590053885,0.060419837044690956,-0.03969846839218597,0.022802102766495386,-0.24737725575949818,-0.11806486841374551,0.09295063284206306,-0.003614660666495109,-0.05737951221222246,0.007915242355935033,0.08504041104739028,-0.04518124961983999,-0.0064989707154641495,-0.029950679550701954,-0.04424546120378123,0.060517811766048035,0.028400130829514834,-0.08737808810155333,-0.04998728395109563,0.03827366355848516,0.0413282873979012,-0.07652694067894189,0.06290957476404577,0.07999869971742371,-0.13640113802444778,0.12250123051509805,-0.01834353555412459,-0.19035088908549633,0.013789386743689222,-0.3513398290439792,-0.6080639892026959,-0.6425485409194011,0.25481673337105637,0.8459383660764335,0.204070250104018,0.36308261204843506,0.18490963679684774
40.992801666259766,1.2931976318359375,0.14901040318824896,-0.08413699487828469,-0.20463432470435508,-0.008205403298196912,-0.16865271549436606,-0.3012496787590392,0.017517844992618187,0.029407025066511445,-0.3823884463298385,-0.48571559246046214,-0.09979619749557267,-0.10945138673260554,-0.019626808499169524,-0.06778729733583005,0.048666002844780995,0.00016236297127933397,0.11943033359994754,0.03091503262607051,-0.05153715571527554,0.12770504892475348,-0.03079937452283163,-0.11467537348582003,-0.17471005842349988,0.03146656684535234,-0.10038874924598365,0.005694817485596183,0.023538157243064184,0.07969532073990411,-0.015615595626913475,-0.07603533392887943,-0.04803833076091989,-0.22269731062317988,-0.03094847204297897,0.03566884920574253,-0.08407320417216034,0.052665042952885224,0.16148002752515292,0.07000896520401365,-0.10273259964587864,0.04777192476990007,0.18851997113959987,-0.02728593918626974,0.05596369609676015,-0.039928183561762656,-0.059993570215570564,-0.0674121086741803,-0.02317312112580184,0.21351539224630722,0.06277215133608316,0.10218073775321598,0.06307513171889292,0.07116152335121008,0.026371656125363234,-0.041151356034393446,0.044568827601726174,-0.0024271300921498637,-0.02521273953236512,0.04238806003452437,-0.019112663250543553,-0.04119801970776191,0.0381765636910191,-0.07492595557699847,-0.009541469299383676,0.022905225767828385,-0.03490612107834566,-0.1402722899129777,-0.04001661242177171,0.08040090724619217,-0.024490326679205116,-0.041578887844097856,-0.03705492578905685,-0.013421380344129187,-0.02420390666983873,0.05692937299478758,-0.0442561772617538,-0.10659372498152166,0.17295196055438947,-0.005252997193508451,-0.04402714327007682,0.14744843284988424,-0.02587292742995002,-0.08673370457082968,0.09095384905967735,0.021834147701833367,0.05482618510530504,0.10717549072344117,-0.28234033340344294,-0.10477862205214836,-0.19581336815569872,-0.17370748332830646,0.006700213596851315,-0.0862777476746546,-0.21034304760810238,0.005161954079524647,-0.46965296968122894,0.07195569493722433,-0.07951907985164404,0.07675436604651031,0.03287324891278891,-0.35818412682721024
57.38119888305664,1.2022018432617188,-0.28212322334917805,0.46045103935822645,0.627913295255146,0.08293426219999221,0.4485888785429816,-0.4356953529182811,0.12327187108317882,0.43948249120460064,-0.05143047450649563,-0.18464950836629282,0.10340944074111261,0.27234591618287407,0.12115572870524083,0.16770196029025528,0.042736356357232774,0.017314386496314463,0.040035508200978766,0.1317678910811199,-0.09610761540364408,-0.15994552414030752,0.07119706874859696,0.08703793272778694,-0.013758031229434288,-0.24292054897177656,-0.08833659185814152,0.07118022580221219,-0.12477964365317055,0.01417765432823118,0.2969780045037787,-0.03494688061649992,-0.12987461468046135,0.13992534387639077,-0.11271568848019434,-0.03202618378474733,-0.0017338059754464456,-0.06715530192708731,-0.041988557885944355,0.08326376717511524,0.08050395861346532,0.059796566611239076,0.012826564925702822,0.04015427653328665,-0.0671821821745281,0.0707724678218764,0.08183639573474219,-0.03773967589476969,0.027853293714808592,0.11574109284694785,0.004107268894505365,0.19851570396211993,0.031715591560735175,-0.08807658011418809,-0.05805879973146426,-0.019319884372158865,-0.02488247847120483,-0.01941162501858563,0.02669064506193003,-0.10137127605032367,-0.008732947681270642,-0.049746072586232086,-0.07316411010125873,-0.15131003588547423,-0.024856688719735322,-0.05505978800157386,0.047495709683585886,0.09517123937214643,0.29979853379616456,0.12319596498898995,0.012516361891490364,-0.025236380200154857,-0.028277802305847304,0.04439608253848863,0.06087026565444199,0.0020101553760355226,-0.05583973591057875,-0.0521801220046186,0.04378775698806314,-0.028789170120535952,-0.09705839767036577,-0.1659288126530527,-0.1622888304360769,0.0871106276405469,0.060025305208398994,-0.07240360747351611,0.040006154227238216,-0.11988429212563709,-0.14612511528555397,-0.21597930031460455,-0.08985601207445303,-0.014424892224304087,0.03099866759262478,-0.10504991296109478,-0.2403930705099237,0.20888387887701382,0.6993525120218799,-0.1280735285034218,-0.06796158143494738,-0.04142308709810058,0.0032662582527779854,-0.016703055590304827
58.58340072631836,1.1833000183105469,0.08103000399381693,-0.12222122048965889,-0.11621369990309374,-0.11118661420486382,-0.12312025255305534,-0.04104016182171494,0.05419734503705176,0.41742650271161996,-0.22976681966872226,-0.12067218952265997,-0.1786347665372976,-0.24751107063444036,-0.19337507337983864,-0.04514266996249214,-0.0626963494837989,-0.13717065001829457,-0.14315466033361712,-0.010301475513666114,-0.031223292860944492,0.031851646831216336,0.03563937374885551,0.13889720015822327,0.03739707159301532,-0.13239072966875853,0.03909179661454106,0.2290265913829347,0.059307978137703214,-0.0069987641173768515,-0.10434460276445262,0.03837869919257342,-0.053539558896946685,0.021353213479401716,0.012950089066111226,0.057731274602589915,0.04758355472367663,-0.06803192174961432,-1.9146308342654628e-06,0.007406667787374451,0.05741848936858963,0.10328600420141389,0.032619009060272396,0.07454385253168806,-0.06453349674130848,-0.07327498914015693,0.007757682918982649,0.036455439448488045,0.021511670063990983,-0.0382883846000278,-0.060071321010520894,0.015980164648774567,0.13536116032406523,0.035923447880789494,-0.05996263105920967,0.13645099842871997,-0.05842596474654143,0.008612138932604978,-0.08992537412707843,-0.054478377846644555,0.10127047107458051,-0.060433310299096654,0.0445810861917022,-0.021758195873449057,-0.2443101791335401,0.13700701029718906,0.03472987296293992,-0.09325134275053096,-0.043409564555389954,-0.021255707180786974,0.09730821576157173,0.01659408564236846,-0.040585921529727495,-0.05283405297978745,-0.05036295642298764,0.02306385022593002,0.09193294383877812,-0.025195088191557594,-0.03209816492283947,0.15323441697429754,0.0485850518104807,-0.02506446032946027,0.01570303126576164,0.06653639978070122,-0.008706660357013049,-0.10163061917991323,0.022761062883499418,-0.26543084915154896,-0.09409485450946833,-0.13877059348880916,0.03374130524715163,-0.05967583076043422,0.07347332368778337,0.0417871031702031,0.5778605460672748,0.19551671253437417,0.34154584139487953,0.23032583745807658,-0.246495552102173,-0.3566576125243378,-0.05424732903133597,-0.11865787633492456
59.766700744628906,1.1324996948242188,-0.09489083767666688,-0.31938860436903077,-0.19056044611780398,0.1942255683558543,0.1477173613535764,-0.09280590827414675,0.2602393744228089,-0.29030269284539506,-0.23240799777265975,-0.3417529212798432,-0.4437152911184451,-0.40226105182922595,-0.003925915413322448,-0.07498482093883692,-0.013427345659132154,-0.23877952647774348,-0.02774449792381821,-0.0981679051263883,0.18313482099056422,0.033624680130462214,0.11690099698375792,0.027224057971800657,-0.09321890107364551,-0.04727131366925158,-0.03186485143519721,0.026568032702241264,-0.023109431393266038,-0.08008607256257266,0.04984428665177145,-0.17305811002212468,-0.10762305647446421,0.05131131080017107,0.0680198999526516,-0.037903066204947725,-0.03641674345955284,0.06467740041676813,-0.07115141936732645,-0.06748724262495505,0.027223117179128807,-0.008733393437074561,-0.1183580797592221,-0.10570257330606068,0.06933484554675996,0.08815576094868321,-0.2477148293350271,-0.03913861165175328,-0.1441711929928139,-0.041859304162057916,0.10099091442405292,-0.13246237994532553,-0.059738621735033026,0.21370838613174464,0.009104758569792083,-0.06036043809565842,0.022771265697250298,0.02688796221596592,0.08629188417906469,-0.08449909451491935,-0.00047993549167275017,0.11271437012764086,0.05765540335850921,0.05787477809245492,-0.03928830063336313,-0.11253620799058014,0.05838143838783826,-0.0023970130185946674,0.15618789820748785,-0.09362451659494773,-0.020142518489252047,0.044582978181942165,0.10078534341666687,-0.044610280038158166,-0.03374016700180926,-0.020920077257882197,0.06765577832435504,0.08181992447388688,0.04156323264787023,0.02699963357005354,0.026850681114510642,-0.12805680097146327,-0.023659877902747792,0.23689292634361492,-0.09123983930843904,0.10912379958299798,0.019030340568987062,-0.056789226189859064,-0.0030016586943837353,0.036758154211099056,0.1636286800494537,-0.11148247886755412,-0.4483443755015416,0.04531722043929715,0.046755092172612506,0.13511677935851107,0.05004376722602856,0.2660161359399958,0.07445573620528005,-0.18697655075266784,0.019586030087259686,-0.13669554767644757
60.899200439453125,1.2527008056640625,-0.10602662326802323,0.30427507163772727,0.1552337276555712,0.11761977140346913,-0.154164578249249,-0.14654384568602885,-0.03927436835732162,-0.13657788942631438,0.08591898163398845,0.18012983907950825,-0.1406867182360073,-0.45430494639785113,-0.17594605627822701,0.16894447728942047,-0.04471259716230483,-0.15427786734700452,-0.1953918182701522,0.125028462075657,0.05939712346459001,0.10725822729526532,0.14795364179905884,-0.11355958966438387,-0.13300991008989813,-0.08591781066545622,-0.07856433776052832,0.03135238792659147,-0.16840621607701656,-0.06153246594708269,-0.009271194280465704,0.24222268483149245,-0.3199927117615017,-0.05039541456460293,-0.016581033887864863,-0.1339309290104955,-0.03142612556132687,-0.07996604558937155,0.20097135421066648,-0.19902406157956531,-0.046337854482775186,-0.10092043069629131,0.0857437539362952,0.16239241313323335,0.0990492056999859,0.011884040916982884,-0.00927526683274086,0.07962091419498588,0.07187550896799177,-0.018975184209624893,-0.04217181669219963,-0.012517726813689123,0.1747093915968728,-0.003473634215029779,-0.0678616596803377,0.029998067255205832,-0.01745824405101559,0.026367422917575833,0.045876856647191905,-0.007146726657431475,0.05127247131850691,0.013705806833703364,0.19947597237396272,0.08803130285076471,-0.10868424536685029,-0.08419974395152159,-0.02639659658546778,0.02695762991343837,0.11994124217246954,0.09642772616819023,0.03057382353078751,0.08722402056085028,0.02566735865521812,0.07959751516826111,-0.023780658318333522,0.01160001504709092,0.024060582439305648,-0.1386613632321777,0.07397810772106066,-0.12117765344543457,-0.2421429690124205,-0.12368575494760557,0.016935137887912025,0.18189861028079732,-0.023304484398848142,-0.16357229569233964,-0.027659943697149296,-0.11319407297239897,-0.07750919483391888,-0.041890002466077145,-0.04757831199458306,-0.05463259540621061,0.008978414357183403,-0.13996663577549406,-0.007275565933102288,-0.7188448192306222,-0.053660353338408656,-0.18832524660514155,-0.07783007292989774,-0.007794053044713206,-0.5329624946595757,0.2229160208504874
