start,duration,0,1,2,3,4,5,6,7,8,9,10,11,12,13,14,15,16,17,18,19,20,21,22,23,24,25,26,27,28,29,30,31,32,33,34,35,36,37,38,39,40,41,42,43,44,45,46,47,48,49,50,51,52,53,54,55,56,57,58,59,60,61,62,63,64,65,66,67,68,69,70,71,72,73,74,75,76,77,78,79,80,81,82,83,84,85,86,87,88,89,90,91,92,93,94,95,96,97,98,99
50.713348388671875,2.0422019958496094,31.82693100807487,-75.23826770141538,-23.213305332955574,-7.512787887426708,16.120478075049093,4.364202156992999,10.56420014410087,32.677213859883864,-15.459552309169407,-25.79038430959297,19.19672693155716,-25.921256098002495,84.42258283053181,-75.33493000452057,-60.956332033060065,-103.96726649452084,-100.92484338721606,87.7332697913974,117.94276405287793,-10.968230594150276,145.88759026582616,93.09659538716036,194.71913618903574,-380.75978790637186,-95.23862130540975,31.404813301407096,35.0574206761017,171.6483546030832,-23.972601148038052,-53.085148080645745,-8.95850001867395,76.43402924680703,-162.60747978297525,-88.49110795148623,33.779109987166485,2.41715936333814,21.079798609311915,36.51481642410347,-8.312827646403544,-26.61216302057157,42.65553422231925,-12.516673122786294,-92.51772973925985,-56.64989542768151,47.5709509338873,-69.06804812411622,2.9786408335092154,-97.72804144685574,-218.13353360261664,91.53555210550913,137.96305768181494,31.969811355170307,50.6927666933317,3.9493925036282604,-75.09943102388443,-24.3175990264828,164.2452153692251,-31.473603716287446,-12.842351549974666,-48.86102989495613,-68.60583746919181,-18.11336047919832,-82.44617087364003,-63.189993592851835,21.331037757810392,-5.178043166743312,-0.9273725924523243,17.667283923692985,8.41150666136205,-38.16468131418165,-10.85221101114405,-6.972352554044995,-15.40711629960383,-20.406283260806205,10.831643997853575,21.711070255995573,-42.10394968196478,-23.252805461427158,16.144452869339,-28.16626412088268,2.4928049886527845,-8.327565083139639,-0.6800408262904456,-5.0514395318459355,-10.346336482319906,6.824451993484115,-22.517195304810496,-4.857957295670409,4.659774127603058,5.979611459609714,-26.00858255191878,7.673186636130868,7.343400239389651,-2.530067266706823,41.897278990052115,51.893903730195376,-30.79639673166405,-16.877017074017264,-38.36080634798067,8.741517851515813
52.755550384521484,0.7105979919433594,15.583097487279794,26.620669126838994,3.8664463374045885,-15.829587519283432,10.878235143337474,84.3539539398383,13.033118336133501,-25.68204093605713,-13.02517710328785,-96.14137355018184,43.78889550062757,-0.550814849322995,7.0446229393819175,-77.02123909367037,-206.30398914967358,9.023955986075922,-102.42531602682764,-131.20977087167518,108.74203947022019,-104.63483638117614,-201.99886315838074,121.63264262571279,93.70393337896317,86.62436138449459,88.50563795364202,-75.0788546999099,-77.93035606918413,97.86686151301758,53.639241515979194,-32.6702266754142,-79.01358974857254,-29.88963553421317,47.61346549662797,-124.07836503970123,33.20856714575109,48.379044908561255,-7.01378832800907,-14.934747294192192,1.470984816033976,-74.66191716456099,25.072386606390918,-45.46481324728363,-54.87232608958774,-43.55893622428331,-26.904328012085507,16.031712389426527,-31.262041219894606,-189.1666878457025,-114.12818013516544,13.675969112111089,45.32974833155888,-69.42584885467022,199.00763738999248,-7.680300372818383,65.30194508364376,-95.12720489328673,97.24579916996247,23.47385333772514,57.355323898624135,-78.07296182627994,6.21372880643851,-35.00554620055101,33.47700224872475,-99.58596188476517,-36.653935463513506,-3.0384677200777177,20.982579513802456,-2.769196134711484,-21.685743443013106,42.33735685345073,53.145589092964556,30.495409790414747,18.99091864675222,-3.2118407928273065,-4.513705591028568,-10.645030421168713,12.333644722626122,2.4006008321212784,4.541323794564388,2.9701110866484424,7.779772470159918,4.630868841557232,18.472415773909,2.8852367465500413,-16.942537694357,-5.343442790802142,9.179967961721163,-9.185174510449077,14.856207013445339,-12.08371862004191,6.169785958360253,40.90684203939237,1.121658170406411,-24.175041934409233,5.416890638497022,8.988297456063911,14.525497017907314,-47.84281867836102,-16.487029561227782,23.351554352361056
53.466148376464844,1.2817001342773438,16.07435926953371,-2.5070016024993294,-33.45978625118648,10.518890163916188,-5.914636768680689,-24.24896364962249,-7.864884583380117,-11.656518286849993,14.775225418705228,-24.75271665389442,0.8631131012956899,24.664227110232385,-1.4946269136585428,14.324040065992751,-1.326276993138237,-4.866579964473585,-1.6542528802808654,-2.439243430994294,-10.9418610515496,-4.667614792569914,-21.54641124895269,13.665896602615394,73.00820701589144,-41.64305953526849,35.01114209187143,-10.57245522467072,-16.62570984460126,62.038383845494344,-11.398352431381714,100.26344561635354,-109.80647738328767,55.98784611509142,-42.25017291532015,24.048466406245446,-89.98088059424018,58.36324012097974,5.291302767056969,-178.03337052216997,145.72251840822327,-115.06136248215313,88.60280622115351,-86.52240990405195,61.75419259162236,61.49540166756025,-77.887202290785,-39.167386144151145,-12.900040606488425,-46.71176243040681,-10.93305026923231,130.25008415895883,-101.39801127040242,27.745079982222883,159.91952270153547,-250.40404621905216,138.84522229534588,-36.961187241792345,-29.487141726113716,165.6315163898772,-337.94993507856134,157.07100465654347,-207.32508639842084,0.8811038509751761,-6.195090587344071,67.54021260259894,-12.44758895710726,146.02326865379968,-44.56393566860832,-98.91761325221776,90.84485787436344,36.54118728686605,-77.58116298270932,159.4865590287355,39.35925785835186,217.42512912461683,-162.09043675330702,138.0325039828642,-67.33538605879096,50.4698871643132,30.934166967813013,52.74280037032002,122.7082182505008,-86.97355371691894,47.51677147496638,14.776416122948675,-106.8865421525601,142.02974817620577,61.494780138029405,5.998377503457954,-84.22795195194936,-18.63102335144309,26.975971872102118,-58.91148585282573,-154.12278511649012,5.632102540216264,28.427099098648718,30.777389158825677,-140.27149056737915,126.38097766830731,-173.3757517525135,45.91986170880537
54.74784851074219,0.6407012939453125,44.53533513535592,79.89564492631462,7.143281584334149,-49.80071813849697,-17.966255622864228,-46.7554942677949,62.74746563810642,26.72565892879733,-43.78316930799277,-118.02769133969552,23.511468342913634,65.06612622038023,64.94688908616139,39.90563678623773,-24.152066508684744,40.27725971504095,22.026146638593687,-83.40199687572898,-2.2550528940905217,81.26303492527961,-14.20943623082135,-27.818916876152116,66.2574598576856,93.19632175391195,39.78098760902496,-263.918767159588,106.48652516243229,26.8364620751832,61.2149867798093,101.05455257076086,60.73706407491537,-22.9842130847279,111.17903301574275,59.907522053070096,18.047230644764067,11.116119979791605,212.43972653833552,83.39082923109339,-66.66468340695596,-67.18919377187535,95.4343744484296,62.53517955365828,-78.15882983497627,33.76284631809627,35.708533797994846,-95.88061582499542,-85.76474396397235,-91.45237331981558,-13.747171306561054,-18.808052161779102,10.7619271625848,7.966892233427879,12.6851321852926,7.055187451303473,-13.50535267636062,-9.585788254292694,20.490522881164658,-5.548060620736753,-3.4972350237180496,9.499968300709732,33.0883788483321,-25.08075423997501,12.687584254066822,-11.873754603027473,26.869693644167327,4.7985364533396435,23.270679223473586,-4.378859668053315,-12.17266043294236,8.601491410533086,16.607574129676202,5.169121416944183,17.828648332454605,-2.1918214485454914,9.461187327839902,11.517512468587288,9.175682726720918,-21.725164154928045,-6.115540041633703,0.3544762525631029,-1.7641226223247592,3.4745977228883085,24.04980218489124,-7.979445018995618,-18.166643224773647,6.931637984871271,5.285937463758488,1.6233914385705441,19.82720371136763,-5.754895550501843,-0.18138993055817088,1.269909129443442,15.213858919334712,-8.960390927328119,5.028545023513204,59.56709310276446,31.991632385098555,22.077229473737656,14.623890473993674,-2.4465780969945916
55.3885498046875,1.3410987854003906,-8.52561619601101,15.678717762007095,1.9488563580495795,-12.348437652440051,-10.482923261050807,-0.895782861350936,-18.698303559507117,-29.80000208769278,-5.540206599560338,-32.09920399075334,7.585193145808835,-47.95631362342062,6.568721289490606,-14.117340577649303,-16.150541761123915,-26.806790737004917,-55.831258943542814,79.73415200662802,-55.975605150359755,-11.596058731986009,24.600412981598872,-51.81899344993967,-22.905473671608515,-25.191674211668598,60.998688339551535,-74.29946960347583,-33.211640485279545,79.27172955820566,-86.95418663591403,81.82642131645014,-13.455764898008507,-27.837250443492284,-25.662266042045722,29.411724720938167,-45.58025552522445,-18.27895437295328,89.49697877361383,-96.7315236068693,-87.32867225336426,137.43239279483356,-127.5397703922321,-67.23562472822064,120.08666730223607,-222.35656582976924,69.42359517569804,-179.18144351025424,52.98562205064775,-148.68607300691272,-37.16251097037793,91.37809293515375,-153.36638059086889,-92.90056312064556,234.17281591782353,-413.54542834242835,239.13314620894457,-165.40921012631333,-4.909943417771127,-85.61527999854204,5.154635956401528,-42.52242230543647,101.75837509133825,177.28185373200938,-48.99245976282357,135.3193784242785,26.472793196640406,-176.8560107335852,286.18757332715376,-146.64512241174572,21.535194207724405,-86.28295586403024,185.35556532160751,-187.44765641533985,-2.433506627016061,60.90865522868764,-62.18352582668845,101.53310780172981,-86.9239294360351,-11.823234684517878,-11.713877521088051,120.19102389662734,-81.26258763242299,54.213248105143336,105.45817547970346,-141.23313973299682,310.3499990169032,-284.11107864633266,165.30466441237692,-170.40906401805677,0.6794348163535666,-6.218108206660137,-142.64018062512724,182.2132960456327,-315.515027811827,110.22014427435751,-165.20509370729434,136.05995992945444,-193.88942601601562,97.13220105819155,-12.744717012300608,50.077542850451366
56.72964859008789,0.7205009460449219,27.94103532283691,-62.70883931467816,-148.91101856991028,-95.03776088409894,-50.892262409081674,17.496740725245928,-7.8768474959017745,-14.19217663844722,-29.85938741966018,175.3900245355522,-6.754797404005034,-2.9745908671679575,14.688324972852147,-97.18417381540036,-59.407149000235755,32.94912364369422,-7.821986316098118,-29.41001737072036,-57.07909186507603,81.03927546468867,-1.7011366190516932,-26.208587570047275,51.29923471690899,62.52627692150751,83.05704461174261,98.08259471724848,6.3255749235642,-49.13225668783511,37.82403860682125,-18.5087139923109,-14.434195173003637,20.49897248584316,-13.031478372413316,44.484674753486296,16.831065537326506,98.84160208105774,-24.939269768583586,9.30103895832653,2.1336700950104195,-75.47482113693337,129.98726658584107,6.204279744359029,148.74389242731942,162.37175450960427,8.880042619087671,83.71976162470413,142.07486154175018,102.768477839169,12.393277398617048,-69.3444468944358,-19.10676038276558,-26.275747264817134,12.04494280643,22.512172481010502,-7.834611733972578,-7.259271894553197,4.2450458512571005,36.08212535660334,27.63365984064824,2.015746562048351,-14.71318027113694,-43.69472331899317,-12.951592049398945,-4.947758335605591,16.270134367056222,24.304270478872315,4.786763401936661,14.10249718737957,23.059636996894376,39.60099001353843,-16.827368746164634,16.713328305155876,-7.275068390173067,17.681580045453263,4.397864636078071,-21.480905025054376,-19.948345529584156,3.2229618639479947,5.9491044415189736,-6.7124660794743924,-14.384875729249085,7.514597436051757,18.471202633309723,4.432339754948655,0.45230103244092046,-8.980081132382658,-8.577817271877276,-16.156742504957208,-5.809567507656325,-13.509413412303864,-1.052873749035701,5.7147343675670585,-2.91908886583466,-2.4359643849468493,0.5874110840235036,-7.47747785521973,28.18697308450549,63.98251387396139,11.863817603871958,-3.0406485019681178
57.45014953613281,1.3516006469726562,0.6649823668170605,17.812946260873233,-3.3610549771899896,-5.612268850164769,28.117126605854267,-1.7973848186676231,1.533736784497508,10.465843022965016,-14.67428403048993,21.39362271906064,18.113589552875467,-18.742112058961915,4.117712204844674,-9.984454765980665,-16.329651582706415,-66.10337814389234,15.972877344522864,-18.35115583526579,-6.405989459391978,-3.8763127090566627,1.6780643352766305,-7.784189288700211,27.859602567635438,-2.3874948517436305,15.917222237414814,7.970629026763408,-2.1371614337382336,-14.278971821314423,132.6540737595853,-264.4824695597029,159.5492345952799,-186.27444783110113,126.1648203064425,-77.91578047081703,39.16268030078045,111.40694465736706,22.636389341881557,-81.96830167483368,53.26333443646733,-36.93008010947467,31.484462848082003,118.18377786734024,-136.26743063978046,64.24800998753119,-17.384777165493286,-91.10020963801931,-3.7799868773086747,-55.894183129689786,25.69856479274189,-21.506377377057305,32.052220978270654,17.346460671534157,20.4373650966289,129.34312687698386,-168.70302020559913,63.31743412827356,51.59558322484236,-133.6800451171065,118.9258812186309,-90.319296520624,215.08656858888205,-396.1466788306759,401.6828607150669,-127.60067752941238,132.34401867040066,-98.6814411800607,152.58198161615917,-41.534143766813585,114.92731296028015,-267.39708919579516,462.0507102850563,-261.36959657137453,247.90820144330095,-382.3614791661573,221.4219872270611,-42.18768273283506,-120.67933867070288,131.7764475904084,-10.777029698062693,-28.132411664402213,-36.60934592316347,-15.647476066421046,-16.799291365347067,37.705810874484,-12.968752716846902,36.71509129805976,-103.49385490763854,58.61577510242748,219.43197287473808,-306.50424063345974,110.6500942252598,-31.00074593832648,-25.893290695247416,79.90130387416244,-71.19638276923587,27.963013156874883,18.03348144385742,23.214318919919208,218.23135790828013,-184.10981921379644
58.80175018310547,2.0824012756347656,-117.80167623878373,52.342307997906154,55.718389418193865,120.47511773386742,54.079950196090955,-6.908686616578461,48.88557159281996,-28.40054666058509,-80.96181636858577,11.483124538026448,50.28881874997874,46.17181281455533,18.889251028311506,-36.76618034346139,-80.70878699057916,-85.04123535073322,-86.76474520688863,-15.302360574089153,-44.651994129350214,72.24781562225968,20.480802890374044,5.381494802231565,-1.5303674348124496,170.3436517158714,-14.782288327881343,-77.39197565893645,-7.703812611021306,264.5693273133328,44.827303467117915,-228.2961988306743,96.3895148535418,118.6472211047477,97.01041105273003,68.05191971714358,-106.16771479883249,2.8679034811834505,26.97982392365353,56.341316289871095,-140.1053360869201,-92.51522401265517,145.88865676863952,94.97428308701322,37.09803854141726,29.608298288086285,46.158597252979504,-111.24987883441648,-133.90254437530328,-25.82316691875834,-27.763804042356927,8.721595016473035,37.54776457036979,9.021490857445333,39.168741705656046,-18.696217604768812,-20.156872896920195,-2.5865035089249657,13.001611579800697,-4.392128371698586,27.10924515287687,19.361364817479828,35.164016480138955,41.980749388906716,-23.78536874214414,9.742606339996529,54.24054553077156,5.456477803457441,2.7847138000429124,-24.259976726962357,-14.866160683266411,12.629959024552292,-6.30706077180531,-11.56009999293357,-3.63847984313271,-1.1117100037771535,-7.333153746128203,-14.249887176294559,10.336023464593069,-11.146117481046383,12.427775048255722,-4.917266308560835,0.9891397769454178,-20.391638429866248,-2.28969266895447,-1.3247061713277128,13.527023356161994,10.906931778115844,1.5028692073933347,13.79477165875855,-9.870199153588556,1.2447083173467357,4.12380600112984,-6.081766011391547,3.5575715119875455,-19.956123707655316,15.62917569871698,4.162087593878676,-0.2580130712436277,2.6147915927124155,9.143601118627899,-1.8522714251077375
60.884151458740234,0.6205978393554688,-3.6628218370639534,7.8529730898339425,3.6469792972183916,-10.485958583646314,4.350445671656848,13.91012508676178,-26.78494013720105,5.162968854637637,22.202769118936292,-21.846261888422013,8.489664178812877,49.65836711470885,-11.823798796178357,-61.886924044365955,-14.846005518564244,-13.584500083453252,-90.86862376843531,59.99830447987404,-8.180813874248663,133.49162915280658,-39.029373286355444,-60.90846064215008,12.189300041730958,-225.56569863611477,0.6592886749451354,3.3135861223912144,-85.91076778000864,-248.44355244371025,196.08876768689782,154.41327466760788,85.27448900813486,-84.65572169911363,69.00491867635147,264.2110839607033,-4.898416318143887,53.76111971060121,99.00915707194494,-102.5757261184964,-99.9916835180312,-27.43658110014706,69.22543260477283,193.91216115698884,-137.65463381544842,-135.47357117771097,-41.15725770355073,71.00033676922293,40.97378265202911,28.692238268384944,137.81508206815695,-31.777042120465406,5.329107454075616,-159.42930507783547,14.026069346303204,-124.86641367188848,-45.35491802111403,-82.30022997624265,-183.0343612638564,143.95650607340696,-46.88064406656373,-84.58499026801466,-28.74946595228106,-9.410587759338954,88.13176783267362,3.2685613890967176,8.209394457432431,-94.57751487775818,70.33598962237078,11.648004147216811,-26.183119504147164,24.872110718088074,-30.866362283897598,23.592112034166192,0.6889066947394733,-5.8720627232570815,-4.208147801342834,30.22959247240902,3.3793055853129657,2.681455271922495,-21.658334043421878,-7.797023863571086,1.8957618298527914,3.291037200332479,35.72393102017683,9.801766042206491,-4.845163862769072,-6.993209680010276,2.5892447374556786,9.723065809642666,-13.367515297212629,13.323401102310047,4.10761517244127,6.2880117681132415,9.656644813549958,-18.96436080215244,-9.924458989369757,-21.75973993836906,0.1299815743628745,5.188660248132779,-27.392005484238346,-9.3773607273442
61.5047492980957,1.37139892578125,-9.426183206382937,-3.6836949831902674,13.918731739954891,7.100766626590856,11.261305966557973,-18.982403644777225,51.12604426182983,-18.747529383829367,16.67873147578233,15.25328606815392,27.023580381914456,-10.196648804413297,-26.38812577952943,15.553899311332618,-19.555137962787363,51.33029831214441,-11.698702395716964,-31.314246146521825,-18.380541740464167,-12.70410566033362,16.836642268044834,-23.88203843869723,-3.2524405151848352,1.4466344595118015,-5.663320897774574,-7.0287800642465665,1.049078817714853,-24.188641013330198,31.010255097238552,22.247953446897103,5.955562963463743,70.568202542383,-62.53225030919854,46.92069404424394,-23.207592096139923,-13.18216328074447,44.36881022368939,-147.40724390676638,19.898527244626433,84.06242706262776,-155.15572086659253,152.5820670577473,-65.61505969703487,-44.21221920690807,181.32548215064546,-88.98773229601308,67.54870912923307,-38.91278385392545,28.025026467489376,-1.2069901428573875,110.71398158119226,98.4173623742001,46.84015572603929,-73.49783096639841,219.01437629995203,-276.10475358411804,232.52522659002736,-106.9108369703877,60.95037093808217,-149.97350891190436,352.10907192950714,-423.6957573759763,365.30979982943416,-242.4545976342611,133.43795475899086,-104.74715342882482,-0.10475898722263248,88.09155904286425,28.703892102904682,-0.5270657505793181,-4.767023121585876,-127.21915368781507,23.615760675839198,-105.62490875533278,-6.270318707336825,67.89302776615477,-111.07759474426625,146.74486366997687,87.69382985339975,-51.37773732200638,-143.1758761343793,259.78682366181414,-213.2379462556376,154.84735068402676,86.24975716200704,-189.36193714091723,276.5130619591392,-104.6599377419396,89.68713763290734,3.7463839499858964,106.34159126052438,-50.904197847848856,67.71971239662987,-86.05730222974371,-5.869583005577496,109.64188127655949,-87.03782922119024,5.862652201021074,211.96848533603497,-217.4752941370033
62.87614822387695,0.6606025695800781,-194.0440802074931,221.68420722560182,-167.40749579388566,2.9517837918331793,-112.14091571093368,-60.13702621751662,2.4485157134659707,-68.47636330268013,-142.59643460911036,133.6079606426254,-64.12877743203816,-56.89943792714231,181.5076561567784,111.43090178895474,5.773209406962643,-29.45249299617602,134.75709186565263,59.28910877184454,-128.71137845131693,29.538626007538987,-26.676019962569846,-32.504353695310705,-52.84010267641595,68.22526425405051,17.31993187352586,12.09855284218455,-39.686559226984514,39.30860856305346,-145.18967709885675,-104.43063832761648,-80.73894481897264,-54.486326562432055,-55.233741347186445,10.06959041265344,-9.396843222176578,39.552922001153135,19.930103714262025,2.588333723518696,-21.818134241710776,-9.089216314682869,12.526283448721657,-15.203237229877097,-198.5163282259974,-78.49829821939845,-34.47449104434345,62.86378665633694,41.19168572822474,-107.20254605414178,-71.2267741916767,-12.679535932367457,45.893470744293914,-23.441102083483585,-22.027352591952443,-16.684326815586353,-2.047036830052736,-12.092342614459623,38.64108851845636,-2.255798212452728,-31.092759542038724,10.891165390368544,-17.639063778631808,-5.598501281708536,-18.034301950142904,9.861893474821226,-4.529296147724768,13.735480382208587,-9.943492730192345,-13.779317091739435,16.595170684771617,-12.874200108238258,8.104518517469916,-4.452797413105574,-7.31036600152083,19.60479372362661,-11.474638092142657,-2.8620093256132684,3.24616752233828,-6.675235869628646,-15.497855718610525,-4.424354772030913,18.892157059619258,-9.728218202781157,10.708561927703155,11.346221313040358,9.315074625220625,0.6949175891397295,1.7667932869180372,-5.678895616011852,-6.333819470361827,-0.653487335569285,0.7652756665081664,-14.420961220886651,-39.86671965719371,-51.520654748548054,-72.56736832117191,-6.679793536110224,-13.418032114537985,22.56575400799629,-6.525227705985282,-24.97540765232297
63.53675079345703,1.331298828125,-10.165869228632138,2.082662299004739,-26.570907436117523,-11.50451139113462,10.138146931731686,-0.36435212992559923,-2.579053137666488,14.900343156609974,-6.089055085211324,-6.412911963280025,7.076464854496297,-8.08144279199545,5.479129820875318,25.494898745958068,-2.958467753798529,5.293293513675833,-2.3931851802675546,-17.453825567814338,52.42420510812926,5.161517606926118,18.92614724366237,-5.920703996902185,18.847004366519894,-20.165544261613775,-52.63479057615173,25.863823641377863,-30.173081659049014,14.911147657530513,-26.018713760319187,102.39759451298656,-110.51928117849427,42.13167998207368,-62.69497016013547,137.4258921816032,-131.20737244517102,119.72950233133918,-127.52973508136726,-11.900502898969087,8.326198645074328,-104.62079912424025,77.94911309065043,64.36638840553813,-135.4836825137186,105.10526776672886,-16.025195195876577,49.52330502906573,54.21382462013692,-59.516244327616924,-141.7059124797707,193.98916460516895,-247.36369498772646,-88.55031376591086,224.95225922815433,-326.2592092887919,279.72238130417037,-252.87066283143193,-144.51307020007658,264.9745611455496,-266.17676824631553,95.52523483510852,100.75266113309914,-244.46471996897955,432.2705951122611,-429.9149641253981,231.6373554836509,-198.53787133310678,181.4449216569521,-185.32693203069323,212.26948846735914,-56.864293236694564,211.4688409294701,115.18629887079099,-89.25464914552461,166.45066874436375,-128.26568160738816,50.54806723857328,16.334606909639625,-122.03759279270444,112.82646054421926,-155.24568694539357,7.6793160841605825,37.42129907174037,-152.27721850504813,-136.34941580864125,23.71990282724295,87.26086383627137,-153.81314045876658,62.367120866224525,-46.00052164452909,-92.60787708110897,199.05667317571766,-573.5873782789985,438.1728680173672,-46.20845854524227,-143.73327452277664,124.99147789979045,-39.554246079000436,59.9677682441194,43.514635837575945,92.32489870519795
64.86804962158203,0.7508010864257812,136.9647537162487,-58.89122796230491,-116.75239444885733,24.139029854214485,26.882494786544147,-35.3876734303791,-120.37826013550546,88.32323424746073,23.883714628790504,36.63075212190002,57.27746193616434,-105.81300739753162,61.426500286494786,-21.352044652988653,-22.060304001171765,-22.1352215356415,11.848069961714623,14.040386349945372,-8.981547735484256,45.288028626211,-37.24625225415981,-34.316459661834145,-57.6942766861981,-91.17415756634612,-26.916052098436396,37.712724032026934,-68.85239318632608,-54.09608882681965,67.59423581261102,128.21538205996393,-169.65179738359694,119.28582621413491,64.50185035433492,-103.7836127240317,-137.39960840325313,-25.32520114190313,-1.8746210204642089,107.13468453429009,21.05482124482313,62.906139764173645,20.80935870004761,101.59714829434542,-64.79323319734567,41.18557254340604,-84.45740445883882,-64.98881927916787,-43.310214778337496,-3.622890010399613,17.7108977966938,-21.79286624703299,-7.547428940652176,0.5704674221670469,-3.0288950028955126,-18.366555077693356,-9.399044602030411,7.557115460850454,-12.165326800572634,14.700494279748881,10.218673484688996,26.474648277051422,20.180754667014885,-6.851860992108938,10.600996004032048,-6.693527789193512,-94.06392498757377,26.015276747093875,8.866230409020954,20.571972385764635,26.463465203738416,6.332701254644156,-7.11962777232455,5.403581769881465,-3.1121245931754777,43.245861355137556,-0.21321580348899838,-1.3675557938181355,-13.158862961354028,6.549174401212428,-38.78798691243747,-4.552311389232239,-5.088644056650428,-6.361772302357119,-7.457920091314312,-3.054852824543767,-10.571233667930017,-7.659942744046409,9.254365373673565,12.17169055258033,15.175866150333475,-11.39101716401736,9.229703339793538,-2.0358321451230426,1.3773525798187922,-2.4080984354478674,13.380895120923814,-6.997857004155426,-1.040386847677051,-10.892811077336864,10.13170095540676,-16.689015066374445
65.61885070800781,1.3512954711914062,-19.64733834775775,-11.337779164788714,-14.866899693526658,4.405768311818383,-31.927347010728607,-10.577598984337762,28.13428142276951,19.289851486168022,-0.6120071689803597,-14.984540121461382,10.422123685922978,-41.71793106759831,2.5837402268927567,-16.889410322648203,-27.893280875507635,-9.58788029305951,3.9454914741277065,14.904412248638844,-48.02407402297288,-3.1272330144458227,4.5194075507620735,-0.4333559221110832,1.3580707809430643,40.405450083416675,-44.029792613154605,32.4157658079564,-21.742459220662376,12.670603872654208,-20.9907077956309,13.291445651821439,-44.66980479271588,16.801227175272633,74.53133119529986,-60.55558704326773,31.944198616550207,-79.00308941353022,117.015265884115,-104.06331494432769,93.66030830110944,-70.56921517021539,-57.15753112212985,192.68974305181104,-156.63115140537982,-36.29755601407278,11.677387048575063,52.3975787443004,-39.4095447568153,-34.91922893233088,20.664750683936358,22.03950881435549,-22.524091022797478,2.7243246358468305,148.15608329196075,-65.58220309681126,-92.60029009957809,409.62920496283436,-406.1485516454728,148.71998546288071,-133.11250294191058,94.47463733319339,-53.104406590967294,-115.52246645660432,252.4841658368442,-245.9868750638622,342.02988928509694,-90.03363163958126,166.83861233436923,24.598463114344653,-9.498623388560645,111.53761052939086,275.37264750403006,-15.26527522153282,21.581171237815063,-85.16121274956348,32.27811651264725,-8.190619038210695,285.40248933100287,-142.3845168691105,-47.20340290423375,-189.88528105863816,85.86660769820418,273.3713380121953,-96.37648530778809,55.767023561036666,31.60249124558441,105.45663417482076,-50.453106349239334,57.351556630065055,79.06671767746887,124.78845966440525,-156.8024219199901,62.40493170515889,124.75699847483993,-72.42678065884782,73.42703397839574,-10.593886847571746,-58.36837241453162,51.99748538527212,-160.51019109965372,159.47450677003206
