start,duration,0,1,2,3,4,5,6,7,8,9,10,11,12,13,14,15,16,17,18,19,20,21,22,23,24,25,26,27,28,29,30,31,32,33,34,35,36,37,38,39,40,41,42,43,44,45,46,47,48,49,50,51,52,53,54,55,56,57,58,59,60,61,62,63,64,65,66,67,68,69,70,71,72,73,74,75,76,77,78,79,80,81,82,83,84,85,86,87,88,89,90,91,92,93,94,95,96,97,98,99
96.8949966430664,1.6825027465820312,-0.8901786361359332,-8.079435690422462,-0.9551479633991402,4.981153031870727,-10.47961481221017,-9.151196150686946,17.053323007065476,27.58458048966377,3.181926847275546,4.47077072224676,-14.464170071448493,4.174004666451216,0.834208545198956,-3.3833057160151685,-4.394659268148344,0.6748783944942218,43.954144564747835,-1.596429657596804,8.079414276904377,2.4320042853364243,-1.3386779517128509,1.5170560725462727,4.581352681804023,-12.925569687512931,-26.923656397718105,12.740608809521516,-0.0380643925761861,-4.971751506051488,3.6537768596881732,-11.522023044480159,1.843186669830365,8.650499900158442,-0.7830398652663466,-17.279904573991445,-2.7695057951283686,5.857857249491433,6.669301095716776,-28.23854808958841,-6.659485345692076,4.978819430291993,3.6175381506483015,11.373360388250823,5.533293839506558,3.679149969015894,-0.4655848604804378,3.1100256434693216,3.081335752417151,-19.82058657573837,-16.50014642769641,13.066499681201474,2.234417467447483,6.826608267234907,20.319031286859197,-5.965313037808808,5.610144579685736,-1.3006476858569704,17.913705340523897,29.477785405051304,5.510855984129201,-9.247875251528074,7.137710460300244,-0.1193890050178501,-6.165492661001499,11.674671467770722,1.7253003141479517,0.5933240817365117,2.1047133699866816,6.565574373066726,3.975324529224526,0.49563410605964564,3.6404330599477364,-2.767436083679405,3.9722436911575176,-1.449981385525478,2.7819729794868877,-0.4630321721419266,1.5064478112134128,-6.218130037946756,15.244829217545401,-6.915633285521557,-12.517767753811686,-3.76665889484841,-8.809636341865176,-1.0576587582575903,46.7433484119089,40.22405085448394,-7.100104153548218,32.581509890325236,-22.18428320347862,-18.26381661696945,-20.799636527655224,-4.552769616565468,-3.3456180405776372,18.611110683507146,21.973438092893886,-25.232914361847552,-16.519788333236754,9.40629061461265,-11.36729152825696,5.696448316049799
98.57749938964844,1.5923004150390625,1.3401931807971383,-4.50554967252863,-18.243831096327572,-19.06994862736257,-4.82216040797058,3.2856620375915577,-6.17635599863679,-8.004222190708255,-16.970170944049528,3.4863622683643345,-3.7218460219868166,-33.983916943545736,4.5903180054181805,28.208912005070346,31.90919668711339,13.636398315923943,-31.915338822384882,20.00827230912656,-6.5640586082700025,-2.9475750978822646,8.441640277155107,-17.221182031366887,10.387372525162675,0.20807891549813062,29.01378821185143,-26.1541512597311,-3.0556394839150762,-72.81887159713094,-27.27186735456641,-28.6710861710326,39.535297963150654,-1.419675817405281,8.13602366173219,-6.800680236208999,4.27414107771192,-8.707851204218997,4.784970570248642,-15.928707716213045,-4.094763605922294,-31.469900298739752,3.327406967442937,5.08044136137012,24.087987166458813,-29.90521584612438,-0.33241713885500657,-0.6538438447952895,-26.209206910102605,1.0508650727236777,2.1707757134302135,-41.54335161468346,-6.625489622027496,-4.319278238461371,-36.678090305529025,-35.741340809674256,-67.86123821237382,-36.03311024583927,40.416194069623934,21.11334272958895,33.40056540217724,-5.380444100927955,-4.790373187492057,-4.988917311478413,-18.104255525959395,-23.287784826884742,-4.999740750605107,-13.125243769768634,64.44318505458693,-15.733017020147837,26.874280965594807,-30.565727936147475,9.984451579347152,-6.785660572871278,-11.541601991603759,2.2267919769955666,-4.921595652988802,2.032343635671693,4.546968475950028,-3.7149125612252285,1.8265422511065457,2.7908416064737205,2.5714226137006286,-3.399650827535692,-4.280970631961164,-1.7978532944668988,-4.24746826663612,-5.081853921850212,0.2886393004224896,3.003835105167098,20.468008883143966,2.077233892981579,-24.688831025278017,2.6233391336947327,7.961179367571729,-2.262879080121901,-1.3096500828534046,26.21810177207962,-17.96903465774012,83.09943984379134,16.813992207818657,-4.845423583979477
100.1697998046875,1.6223983764648438,-6.075854573157791,3.424804060710936,27.72136476678225,-12.72943355900015,0.2167575590871098,-34.487296879075615,3.435913609155005,-10.224927247015987,-17.076365414382835,-24.6361436674824,2.6573214640044305,11.145780634227288,-1.465192737560081,24.195563742087664,7.124792326801747,-0.29878836301832656,-11.393053965921412,-3.19834375661533,30.66796326577727,-14.287654587394606,-25.493859003374315,-6.544721699725239,-16.11046392200671,-7.531898391534788,-52.09305672347661,59.76728603508317,2.3264209842275854,-0.8784297341410312,6.512630951638835,105.45435976184098,-119.41087436165186,45.01280057705387,58.01589479422784,8.34448399048302,-29.1838631556062,25.402859905644192,-15.714838078005478,27.342831186057598,-9.4639127712327,-0.6949500873723378,19.085590082384556,-14.09650272232282,6.379455535482612,-3.480940357311609,26.65376587616894,-59.14663472425719,-27.2034311221246,-10.332007012326372,26.906948471078653,5.7389564841677645,0.9274087106707001,-19.297408420416648,14.74879227889919,-20.42287384771186,-3.805268451309978,-13.346042582554418,30.371561171266936,-23.087333792505667,26.361750525744718,-10.022176223084877,2.939332068960905,-3.9218880479469904,-40.92200599483344,-1.5213994896212881,-38.977448029451715,-17.763113452502736,-24.597939464578843,-11.055191251619625,-48.76677183217207,-10.111664656778045,8.644115408427403,-1.4876073674340067,3.258988576221507,-0.5584840973009015,4.372118170346667,1.821242334736287,3.448674123228691,2.078651439222517,2.0468388092447984,-5.37304587801331,-0.6281017668055913,7.342854823212446,7.110141602189957,2.255715914518175,-10.270376566159364,-1.0032359867463905,1.4810041066586521,-0.7619564360566802,6.20119548015616,1.7974349272959582,13.689659087425952,4.696824594069842,38.46415556521812,13.071615567303212,1.3524602931558993,-4.271241024695422,14.300439792362113,-5.161561122064004,19.101391082746346,-24.690790092692563
101.79219818115234,0.6511001586914062,-38.54854574076769,-20.094013751001693,4.628809477098473,-31.23404739281125,-25.336993463649684,0.4733861860629719,-4.0667462281502855,4.373814784157521,-2.151172007692032,-30.635041496697326,19.275860463136485,-6.257656273338457,3.2434782573712004,27.797815239132944,10.38686371952238,-2.8698989841261144,24.085662736205457,3.9661271537677325,-1.9308025332617866,-19.53114276460016,-20.214787515773416,-40.96927803757198,23.26331239953995,-7.747270955157412,10.119417508878533,21.434374680248077,-0.9220199115962968,45.79241226061617,19.203510181774927,1.3324305686532698,-6.439812984637422,-28.375078717397493,-13.555955823395227,-47.99010415076459,-40.3251172338375,2.518228017783719,-29.20032644768994,-11.515283574542424,-44.12135303436169,-16.22128917683273,-41.29986129317589,-13.687989060460975,-16.059427115660164,-13.800699959594592,-1.2576363260730812,-4.518595921507187,-12.334466308017054,-22.340359337101365,7.262257752796174,31.336935137781694,-39.19067426422236,28.45685692869852,25.908827831789118,-45.19381075571819,-23.94516603330977,-16.042070970830483,-4.88050228340349,2.116252921271308,19.503618653856535,14.985850000002147,-10.462349911631971,-13.564811694365552,-57.362435253153755,-14.372620989027856,-30.920628107233714,-10.343555635113656,18.72929321349673,-2.556495648614674,-74.54875421886811,-19.30857506509983,40.596029167592235,7.39384952317151,-0.7807928476735344,5.269905202155216,-4.639085821938509,-2.3396960723308045,-14.718900725621754,3.1326895872588594,-7.59769196699367,0.08010571261408844,-2.4643283878134445,0.38355053345431767,6.429220495733656,1.113030733477809,6.903076071479559,5.166743107848614,1.0452247103716643,1.0360050520417554,13.740512027643383,11.329903381455047,45.477903645897285,1.4340564626686572,-24.379485184568537,0.5366202706820493,28.02687743225805,-13.399961382238157,-18.548891736491377,-9.48173261150363,-7.648421126078482,-1.9142367943185121
102.44329833984375,1.03179931640625,-8.189870421687383,-19.467832348706132,18.445019502484218,-1.2067108439555998,-0.24458809905281242,6.181226468371399,29.541577827860397,0.6236126846011958,-11.026851853066495,-49.172935830250324,10.196438594211145,-13.659910566914874,7.281980587275278,-81.46295361942168,-15.585644543782145,26.114295967409916,-16.837504228078082,-3.8205924044188304,-4.589993558541388,0.6456761622958331,-1.5154860134875525,13.402367238356534,2.735144386325908,-5.374485912357609,34.08897238344486,-2.694110568602574,-2.760068031339653,3.787625573248316,-9.198183883289804,21.400523466437406,-14.501222057231562,22.07969032184007,-2.5569266310091945,12.09746600108498,7.551375113833529,6.381350407297484,1.077387995807845,10.237353140772496,-4.960301319690884,6.298354408518837,25.132580199851223,1.159724945315347,-9.291592668917929,-12.74454379574905,14.826113349912038,-4.23632979701482,6.570221223831148,-6.605014878864514,-40.36774477673248,19.86738251817197,1.180258488172625,20.255826828028628,9.124606717402042,-12.610653425962859,25.300698591546293,8.446671689245697,7.6119865235229245,-6.644845807310972,-5.653052647664959,18.722541038694484,-0.5049378445746979,-9.049425963027014,0.8821161368930728,-37.29888702012253,22.68492811897483,-91.15492677422007,-34.021277364377305,4.991216157697303,-33.114801670544345,87.11702229062634,-2.459391434833061,-14.23383936205508,-2.3798894802487682,6.765324537743665,19.041420207036605,-14.050680197366512,-11.17842016376725,-27.76857056788023,-16.534785900806305,7.728783242298732,-23.108867662771313,-27.814797887802523,-65.37153113907375,-36.57758783440246,-4.9971233665850905,0.015866086581741712,36.45404351973811,1.6587367239870137,-1.6798702154118272,-15.686127475348885,37.39900432054534,-10.57121618305321,-2.704804682698759,7.40932364953955,-12.6910791753156,75.22482836737998,-47.76008618619532,-18.66053070586407,-32.5932552547501,68.24137821340967
103.47509765625,1.6023025512695312,64.36283879064678,10.05033544670367,18.135252628939384,29.26556088766153,8.631913021433773,-2.8226180825946403,4.96748124206335,-3.7276118134017153,-2.6979557428970296,-20.920787440015058,-4.244842865522035,-0.5144295054505027,7.616078963205252,12.566252077957364,-0.6564898376602832,-12.721139596240173,0.056672012485643186,-21.912586746661454,10.683789107430087,11.301515477446252,-0.7279953602281193,2.1747478327555534,-15.33207950521259,8.042204132597398,37.55216150184629,50.38280158826629,2.4338705985704934,19.556858016968842,2.810274088346869,-6.7473883088477065,-16.28466728060647,-23.82343566984198,-6.165995111401379,-3.3159371243545324,61.427877845713056,70.65561125526602,-29.980630320102907,29.072641912857364,10.966813345003892,28.98907368025625,6.595506232067068,8.54440588636851,19.89521412745252,-8.219761944442295,30.329773048864933,-26.445215804671786,9.352773060265054,27.185771354095323,-75.33733392964808,19.98715220652418,-0.6809973469390371,9.259098432253857,-6.60221761210906,12.137458757177509,-2.8873262700228834,-3.552235769553884,-1.7412650466540183,-1.0805631514063363,-4.837855203412685,-0.6920279292667585,-3.640951801582548,-1.8691126209974223,-0.03980184668122144,-0.8387298940832442,-1.68876971753993,5.871526363007012,-1.0876299814832415,-4.242520992685498,-3.6427931625204506,-0.4525342906090526,-3.121452424831766,3.1026790550250185,5.671363497282555,-10.453948335961806,4.967969792276917,1.062586836315793,2.6016184040387436,1.7736569129821733,3.4349299782288454,-6.947895711056505,-1.5894691191583155,-3.016038249212861,27.878706482470783,-14.096255929077026,19.58219554598735,3.5109682274056655,0.4989641097320767,-8.517613189871518,25.84588263364076,15.757561428639635,-10.40311688474285,27.66044755736387,-4.33714303671486,-3.020754254732366,18.063563732287843,-24.212877881461466,-22.62959311277103,23.713025187868105,29.148609285106453,-10.726435650057018
105.07740020751953,0.720703125,-11.68189719472297,-2.182190563203201,-5.065314623719593,8.299717863234122,-12.95256448071795,0.395368420274135,-1.1881015082685389,6.938521536049342,-3.5337728135576025,1.8435315061444477,-3.6968992194959043,-5.309329488772721,2.7570045087528117,-2.6015558503964025,36.0330302681939,3.992757654628445,13.700961374687418,-3.0047456045857466,0.0788733238159407,5.692624304975255,-6.009025051203858,-16.24782617131144,16.30033403670497,-1.0005699002619033,-2.0217178328863143,-21.274598752454004,-11.058703232517615,-40.78766879659803,-17.857601854304477,-12.664287158276824,6.0840518638078915,14.69202035570273,-9.679036685534676,8.211868241421666,5.203159664946346,23.48805720573267,13.174141166005585,-8.231700212822151,-30.271103618161114,6.449226663068101,-7.340537587305965,24.926379568216706,9.867367439502885,-0.41750819642668563,0.2104137903072303,13.108568787005623,8.997702612235924,-7.609608725898547,-13.153405291944175,2.851507937714045,-18.425739693083344,-14.845226158752114,-5.976197488061155,-15.017446769277797,-38.80535388911555,42.298857060258435,24.87565902432718,-0.23439344020368535,3.655303412348538,-11.844058782295953,1.2013169404452,-10.024175282999641,-23.621577578753737,-39.66168097033131,-9.988706172950687,6.825859005994229,31.616531898921224,-8.689772479329068,-0.10151887762813361,25.06384998161431,-2.4038620929583643,0.9992682994902613,9.047869552516161,9.75305555293583,6.060270153136489,0.9461403511752478,4.574687079717982,-3.194901836491233,-1.7682896893090323,1.2816250936971647,8.607543663405805,-5.730942176659681,1.9997949697533925,-3.833255527141506,-2.1160787010594757,-5.383106852213844,4.149750079278753,-0.04550894620988555,11.912776863052828,0.09762803581717172,10.678041869234951,-21.767800042339214,-15.848712957961338,-7.3223150498295615,13.578421996619216,0.39186694263896016,2.051313333684878,7.184181084874889,-6.110080918368439,-1.8495967810959142
105.79810333251953,0.90179443359375,-3.6381581551896245,-27.03215547556386,9.975252378194,26.431413124732526,8.918220464844522,5.6825793171496635,-29.69133657344461,2.6640709813446914,-18.225568633140394,-24.10428109225151,3.5655259134909136,-17.79169035164194,-2.008349378934632,17.99741933790542,3.063395426724358,0.9091214736298374,-3.7322357846240926,-8.46975943270876,8.133071812953128,7.656310934194026,-0.4458306175535727,-34.50518188944044,38.97984858292458,4.429591410118661,3.807444380976315,-16.02024857166295,-1.5922517507678702,3.3831752874042254,2.3171638016020553,-0.08257792622177973,-0.6774247747293494,0.40257969114054104,1.946072009204915,-0.8463507580000155,5.02149738056775,-0.14097955276978857,-14.72510462955509,-3.4804024977272183,-0.44368364745688105,4.706217591746839,-21.880657644899447,1.751597687208789,3.869462539455141,2.054453534149257,-0.7432098166884222,3.093925888068788,3.4535946298459774,-2.9701296971985975,-1.5466078183451297,1.258178067547696,-5.335753320776197,4.4007284854887665,-4.350509751415178,24.871357779781732,6.651274128960345,1.188148259399237,-0.05348599552834388,4.361807846051492,1.661541628302365,2.0465920131688553,8.26239002170884,4.185091183125157,-10.303135985616407,52.91454374238288,6.497001901414478,4.729991489330921,2.94007028656144,-3.984372823140312,-1.6144911518815794,9.97348591007571,-2.1897368777936204,4.77726077582871,4.329978373020666,-0.25246728856105083,4.64587846076208,-4.923547006303609,4.232350611089547,39.52358115253031,15.879290602794697,20.129052217417275,5.284151538654729,-8.464583104947295,5.930900031972486,27.927559166968898,-28.52434703257846,12.404571334592184,14.795117483940214,7.60595595076412,22.86416591185574,17.82658350632196,8.702785401930655,14.638811759720245,-6.823108636157308,-3.984149952340881,4.507729665770352,-0.4229865107567674,1.0973508205263904,-16.444594223013603,-13.5365717763829,-49.54638758158643
106.69989776611328,0.6010055541992188,-66.14555797908685,-18.475888795956863,24.416412904474782,18.735497430279537,2.8623038235274016,-0.7513759598037861,-1.1897091051706443,-12.93814120454947,2.2943869010617455,16.201088134926394,-0.6202500786125629,11.12877416549901,23.8226023528695,33.62580398052471,30.80603658122301,-39.24564490019481,-0.5397957949118659,-9.82918214886384,-7.336885920398455,20.746425949481875,1.6808673547281556,4.930656938753687,5.597601853718837,19.080968493512504,13.504178704538399,-1.6508718925573787,16.44786031415611,3.283233133387858,-7.91805428619025,32.83322677694545,17.96678786286246,38.616890551705424,-30.209744146260185,31.722189441013136,6.350115511975631,7.581120863062596,-35.68039893371923,2.3860795514224153,8.915566513679078,4.2741761067227335,54.77444545505839,-10.313067600435929,-34.95602514119624,97.54188625769164,-30.816916858858452,-28.21141571192078,-6.845555163410119,5.212158216152378,-2.646827082533041,-8.914724228036814,2.6781007843631754,1.9511917683225022,-1.3136700404329136,-2.265944500657351,1.4952115316216799,5.915819737753471,-4.083670693337963,-1.822732070239983,7.242442924208585,-2.391334819452106,-6.568580927900123,1.3028906100732773,0.4392664452726702,2.353726887523381,-2.925913828818888,2.840918669471116,-4.089523784921067,5.596402010950461,-0.014530497067354986,-1.6906179571866682,4.898932790614169,-0.34789613827056964,-4.807201072862117,-1.1352222810346362,7.727633864192339,-7.645082115310235,-2.1366441710899644,-4.121420008460927,-32.36701400340737,9.302763545809158,4.611584648208261,-7.459086830764118,10.69335832670302,-13.290819724027076,-9.157292545664031,-22.071419493202285,-24.306452488457634,7.965836907151286,1.4141233930587567,-28.93506920700638,10.295162143129499,40.74630871669578,-0.753526932033985,-2.3763178759168793,-40.23201356689093,15.429916384848795,-21.736565956195676,1.5809280964798427,10.247999747364425,5.610347784476966
107.3009033203125,1.0114974975585938,7.525908382978219,-18.453648603499477,26.076250323527553,-23.86665562643146,1.160558337636263,-4.605943578813259,-4.872187788594636,10.45323823027892,20.28045563108273,19.240706887146324,73.10830418477605,37.19723926734982,16.40766054844878,42.65190476269565,-4.3350208460647135,-10.132886628712525,-23.385749560163873,-8.574317203914488,5.4132541144787805,-0.19965727793470855,4.4508433089492385,4.316538187284311,-4.902256057995372,-0.8337262621262422,-6.363251678416088,-6.737681944940519,2.9012927838681186,2.9667186036702002,1.7127776084148119,7.933679819767622,-7.361412051785718,-8.268189626197843,6.895572097199336,3.8666250278183565,-3.833648754796628,1.6809091658998403,-6.866023062077164,43.44634384539719,6.684405565445302,18.65118887478716,-1.9348922868204705,2.38855476503093,2.9140431853326154,29.705525510270206,-3.7289533398993306,-8.354114087336054,25.864049135496018,8.028317976031536,10.403020619154724,-1.8816416634676314,17.96395589776005,-26.238246289403342,2.967333478335995,4.357350681545528,-10.05972806771229,-0.8898427007835927,3.043017714080589,-5.102469556093485,-19.102368032010105,6.5315758909683215,-41.58411636793282,-55.40705776568456,-42.999650605364735,45.86790916767759,-43.3633546601472,-5.489542083804107,0.14235038766513153,4.189801527537631,60.23660059391248,-25.7265763515826,-74.63650545196046,23.006188318675576,-14.169684489136289,-22.522095103414017,-75.91788021878432,-35.97754161487717,15.545678922302912,49.117219853198804,15.760979670034759,-44.607825568624804,-20.173195672198833,-4.1555030311240095,1.0821433311133006,90.68237660167304,-38.43294982619125,-28.385289814198078,3.320411464609357,102.97630966912003,-50.758403498728455,-6.169353582509199,-51.17034446042432,0.38131514409934414,-64.0227770449499,11.941114283823744,-35.303998033531265,-12.232364760169101,-14.5038746512531,-19.589438732013964,104.87334800872712,24.605965469439475
108.3124008178711,1.4922027587890625,13.758936144901977,-30.313561674320272,64.17582430659897,24.22026895781399,-23.32946386708442,-73.94505363795778,2.922504113761624,-52.13787419101866,-2.9481979779841803,-9.281338535783643,20.879523698165524,0.7230308562545928,-35.03747502073316,16.561003825958462,-6.580098052549522,50.79193831313015,-93.09638480880163,69.06455184346262,34.299826259201566,2.9095559906447948,34.26985469627711,15.66679461549516,-30.820726130185744,22.03056412164345,8.308987481750552,12.079437042418242,20.601903138248083,-3.918030977551515,-5.36784774413371,14.822929452969365,-49.015658116834764,-2.8631249025459025,41.64966524624763,1.7678623019748507,-43.84196909091542,31.435612299818022,5.735934574533373,-54.00364084553434,-4.851321843044714,13.48055020801926,-30.16847584699373,-10.407260459147665,-81.56202565579066,4.858771619662409,6.691434547381758,24.12338620353003,-16.872429670358006,-23.030773585534547,-7.001772875130836,100.86581611844304,-15.138063360217643,-18.45939303835731,13.534235549641494,2.8630935208314217,3.034201478509906,4.174231324253675,4.599291814719676,7.977273166546786,1.3604137291121177,-2.587877466766969,-2.071653314269366,4.175303157040794,-2.8628087476829926,1.1913290676801307,2.232265876996897,-1.4750927522663924,2.2050280779840357,-6.594514791315096,0.8688283237793738,-4.651919369474629,-6.245021362476056,-1.4792172305266478,4.508845242774673,5.547967678200661,-5.82803617985352,-7.044051936579635,7.205788850640265,1.0366774464453181,-18.472526487915015,-1.7679836051052655,12.756199613740208,2.5354133019136467,-13.855390007659306,16.570493953638163,-2.180800439681275,5.720598893413166,-8.043269880798107,14.266469686461079,-0.3915935321091588,3.5071433971466344,-3.6830065211159426,33.610677913555804,-0.32218458980282394,-0.7462055031690529,0.7890269420026593,-0.7312595444159741,-18.75073333467839,5.878068874048958,-4.4723923930804625,9.378783873385853
109.80460357666016,1.7425003051757812,2.8815420445369533,26.524214980331163,22.00253890318193,-6.430473389562952,-6.96445889748437,2.533973930038675,0.9397315225000993,-3.906996399618618,-5.496089635340505,2.947484803115678,0.3848083922664899,7.995580882081814,-1.681474348775823,9.003007618396074,4.599979732409815,0.5038654250743237,-5.310884228584399,-10.30295732023373,-3.7942420804623618,0.20054970855228227,-13.099760950651351,-1.531848325438486,-18.140480051418734,20.324573396317138,-8.06162507056223,-21.426328555979087,22.666125748966845,-24.624218646767996,-4.989825308758484,-2.9163812679091,-40.40485392765665,-7.257390496421234,3.024482415127394,-1.1122462721837865,-29.05774630941489,-6.8184087967442775,35.190060190261846,-39.0686190302987,13.848708817713213,-6.621953347005699,64.07255464438272,15.073076831148228,-1.200145596958571,28.24833229057447,17.72851514726642,44.46495914013802,-13.701156702170064,30.808120297277465,32.74093851909305,-11.393154988657443,17.848650793978205,-8.137844342989853,8.980877565902805,-26.70482474099532,19.343746678543187,-7.191666970625562,-4.940841887095729,-7.604501175837871,7.7816480886479305,-1.7427241146404153,-17.76069004226264,20.482490497415988,-14.653099366868405,6.114566127293186,15.78817011933073,-71.88164430317836,-87.42305605894703,10.678502729626342,-10.209094101153301,1.6643663744936252,5.699179467449094,1.7651039823425023,-8.242811919717074,3.8540592536515916,-8.646829439216113,0.04154875464750901,1.377269251766187,-0.34983519384449513,-2.246170941773632,0.37281798644052255,-3.6633748676397726,-1.458639072951752,-3.199865822385682,-2.2915795011672637,-2.6119122402064887,1.3594800263151798,-6.852896722047683,2.7699698028354867,-0.7831531846349861,-11.727072635803799,17.033897020888215,5.02490684988966,1.3293585509380677,3.2940629469027503,-13.091750249781512,11.53099365736458,6.363886388732864,1.2315231221172318,8.072014047703059,-3.9927321534241713
111.54710388183594,0.8213958740234375,-8.639231070972155,-17.595752445061372,-35.68184043084948,26.225514152117267,-25.010421928278586,6.508785839015476,5.226274519262824,-2.3999993789358243,1.3252284162764139,-8.029510687641164,-12.961640826100181,-0.08756971732808072,3.9036145630471197,2.764930786260715,1.961370745127164,0.8110520630958382,-18.422455827868685,1.0036004723103313,-6.0164350886845845,-26.791822509544236,-2.121350749221694,-5.503068096877965,14.390797741608509,-16.254361734836625,-40.875963048443765,4.0677503916627265,-81.47699766471595,-72.39987224103626,35.29775622723435,-7.712964461198196,2.474688572212898,-32.345027767972454,5.18020398769557,15.25295036572252,30.815112785123382,-33.4773579841668,42.61533864268501,0.16456192112143775,5.652880054093462,-53.118900985415195,-11.461827466513446,-45.025225275152195,-77.85569647013007,5.940816450530656,-13.133854356062125,-13.39022962833672,11.225935366503235,5.320231697762017,-6.142695474563933,15.675114762959439,9.128788936563943,28.193388730988303,19.81125523763309,18.12887772187277,0.9601180199857832,0.9642419200981802,-11.989591843092306,-13.889866652138053,-18.829010601825267,4.933951493818967,7.279742829301388,8.518382201173306,42.48659405079832,-24.632156026879063,-12.939819247342145,16.465831811435876,2.616354263505051,7.589350820796199,-13.581153041761217,7.579090967043717,108.24252198634267,16.13070395749476,-6.021689018440354,-2.3181971266089985,-3.564723897906191,-4.060951167473305,2.1447865459359305,1.23990903710723,3.3045325261753806,1.343653666009022,4.705658121254807,-5.06936254346582,-3.05201582348154,0.22789854010317612,1.8160328564333332,4.716252040531925,4.316118990603162,4.763896387743595,-3.7888582268275712,-6.480573199534417,-1.6869047368037355,-7.319145520085214,9.03101954755663,-2.8561980519922052,-9.90955071205862,-8.083196851752069,4.489685490145014,-7.92096537815383,-8.193971949340135,1.5469329349296275
112.36849975585938,0.9415969848632812,-2.777370792208127,2.765577964395993,6.261328471147166,-1.1968567003607866,-2.4861525867235756,2.9926111104107775,-4.518446413977777,7.604429043963031,5.841111394055779,31.129233136771802,-10.812306712629205,10.996863610828939,3.192212598650293,5.561198563459357,-15.118895782524874,-0.9472618043102381,-13.130043297798416,0.8607082295299306,116.86425221199116,44.78014268267305,6.691069772917177,5.4525207793987365,36.48019004155232,-1.7716326707339327,-0.14839398395988823,5.058070428826358,-5.570455042301758,4.126485985826804,-1.1728661696284783,-6.213702055587812,-2.4262924137504664,-9.274101682207943,-10.386737096415988,5.06541684737161,-0.304450722240704,-3.5945163275002745,-2.137421108310628,3.2701303598424927,-5.154714967250204,2.073281235983794,7.613686030124921,0.5669598149312254,-3.3650223111360615,1.2567525788488825,-7.04323523537104,4.987667057914864,-1.0933458832955194,5.774306721025797,-2.214674341153097,0.9326619937543317,0.22120954487888245,-0.12810232846564729,5.9631943083804355,-3.100770910268675,10.679717194888669,-2.27593651682887,-2.6327349591913687,4.471402192990294,5.183740404454104,3.546285613277639,-4.830719837518068,-0.5073115172898381,-4.627187211232327,5.145048674163368,15.643998305110278,3.1096563501600234,-5.605629486326862,-11.739536994497623,-7.85733276036343,-22.64219690340379,4.756629521863663,18.327687671031985,15.190754058438445,-6.0598781054545,7.088835722692664,-3.3491186514158997,45.47321132173016,-8.392504905528053,-18.601219108499308,2.603458484896315,5.756206068939701,-22.061937002627136,-13.55872675415963,36.085775496856016,-5.8512973589632935,-89.31895084549453,-12.173532377608538,11.710722823035708,-14.38725047846198,-11.498704432385905,-52.639245398215635,36.79268885775075,-8.08054644701675,-16.68496188275183,0.9804243325088589,-24.245376655532752,2.3279078882885758,8.6881375370248,-30.622133011812508,-11.26592061106193
113.31009674072266,0.6910018920898438,1.1092757404202427,-12.69573418576487,-2.1221397502663937,-9.492492909221937,13.656867894470727,4.7473250388737425,-13.63406962946192,57.31441757630966,-44.16171473942339,-17.314503687515455,2.7102660980836735,66.52405638568122,-13.24315583261651,-8.094764797848164,-52.570901290518975,-21.49847985446723,-12.102694970748953,9.606549111006956,2.072603849967357,-10.64344639544841,-8.105795467198213,-24.708559940215906,-10.760283923507725,-18.334765321009144,-4.265618085594944,-9.535504137167395,-18.636305208840334,-23.634728559721125,28.753562732135528,7.779185566953173,-93.96631174315239,-34.98826640226977,27.61474308820522,8.741577066950121,18.3521158761498,-3.3290760501005736,-13.868806338730714,-3.297943711224469,-21.450747510529112,46.39172542911544,2.094089208811961,-123.83641602834525,19.646845039425834,155.26226859088044,36.73576292750594,5.488515112170198,21.11839236622331,6.1769583509962205,-4.357255731323616,-3.862264567763293,7.973138012514838,6.7382377446677335,-7.762069607828883,6.429229201497041,2.2509570851577343,2.460285895958812,5.953161204384704,-9.748575155964952,-7.358137442881789,-0.7646538263415061,-4.414622917116895,1.5379357528164155,-4.721532694597947,2.246361831373924,14.077013115779437,1.206638628969365,-4.27633404137318,3.6132347487916676,-1.3616976386252233,3.6903543494331554,-4.386169424008236,3.1919841996822167,6.613605055621871,1.9485048168916732,6.179514648779457,1.365364666890092,-4.0296786081260905,3.4439758366095554,-6.3216863046241745,-2.7401706292991173,-11.393540705207029,0.827742849580825,35.25021392369891,13.555071173046635,-10.181706664813127,12.575572075672401,11.402804483315519,4.614448486412147,18.376345743397753,2.185205925205639,22.79861705529205,22.14827321762635,3.6634520603689,13.906317906253738,-33.979415383916894,1.0647880448948588,1.699785261871608,-9.45160073758236,5.309671296500636,-12.603323170977857
114.0010986328125,1.0916976928710938,-2.006030541311933,5.3595476616014555,22.082069284752013,-22.40901663735078,7.1849116766744325,1.9713243390818096,7.635018083730242,23.935368180748107,8.861420769429646,-5.07973570122953,-5.0980116389085985,-3.0372275711096637,6.6793117015960535,4.2815243530875335,5.131908810040259,12.469731101453965,-7.892801936858697,-25.421334567416487,-10.860601786068592,-1.9195557698617889,-1.9800201776476731,-3.9233247469256916,17.009555604564742,5.845551386320992,2.5393413535121754,4.612056310062111,-12.065743256463634,26.096169342255745,-2.573873013362579,0.9552554130426096,-7.186040800935276,-5.875145398251231,4.631842959489933,15.890343489159008,3.4664843854269414,-3.837832229186199,-2.631926416941832,0.8774435596014696,-10.539787750305106,-8.675756971926669,-13.028034198941658,-6.04947733843613,2.741009859093716,7.614977598651345,5.60138657901062,-4.071484699773426,-5.245542704669605,-2.6945018834000116,11.10162320595057,0.3106646678784277,-12.275517605869023,36.16267895295255,2.460859169051708,3.502235311148976,7.680714768165118,-10.874807673138003,34.85471054036139,7.453032557144731,9.265583888502109,-16.7846416053893,-7.689698451669379,-6.587774652260731,-14.042561282957838,-3.480617127774861,11.751943420731724,-4.236666449166983,4.594123492923183,11.07963330035463,-9.877080653658501,4.244329862103708,-26.868470549247444,8.171476825363891,4.979524481130975,25.496511261034996,-39.74902673505061,-9.668986006823404,7.443669356914901,-31.353328710365034,-38.757912256327835,-47.53767831323367,33.037774729295556,40.617458438642004,-16.94933624798179,-24.8109212605329,20.048277437700623,-35.158254642875995,21.639940339091154,19.79273056892326,-21.297614010923375,50.89994085158641,10.341302484669228,17.346945937291597,-1.4979441552018669,5.1296402740058555,3.8646822149308306,44.48651961494435,23.448547302425773,0.5603005920486406,8.328766535682693,24.609687234834762
115.0927963256836,1.462005615234375,31.792751132814608,0.16838078388780092,-33.259983220103784,7.711866378581118,-12.602069804636491,-8.993001921435443,-66.88954517193005,-7.879387731079526,-9.11516615027738,1.4473819136111525,-14.361562975570314,-13.168388047226141,2.391301441581236,54.89009264380729,-7.913268905937127,6.303470627854008,-9.367596884264133,0.1480146129310127,-2.9386188742272816,-8.269503203346847,-2.5902896857343216,-3.1076751079822422,-11.199062440915906,-9.478942534784156,87.4125579391765,12.42156003744728,35.06057684584115,-38.45101186718647,-36.96868590809075,77.66643215459638,3.5692577651293234,24.79508651930132,-53.377358436175264,-108.85240226876743,-37.945350646764226,-1.8732828143645905,19.64912004172843,5.683744735442093,49.195852682268594,-40.67163093293423,3.4880888205429414,16.235362332327554,-5.617664257613897,-26.29517746734345,18.22576249544911,-17.947893623511963,-70.36383453155807,-102.60067339837762,62.626552633549736,2.510474409433406,9.407014700027649,5.903831166389078,11.593714188451443,2.0476368860239513,-4.868679266624609,0.8217888906163215,-2.1763529920976,-5.0344762839449695,-3.093473169190602,4.159192865067687,0.13276724487915992,2.996372493747869,3.343187654601106,0.362303193835916,-4.775543220393932,4.2155300895617085,-10.151127210612156,-2.7219068238186184,7.63886779331872,2.321338871101204,9.952523578349005,3.258197546497776,0.6701514734872625,-1.4939046141427004,1.0673541846348398,18.809050582574805,2.992038075431274,0.17775564373504915,2.569047568297369,-2.8270312423526205,15.70530198300498,0.977351592690388,-16.637014759348514,-27.121746366727006,2.4248573755539646,4.712112716725948,-20.681503213575205,30.462747429059185,0.6635032026882257,-2.2247950061036823,2.8657849613452235,42.69405999866008,21.84805507415343,9.474350553258283,-59.72970786799847,-0.5220260584994874,-23.433105963347145,-22.40555620384595,10.787480371910187,8.455616884542291
116.55480194091797,1.5423965454101562,11.423763767375739,12.150081999786428,-7.777783146249869,19.02092526759462,13.529777612737128,3.3423750608171225,1.9927892393619064,-1.285069712413067,6.285984760200048,-4.530094728562214,8.438769425912396,18.432911432803778,-29.183354282644903,-30.174995997027445,18.136474886013467,-0.5741781464375819,7.2378311037227405,20.17972863854867,24.922162271648908,-23.996932695545254,-56.22304909554407,11.560438169873299,12.945544970659824,35.32609010877384,0.2967183213157063,69.71727019634946,13.99601873077699,-35.890216012530516,-9.888259876809247,58.52734002704452,28.296910130340272,26.355285360308063,-23.490603589620648,-31.622879271754442,103.13416766794747,3.494481180101311,40.413839912918824,-0.8515939171302342,-0.9893830587049582,-4.860914029396767,-14.11271100111496,35.81862770584351,63.30628378688809,-7.980311979469745,24.93398074073189,-3.0018482419588377,5.436495721134012,-26.6282586858332,3.575390431338838,-0.7835842518662304,5.792077713697536,58.365595654045016,21.951602524676513,-3.5349444176662392,-44.86627199656991,-21.353561558864964,-0.058380285210159366,27.675949562240508,4.352773330402058,-31.804948261830216,33.36642790850547,6.302963919122966,-17.73365808117782,-7.062317710258735,-9.269416030262617,-3.104849542752658,-3.1737102175947784,-6.043773809274459,-2.584562875884028,3.316602062488551,-0.1244505804783218,5.651174392121771,-9.077216857932655,1.2872770272224874,-10.076085713146387,-2.783068805680864,4.4996084563416625,2.7977423257046654,0.18832605663584856,11.420218542226305,-1.4796145514376353,-3.310424976145022,4.709900320012635,-0.06727754789250984,10.479735067265034,-11.467560579544124,-16.229469437744314,12.501675771443631,-34.566928961024466,-23.649701010336834,-23.54638659034651,-20.343785237291492,7.329527952249,8.302662304657547,52.53434189586463,-0.16665151041243487,7.893800419160458,23.139448264626147,-22.783682941176654,-5.939244621704418
128.20289611816406,0.700897216796875,29.820109850847935,16.467266404372694,22.628380343182673,-3.4163699937149934,-26.443505768156186,74.3850008352843,-22.094049534859845,32.609402172894676,-7.95800527089218,15.266703263748735,-25.252043807557747,10.538198830006484,-45.370360503697675,16.848338100388794,-11.39164865719685,-9.656123369059703,-9.249569554085177,-11.140118655583946,6.141869146687217,11.268361992793835,-5.21477408726237,12.332187102538292,24.740761518055553,4.191027591817303,15.510428620413,16.75402139742836,-67.65533464203787,26.271683358555798,10.468582776723942,-45.85157595056018,-39.99615144567875,-5.66168879887185,-39.095044708869764,8.570300231294057,-14.945159294916792,21.137638706354572,14.042494272884086,-6.073618340323361,-9.760277217087792,-8.633425785838185,-2.2460120844362073,-22.77883096620155,-43.666816180212685,15.130179273676609,-21.10584365030275,-0.04397318064301725,39.79706846927498,24.873713541140084,-8.00524477762982,-1.9875092451248468,-1.5447430318952553,4.167486655107069,-4.618620828431091,-3.6207012978655246,-13.58432594995478,-3.8843821332222435,-10.70787943083033,-5.756142751896208,-12.033137271726098,-5.260581265388188,7.469598092482565,3.8786463095229067,-2.534480953560351,1.7818484058339275,-9.811503646364956,2.0306733458468944,1.296570539542033,-0.18130231978972644,-18.118769830483732,-1.239547611379967,-5.247735958155236,9.020258953666882,-4.067176388404063,-0.7643593895297669,-6.99437186321777,-2.8494817719706074,-21.593227332123767,2.206243039938672,0.12173880997269393,-7.380221548619167,53.9801917892403,28.00700090692795,-3.0802434299827546,1.4225651371277859,-6.583908543621164,4.607467946777248,16.2853639025338,2.785700453694535,-18.399193250851294,0.06774222883302272,13.727342642096168,-34.22728132907943,7.017569611979133,10.654872066830581,12.051004088762772,24.781729056593555,21.531849495398568,35.27202880061397,8.899270029558208,-20.370714089138325
128.90379333496094,1.1317138671875,-16.33908440056122,-40.24985416322305,2.999207560241097,15.39745450379379,-0.49435824127811134,-17.976955303257622,4.806551239558827,26.579298718136066,-14.953836687443708,-18.57104828689468,-6.014002377501705,3.8703424496392587,48.235556227431545,-44.7285998934406,-11.504546867625747,-25.119922816080525,0.6751318938833237,-0.6882303948348585,-0.2901674249060461,0.41541331538182336,-0.6935778674954827,-7.9788485848468245,50.89396203640383,-34.52722659227331,39.470266128715174,-2.0408532078385386,4.540690924968684,-28.984265024760123,4.384977741473307,5.609190804680169,6.939517298240272,1.8641035239867616,-37.16998206646471,-29.418447191024562,10.548355240069473,4.144727258293439,-3.456807978740704,1.0860575715324239,3.1831614558825168,-0.36223008828734127,5.899690724363596,-11.431485404326304,-16.005710492135627,-12.745668460676017,4.629592390240763,-3.442354822365811,-37.545187951334356,-3.6534859707342555,7.653295995461058,-5.817064141590904,14.884327796451608,-15.842854837443472,-12.426889169082461,7.008322253784258,-3.693717419058621,0.5052220389748147,-7.460517852246022,-0.37527522462545715,7.322394188281102,0.37273059870639924,6.245888078806012,-1.6520663969866964,-6.5207952317385205,-14.684059493120744,-1.815208011487342,13.81473183652965,7.105814627606177,8.4845576000082,4.7523461546063945,26.713621102291704,-2.3851363419912524,14.630566442898477,-40.61993071288139,9.184582836105749,7.925838299969698,15.998506594255389,-8.041446277787141,-5.517143405940051,30.55318723299222,-26.046689941022514,56.8079051661956,-53.628424061002946,25.21230126985398,47.56831670433945,-13.59965716198548,-23.726586840543334,22.37077054840451,-38.08379493265812,31.404044887850585,8.573121148192104,0.8678224495692817,25.423060423148836,-37.08735379136395,-0.5304621621069288,12.963242134018568,32.35322364238705,-0.051516584074393634,-38.32708915731931,-0.8707521727208496,26.269415630128147
130.03550720214844,0.62109375,24.564097034238046,-90.26137975145957,10.913693235418659,25.302472867226687,46.73852931031923,41.279152551151284,9.301429369766769,-4.0276100291834,-56.34579927943135,13.527616101094367,25.999771283040502,-23.456750565690747,-12.041344888729864,-47.39595614305444,12.480092884018134,-24.64587395618524,-6.737030805854401,0.7641759860057704,-7.598396962405035,80.87194294863485,-20.105051377790563,-139.0867945510374,-14.84224566114476,-80.33965931098166,1.2654117665435258,7.246887011254854,10.742113219976552,14.609617766586336,-32.142300524563375,-14.86033490261877,-16.861286878406514,-23.926432375687604,-3.570570328696541,-24.954883103697192,-6.571922389559687,-6.036244441288417,-19.340672710624666,-5.7542597234973965,14.31784652177161,-13.251221993879245,-12.539790830604575,26.181102452027467,-26.190377381957234,36.92029082210737,8.565939593816193,-27.975688747905053,7.08150004754431,0.4779047238141185,57.58743349902192,71.37204673931967,-2.761371413872604,-23.939463752382977,-7.340930633762639,45.11052232988155,24.242540371373277,42.746616827886,-40.60358255728061,-23.215313989418156,33.899492582460034,9.701419175309246,-4.962641716270704,8.31608731447799,1.6533243192985623,-3.9392782313198147,8.964227516397605,-5.910424472948927,2.8656796789228887,6.470595990456157,2.715277447628767,-2.800557014140911,-3.151137455874882,1.3060702625959952,-7.795559920843579,2.8310928183901196,9.776576682724667,-3.9479408006429857,3.2952351542495704,-10.044769344348985,7.655657714573244,25.735181388870437,20.199204134718773,-4.224071469601558,12.81080008883269,19.323243977297768,-6.487466946900614,6.004247723323425,-0.9324611333248884,6.912228937898966,-6.252360923868048,4.6636465466984465,-6.543360282571961,-12.334062955927825,-16.961551539149685,-3.990684485653537,-7.033388312274479,4.817823054859726,4.446371295781761,21.22759748282515,-11.050209058872788,-2.855837451836513
130.65660095214844,1.0214996337890625,-15.13784144854596,-16.99099632545262,1.37022158600361,7.76958004316243,-4.928794410978108,-15.149915929771838,21.600879882650588,26.038059146748612,-20.741090232121998,-10.270449222080096,-27.284622378689775,-13.345510368888853,-6.852281887499788,0.41441853036638676,-17.691979655073418,14.775699425746406,-0.24311314263414574,0.7653511086489608,-5.192474856307223,-0.8119588012316576,3.1296648811780647,1.531449891248634,-5.821091681995266,10.154056615484604,1.8356412112418938,-20.18340660653046,-5.499283779784957,6.25647710661437,-11.947168961953109,2.790643388953403,3.8255708412541023,-2.0406224222373,-22.66357682387715,-8.622814522724987,-6.797469163047869,2.705627732774209,-5.625889334639675,12.285183492667278,-18.66484779527402,18.124407014685115,-5.765503724149076,0.049812614765752626,5.9273680922265495,-12.477750070142765,2.8245494925095382,3.333327548805974,9.939377787752212,-0.9407069353273578,4.899445418305621,-20.284108702167465,5.104588990211821,-20.643941355377326,-9.548701898606678,-6.7429798893872785,5.041468112670707,-2.555243543066425,-3.175636751459905,-0.054846818752531806,-6.209009272959257,-5.950498674991944,-13.439447459977153,34.79060943194173,16.086305435000217,14.51893365460061,-6.6667605615368775,-13.102379289559433,1.8993317262514058,11.635088175692495,30.176045312922184,21.01237177090232,-13.063972808394118,28.579011332624045,31.52694199308838,-19.650331801446914,-35.85818445697379,22.98881631750415,-75.59751978081226,-39.89044250726261,37.09489542102462,-81.89624272881902,92.7759555161351,-2.268529152633853,85.76655908972167,-51.361542312903865,55.70807420548521,-0.8265489407803575,-0.7262084267612532,-3.642026711398824,5.058784683879308,3.0477775975948562,-2.6636333144699154,-5.298899394528553,64.10334095985296,-4.072030273526364,8.426617727171687,24.464015716248724,-26.49235409840955,17.558398015918947,-33.79664206894513,20.850036475770217
131.6781005859375,1.8827056884765625,20.80617516219406,34.63414365138276,-25.782545593412586,-50.55137468337867,-24.894895849074217,67.83606728144156,-15.1060622715886,-22.447492584272975,6.099748299696095,48.19028594952096,9.9391980510044,-19.427085720601966,-8.739246565560801,-84.38018083214575,44.66610809771021,-14.73717500954394,6.34094523199756,-51.01288475141907,-6.810841004008843,-41.16892344533139,33.8442616267328,23.214690334232067,40.31750576221139,-3.9728815408654796,-9.158449097612186,9.697398409114397,-11.741360411613227,4.0401713458368205,5.307627237483064,-7.194040262738225,-4.2505813788170705,-1.3412766551647475,8.951965051522341,-42.5653081688414,50.73703279238598,-18.62797679017612,25.698770366456543,40.001691380850744,2.124527636413618,8.079336609908061,-1.5502955772591105,-1.6380095578358498,22.146112382305414,61.0635920799584,-30.111104416683837,-1.0460039224247262,-26.07863877228509,-70.93395234246015,45.04118429710011,13.143749736914955,25.234572209324106,15.465018384674412,-5.2873359235957516,-4.213968851594087,-28.05876623729456,-0.6734489831093022,-13.01638244687603,7.386506673489836,6.290122258995043,4.220665689137219,0.09889736942858796,3.991452680795891,-6.70607035384295,-1.935432941815026,-4.48138686234572,-6.180003470527828,4.556472237901801,5.39478611524635,-3.604031488413357,6.24954481652021,4.100553736100233,-1.580798087206591,3.8794569510444106,0.8869737492472991,2.588681027391387,-8.99136018688666,-31.19028149305902,-8.499264271615132,16.93299932803289,-13.101961891440965,7.149903793287089,12.377881491626148,-3.720676750033062,-3.798114507792751,-28.033933498150358,-15.494282823176432,4.917452581987109,-8.492096633453759,29.383935089825957,-7.042345215337328,0.7560889377421454,7.7723510194053915,-2.11542687326546,-21.56545854654938,-3.837036744777362,-1.3830358337890423,-14.982445036451672,-37.551012262061526,-4.8524826466810485,5.475809930580555
133.56080627441406,1.4723968505859375,6.138396972081041,15.921656763998387,-2.8452274491310576,0.06148317120845448,-15.029490535518217,8.9976612262939,4.211131739219268,44.19471910807781,1.552190214442657,1.8821064147847517,-32.447975459034865,-52.71289878062524,-30.0190359581592,11.045106531828306,27.42036837361563,32.42615203176541,38.61613904678784,16.375645260268207,-19.38955246062321,23.780356015942147,-14.921309479641595,-0.4254235161052933,27.463985145356528,25.841622141741478,1.9507489442549413,-49.58229059061288,-38.527234935135276,-2.3880624630382936,12.4763704351697,-5.022981241768338,-7.1824866630627415,-6.8164634337938335,5.504355550782108,22.38771914020005,41.712315837664065,31.5215492752116,2.3761296190341707,29.24615044758109,-3.616205737946749,-39.122387131064336,-24.262468756913282,-8.529540408196283,-31.64749888889807,-8.527943606389963,-23.9207916667562,16.772944049293887,-31.755294880314416,3.9991509662194415,34.4367736661747,-16.385835815344553,5.143284287530534,-42.37449518050239,25.75002173351183,-16.67616459747523,55.44568996049835,-1.784170533894283,-34.5777525492908,-6.74249851385486,0.08972924111787695,-33.824538708042866,-5.574943623983948,-14.323556336566453,75.36347038614144,13.618201572011195,1.5029880896426073,9.126939589732824,-1.6309772183221218,11.961147714914913,35.37610424796305,-42.53660631790141,19.426076573556468,0.8069382271519028,5.89633498318765,-3.960731854464418,-96.11788311588377,-71.12111122570298,25.09030395776374,-3.2237546507654327,-1.387113736827804,-2.248751030132879,6.864566522679409,6.136227121521953,-1.1543125972005113,-8.394610124616182,2.2457493072329036,4.673257226714815,-15.02544738868656,6.771926859112452,7.614891095818435,-9.518144480699597,8.14731978058133,7.2765506072379305,22.574222880984177,-4.358797086163824,-6.392750732687265,-5.884783317756804,-15.218159094123472,17.236276911921514,23.384460616556225,1.149585040350921
135.033203125,1.4720916748046875,4.223598800006983,0.05286386465099158,1.7057688896226801,5.042498180845363,-11.635606557195276,9.159944684908353,13.97926133847218,-41.80032195428442,8.801018655276522,15.846610587627323,-0.9928665841887234,6.875779104114337,38.98809022050918,39.014243594283585,-24.072896312222685,8.836759726605628,-25.004048646983847,10.78047256574552,38.589070204782274,114.87696708270023,-113.41223934008943,8.355758429970447,12.27441306961622,-60.957941907949476,-35.50136973627824,90.50901383814404,37.20963452915067,-109.95871789544738,38.93669416870591,-102.69378546119141,14.408316652025302,14.867296899304133,58.02810214650675,36.094104685669116,-70.24137074849715,84.67718650534489,-30.787912195306372,-79.09962375349805,-41.62774352529925,59.77890838733952,-0.9025992986650611,26.164907208411822,47.486383627917476,48.10062576777801,60.70394388181121,81.8161520006165,-19.25031202399253,-3.207236889105821,-30.551817186027755,21.948547588291774,-132.95387132791944,-23.88949674521344,42.040252853474975,23.630537749083242,-15.732760947770748,18.320965780906054,39.33985677238417,-65.16311964955011,22.252802775949494,18.890580985081414,13.084473888059417,57.21278218870741,-14.148206316118365,60.19819605193457,-3.726928408717237,16.788582533663142,35.19371376495355,-10.763486624775737,-32.98091729193665,15.406737060064112,5.444546876114899,-2.2032487009508595,2.957396088265101,-3.3937927019220573,-1.0229389335190286,-4.436179377084526,-1.0230267637841306,-4.527847681074044,6.9874074960468135,-4.660568478965315,1.4216236510236442,4.4843601729913765,4.153616988749654,-4.762706504830392,-5.389646971545369,20.74608057863288,30.39444029290186,-18.839719277172794,0.2717203586192727,6.729132397071833,-25.28069653204974,-5.590668857933735,18.23253866643444,-8.862011649624083,8.423696097039207,5.38457601772317,93.96874036968907,-3.771432680557652,7.072526852686339,-3.908588969433831
136.5052947998047,1.462310791015625,2.7288213678124578,-3.9872636440169007,-21.43702623294063,8.115906174369627,-7.110491730662887,-0.5006997085668221,-9.656445358765982,-3.0577320984587146,2.497632071134994,-35.38711831081431,-6.2058610486682015,0.8177269838210752,-24.663772276616587,9.70514248988526,5.2403510244332665,2.2577525948604187,5.629379321094199,-32.27205460580256,-14.725834326498006,0.6350496017937677,67.37972308252766,23.634854706002326,9.7555531985674,46.24714624024467,-31.39099599782231,-41.59846295610443,29.290067909345485,38.97333447762585,-10.107977182485904,-0.38193219433800074,-16.744283236087803,-41.0517702272626,7.367256784556226,55.1705984483103,-60.29796211576878,-7.379233460826894,24.41292286690546,-2.6851385037118076,-2.154171811310653,21.200864110201675,-15.434745124753384,30.510714845406618,87.90843050756504,-5.485769133688644,2.8107974849881643,73.5789559406451,-0.2966305381794986,-41.54800940906339,44.64372390756104,-9.780392319141011,-95.08353163100026,-26.74746454107319,39.354203698836294,22.62251831224974,27.678152111549217,6.650071098767724,-5.494798418201765,-3.719635876187562,8.959435142775407,-21.332433175145248,56.94867657779504,63.294556431312735,1.9970288283209126,15.384570209619023,11.629466108445376,-8.372612341548171,-22.541865885795403,7.806813776138607,-2.33119615612315,-3.4650778342965376,1.8624341438687102,2.95321094416629,-0.22883852034282093,9.003586793138442,2.4407513695734284,10.578662986068764,-5.280799929762344,-3.098788799088129,-12.434151802818874,-2.9671922008066005,-10.281012970338205,-2.31588082249075,5.8675598053614575,-18.110181741040513,-0.13988806847511448,5.495697351793835,9.41339966350433,-2.3683218387190994,2.861313135404548,-0.3835841938695226,-2.837367698436541,1.2658569101612698,27.328237579994077,8.31702154714416,-13.547178309510816,7.9307786796904285,-22.396430313686515,34.077062309749266,10.43736975357094,17.523244537535582
137.9676055908203,0.6208953857421875,-12.134353846532932,-1.2007105635983066,-4.735460000005968,23.60612696663672,-10.188098354149338,2.300345194094688,-1.3697845533018258,-13.364034514808065,6.41288200206859,-5.290028939519644,-12.465632876344658,-10.0071094819086,-16.963317289103145,-5.702249107056713,-10.022491897947695,25.381292915178665,8.430854911721491,29.683910228874293,15.989546264068247,66.98007116123156,-19.92592637268036,-43.01771638450275,7.018804989772722,10.116374546948185,12.022437655462763,-50.13368125611932,-16.86842020772033,40.481272743877426,12.80214146091058,-20.13384779988782,24.021784585700228,-30.734646471830853,-12.748916155507684,12.207558161729548,4.394048567123541,21.257163195190735,47.84518459617621,-29.686214514147245,6.651616843858802,13.556854066672516,-0.6834715221645045,-7.912259248652591,16.771751936047128,-42.561586309902054,68.57983420943853,2.9154207358462827,-29.636416475001816,19.214729648841086,-38.52193884908393,16.05630167624632,-33.10421065365928,-0.9755290754652268,28.000844510980542,-86.60116851389202,-9.416531456686132,-35.66585025786752,7.066717146444024,-9.046296212533909,13.822200466237934,-10.72679848063288,48.89504948807432,-3.1235461663694495,20.226752847010495,-22.804328218803985,36.75602714954517,7.609427585573421,3.0738579215862605,4.158568328036247,-19.09850966245408,-29.757433729864673,-1.2629277578082663,0.5020026923665206,1.3797680213406025,-1.739291456315845,1.3062050998711192,-6.263831748389614,-1.5214025588880888,4.2667323606604715,3.7933580860466245,-1.1903420429052225,-7.0060637029198585,-0.11371620952375139,-0.2685617575731769,0.09702546331885975,15.756380413286214,-3.048312903408564,-4.359377803642668,-9.828286207074237,10.69918913309752,-0.03314662054004358,3.039844525826351,-15.946788179089651,-41.68963417311551,3.4867755568278564,-2.4287108195042455,18.28373469014489,13.487084834319417,0.7087668527129228,-3.0998503853005372,-1.6751160832079632
138.5885009765625,0.9514923095703125,0.8510964312614191,8.219611451138682,12.922208320855523,7.785169573906289,-21.96622766374708,-4.713167462571189,-19.035474512102166,6.464929828484922,16.937967536652373,3.8770794668218542,-19.075838477453896,26.594517856818985,4.848448008091762,-2.6552360755007083,-2.5244337761659077,-13.216363228006873,-9.938970929018849,0.8703388020387557,-10.775768149301953,-13.617770991297686,39.53393752396524,-3.9347765271498396,-2.9837624062833585,-5.067146251155479,6.064744817530331,15.327939583685605,-6.630499383441796,-1.6400763951728243,-19.64532851546444,0.6653753106316648,-11.695932041992958,-27.6384953883997,-2.0983975030393998,-10.826691552938605,-8.64160208497022,3.5096954852575806,-12.497941774293873,-25.371592397890083,-4.3154743873756765,5.151205468381196,-1.5239450348874684,-12.152353421299706,-9.552449761333161,2.119995896162173,6.009708289539895,52.23137932199814,-11.954123133293445,-0.2719375119313261,-6.369406375641113,-2.615448797183124,-7.436565557968851,25.771771896485497,-0.24799675328149107,-9.387227648716813,2.272789260975549,1.237537230989704,9.921256689873626,-17.701271935270224,-23.117701255156984,3.0497022929476394,7.793650043385464,28.35186857560822,-0.7231026615626217,1.602224107888029,3.8703680285330115,-6.053478263865149,6.419242835625832,-4.219244777817489,-2.481459010410389,0.6613060825994892,-26.009387256747434,5.0174981956777716,-25.439303669478182,-13.334907294096439,-14.160508383077657,20.2286049046555,-12.885473146060368,-13.845486834622086,10.751636512021001,-26.422081291333114,7.482632023147691,6.596591402001088,-0.4279279344518674,-15.147112039801536,38.75636637967791,6.451395077428572,7.881377639159108,38.60430200148575,28.221788875358214,43.912287774889855,-92.76596912839338,5.032500919360266,-56.82159916732864,-25.79547274463787,-35.57672400123306,-34.03395627225598,55.12679954987222,34.009128583926156,-29.250316786591178,52.54855197489873
139.5399932861328,1.4321136474609375,21.724859488931585,-5.688529639703084,20.397766511378357,-40.62233095338986,1.2050639005077635,-32.826497136005585,3.99683581640164,-41.673190384929555,-1.1005710783380196,4.798339213450102,-19.207022722386682,-9.143420081088033,-15.072516302772476,-10.728442418664795,-71.77221864828748,-22.44127865950007,0.6703071406632164,2.3023960433329194,-0.4523360649919063,15.306625993869625,12.905645710157508,4.572268465736508,5.3945278644057595,-3.1697619207893135,2.1053805986703975,-5.8997045983863865,-5.259098746454731,-13.29705939388495,39.07802663358676,16.445151757307908,6.088486190749663,9.636715410423843,19.880109404356,9.08650372558014,3.6658017343313567,10.050357224541724,-26.82314367965525,-45.59129405913323,8.594621369655059,16.365559306415935,-2.9431305416093636,-1.3208946949221645,-14.434667922052661,12.514863572542154,25.54956746920315,61.141963502947156,11.697133515727527,37.86663846185847,52.73948201428125,-3.802274707698152,-33.09767824367238,14.94463785271653,-7.964847736579664,2.92168906206497,-5.366943701962448,-0.5580720800819321,-2.970874128516886,-13.988695128231944,-4.573095086269328,10.164549692884869,0.0751352949684505,-0.2852255269647066,-0.29678648223699877,-6.170364975931038,-11.980677611646417,1.6620878188500623,-6.425407744312346,-9.711893642522035,9.939281494827148,6.0784600964673645,2.777830580712996,0.13133091313490663,-3.8096722014897115,-3.2538187109673196,-5.482247720511431,-11.988621948739842,-0.3450960829035908,8.448159614798659,6.950652656744531,1.5288258051583474,-16.071663656726024,28.28123001781626,-3.2443221128283306,18.23090080211214,-3.325677082762205,10.55614113419328,19.72910714268056,-9.116401171304853,6.204086023184084,7.291504144519453,-5.772263435249385,-6.423967078030785,-34.57301187653837,-0.9470962592259429,-6.108130137549156,25.49673655660945,-43.42797408243338,12.469761968703144,-0.774452533474502,17.52561930578105
140.97210693359375,1.6326904296875,37.640525893426926,3.3297006594384913,11.458189037556306,-7.162261146849474,4.054098058818134,1.4425908454942222,24.541107622191145,12.86747023779168,-10.199963649952258,68.48315624841428,16.282797853589297,6.048779890319395,37.78241083573433,8.68012301335338,-48.31268007333807,-70.34403885059186,-6.443849215430516,159.74581887383755,-16.983770771868087,39.38011094966072,33.0476343401558,-56.52105660661749,83.22774588134385,-109.3436269948735,-49.882947669514245,80.65110748180408,7.8998174018451195,-22.47559688602045,-5.3841256976611085,4.67590068957848,0.930982120095921,46.18029603734713,-32.944007292976096,25.681908565469953,-38.629020829371385,51.51604248104887,20.58355612251303,26.295453834215756,-149.23757158535153,-39.421222652883465,-40.477694761335314,63.040678825642914,5.730857571810894,36.529503566502925,1.98200103710413,38.95317692001767,-19.684530525139582,2.483260170345296,24.001912300916658,26.801658893818335,-137.38412817392253,87.11914509560073,15.5402824071303,41.70242885123295,12.993462737342293,-45.7174930693152,10.971573956978048,20.79595287524275,-44.169804191363234,31.910095693303738,-21.280073805120672,-6.917090002535211,-19.24784631185723,-26.54472228543666,-54.01863782738314,-8.980261031708366,-36.4477035612443,18.95643450205209,8.096283651738624,14.932685952367015,7.2487987427169,0.037809658691719594,6.102698295110831,0.3997511641975348,4.543684480851822,-5.397164397912835,1.466836469854341,1.3504851664262176,1.217149438063697,-0.514736876896964,-5.081202180508092,6.307563577622669,3.917007022924383,5.502270432279641,-9.977765599074306,-0.06863219168671586,12.677645282873069,-2.081938195952823,2.5728611087874356,-1.5714466921311827,-6.301350175382964,-10.90121736878144,-8.564582232632267,-36.35563733951944,-5.902987755564494,31.697925269051634,0.5174230679273091,18.04876345504671,3.07531916209866,-36.55678234086555
142.60479736328125,1.54180908203125,-39.37553176597272,-23.766110047974863,-0.50050439342332,9.467680642026815,-22.022853929749328,18.149298479693584,5.293911746972608,-6.837655363152778,30.621100865372387,22.58688802819824,18.610472822072012,11.91478919817406,4.816928353386969,-28.55583467205179,8.977597015013853,-27.33775710849374,6.618483296096897,91.92102464102855,-3.7510144149642275,69.26114792122758,95.7596620878957,31.15988766516842,-25.96522136553831,-2.8436447644370113,7.2352504166144715,-14.019621378426319,-30.144605338130688,-4.16265584063615,-17.967131209402847,-65.8469158273077,-6.894803665483401,-9.060816705042036,-35.99779247515131,50.868992988668936,-39.18396861014781,-8.403545042626925,78.19282451234913,34.05616697055814,-28.058279034826736,-18.378730032488434,54.2776836330456,-71.74294765703456,-2.6264251920395,-15.302534532359171,-3.2896405569159732,62.168864819871345,-10.514737634576697,-9.800687628386163,0.1777467040066938,-1.0811682443162407,-6.268868560400574,-8.887842294357798,18.422620812441394,-69.07602952122247,2.2796208142189442,-21.715967607339007,-11.830938934327648,-46.33052167858821,-1.3181151735456673,-28.25127298957037,18.257352947248535,33.37167685247925,-54.186609666678905,-24.500221740449827,-22.36666699843083,12.224087359284834,-12.502270980408943,-8.855703348863853,10.968147450280508,-8.447462692195085,7.446127922268161,22.41485570595504,-9.327396735087172,8.364911025300731,-10.882528542832631,-10.305331244947702,13.215343055038575,-0.6943760083017301,2.968448273385232,2.0613688171659112,-5.128766400122479,3.963855663557,-5.628405122115616,3.0993899260829783,-11.507380951455579,-0.9940790937905232,-1.0350338275926054,-11.781118933959085,3.3957204090189395,-2.6405200351633162,8.63729124234864,-15.148513134829829,-4.961023429709353,3.878171368983778,-25.613339314243387,-10.634346604049886,-0.132318423691078,24.699993380867404,25.421928278722675,-7.185402222436892
144.1466064453125,0.6114959716796875,-24.15801177331242,17.676260209168596,-11.228041992989787,17.557002890282014,-18.463997348617156,2.9018242106959313,2.005065889554828,4.957531134999382,6.003017895970895,-2.657190869554335,1.78076719043375,-2.5665930679531046,-78.51290392688509,-3.0103584088698767,22.473791655852395,-29.975738492010706,2.9407119428913617,-9.7239212455385,-59.599164540262485,-28.42585311303226,-14.553755736354729,-21.62819714109484,13.515122594098017,3.4172219518553915,58.526220168369385,3.1065284748402724,-8.714677298479392,3.0779097304072933,-23.105569488443685,25.0893728490451,85.65098386333968,-0.36835738565202014,-5.080540304545885,-15.276441336570038,9.66816446247601,1.911201745922119,-43.520191623822285,-66.9716140536792,21.3266139975381,-58.375196375850784,-4.182605158814198,22.013487391806382,66.61640723405452,-18.83626681221988,5.31540372747085,-6.219576763358493,-9.147696961649357,1.3079427199488958,-0.4953175893055488,-1.9152840383120413,-2.298442910997808,5.501713452321373,-40.3068599741098,0.8336434917588447,0.49836259179592357,-0.5407300615451378,-5.986628024944633,-1.1839183360559966,3.6993579310474676,1.210059819758805,-4.015349386047461,8.848448203437176,-58.774315222823056,-7.1335219953935605,-12.890273384431591,8.208356931518281,15.340373635454393,-10.63693558638301,-32.94394316749094,17.71042279459966,3.6925726733893054,-2.0867776540644236,-12.931605962314496,1.9329371578571442,11.957243714403974,2.292420550273537,-4.906780305887719,-5.8228118671681415,-5.256834349673176,3.835412410579485,9.706481161186964,-0.3025364534149816,5.136302584847149,4.640718229840343,2.9478066871349,-1.2972467727377661,4.924201300615282,-0.4252893222713443,47.130541613678126,-9.059146390222644,6.719915539977356,-9.783895798560057,-5.1139393740129,5.309376175972222,1.516515928788987,-28.579567059126454,-19.87098394130948,28.847442263307613,-29.507152577970274,7.406952041817806
144.7581024169922,0.981292724609375,13.763489121574782,-4.62873439063785,-5.09914521145685,-26.72069207059931,41.40927788937608,-10.444406643813547,2.949256041613638,-31.04835844495559,41.98540779549373,0.5194085214792736,-14.661533867696486,-16.353739195080067,5.971286052796808,-3.4753698908662938,2.2499630732590026,16.70750779914074,-8.649547662023005,8.966442427544653,-1.6019779381243258,1.7309694565358589,4.6867897764689985,-4.065435124583615,21.10653116327437,1.062807999728555,-18.305571579781542,-6.337636066324288,-37.721246740657385,-12.709910535672764,0.5815195907878913,-3.1007332051247536,-3.570512449618649,-31.003619605172467,-3.2329656269703464,-3.2316459192931006,-8.845384184866974,-5.753733247489992,3.0898317685236476,-4.968585749420355,-8.711194203127318,1.3308010571240128,-1.6939522308899373,14.231507674615203,-8.52236627519396,-3.0775983009490457,-13.348139369364834,2.0793487167519302,-3.4600388094961883,1.8093918251704593,-6.14896001347026,-2.396141860708283,18.432908520879124,-9.572271923349259,-23.254402607893326,11.047616528605205,4.879045898769016,-3.9114852197372416,13.127475809565972,6.037747765699125,-0.07182535207556129,-0.022251900211174624,-5.095104102721766,-12.82656165775926,-3.1569684697953626,-32.8392662357965,-0.4384803899306462,-11.581739103407894,32.41302661817902,-15.143623564768209,14.762306283509675,-12.44334388062697,-18.545567240316302,20.311820351350832,3.58265281901083,-122.32830466046173,18.98327242596382,-37.941308015072174,32.869449087149505,17.152073685761675,18.289031138656537,-17.200526804936942,18.067833853568946,-15.150185732314242,-13.423670886714513,-22.25837330066932,10.500227035566219,-16.067351754149414,-14.309742032546335,43.494561875179144,5.546722241982559,2.9655085517753403,71.12346486367007,-13.516637961003322,20.87362675831679,-0.8835756725320703,-31.108991244451474,-10.369725579876121,-24.486122343929996,35.02206071831406,-2.4416252986995595,11.26094033860149
145.73939514160156,0.6309051513671875,27.744155297599207,21.481038373392664,6.927874562467696,-5.304848386431628,24.654777715779566,-3.783212110725651,-30.90594392008027,-28.798923162732425,40.39783387196298,-14.743379969115713,-3.203042130607704,8.05960107102011,-10.854505909247974,3.817707398103486,-0.9120740192820781,8.193482945065306,-3.8406411007401884,11.561027017405104,2.231948685101821,3.683601020497549,9.906704479709491,2.58837558332385,-20.177260373145973,4.906429451489926,26.28818957676319,35.883453738131195,53.127212105332305,3.376529051061068,4.513434376271167,36.48275452083297,-7.369615061501327,-10.065860439649477,-2.5754519791201043,-3.2430827095461563,-5.190537980152747,8.255544266763348,-31.135636284760807,14.991838400992066,-5.935697331203777,20.333614608620692,-14.306022632885664,4.717444513875094,16.299884176400415,-36.64764945752761,44.774753100744306,11.246295536045714,-11.48585656630852,-2.455716798754395,1.8519507867210856,-41.28357232288628,45.44838334412745,-12.524528041286974,16.94537924948457,40.33806397961149,36.23549750020245,0.42272404793155083,1.208942734479436,-12.352000937846737,-14.84711280243986,-7.502786728835903,-10.53290194754112,-4.4889218760535305,3.8564276912469024,0.051197504213457846,-5.195080033429628,-1.701250464585776,-0.3426891924362616,-1.243626083769262,7.584196465918119,1.3489714811226323,3.9722091836502917,5.554883621804275,0.7583952352223671,6.404458222500266,8.25956735185108,4.149204399366381,8.045747598340837,11.446827977083927,-10.539306131423064,-14.056957734830652,4.347158046520333,6.361051638293875,-5.336857143288547,-0.296977400634856,-13.275337703345176,-4.072487193027514,1.6780241958491633,-0.13909346284859225,-5.604206887371562,1.8851702207958794,-12.522405994465458,5.897368151407355,-4.529651485318996,-10.220794287811863,-4.523935882863487,4.595279033710889,-61.578488598545874,-20.752021853449307,-27.311640503724703,30.80435581831769
146.37030029296875,1.0814056396484375,29.902957270788008,12.992317079455225,-4.649437508889078,1.7293464161721952,-3.6189093925814007,-3.779935927563164,-1.9414857326531902,54.48483304762434,29.329193490391052,-24.999070027175588,27.2957627854486,26.945500993456875,22.16803737308615,7.592891856637982,11.196078004728664,-13.496117577847897,20.214944154282605,5.868567542857526,1.7286044219469359,-5.803235021764651,0.8569599328846706,-48.47028677212222,-9.458852535621128,-2.3431183109844986,-2.2998149298442057,-26.63265043312727,6.873096343179279,-10.150575375734784,1.3295513407615343,-1.9556712061201864,1.0003631842960123,3.5830717120533055,-0.4264488355771703,8.82529478137613,0.8217302539694453,-6.498892801023919,-5.131675847579064,1.611083714596784,-19.686079395460734,10.818090619472782,-2.748356109072361,10.117307084981153,6.551671709821619,1.1508377888828503,3.872906935458077,4.92495304467808,3.2040753604032637,-3.497942859264093,9.55837512476672,4.586046069817556,-0.4592470468614077,10.575177508583948,-10.174221951753083,1.7157495204545503,13.539180252854525,0.19576707827533818,2.4679403853758366,-26.39372072562288,-0.5218560455598615,-2.341256277031601,7.889564072480566,22.19920451067148,33.71923167362814,-8.801317074693896,0.33161276632667835,7.030642745891283,-2.715135820474999,33.623419642917916,42.662899664148114,58.44208496074448,-2.3722798225948365,2.564863352397932,-1.4414340031016923,-2.0945911131990713,-33.08524180142633,-6.0952327843670435,5.951728801559047,27.314152626287843,-17.582929397355816,-22.385651292672794,-10.983094683473293,-4.640152524956274,2.6959158028778107,-11.285377675002632,33.25419530309791,-7.440058972784405,6.546056114468626,-19.402396980907103,15.905404239166753,-11.504827499025279,4.527373658184361,-32.517426970440575,-10.181532892334168,6.638148501116122,-12.874136239665638,-2.2282486441668325,4.735766341900618,-2.568646819868723,22.67599630068267,1.5060090307015912
147.4517059326172,1.6728973388671875,-8.930850789137482,-1.3580729175047863,-4.829557974963656,1.7322389517059884,2.900412379207054,-9.429973730941049,6.9462138872078105,-10.659754873944673,-9.18297201196016,6.8048019126135415,4.9149069697115095,1.8884660402855138,0.24543999012287407,-1.196829263141068,0.3040007998856722,25.650189204274717,-0.45153231477630085,-4.393868467695686,-11.016622540980407,-13.260197877210826,3.9910196773651334,-10.97249095048012,-2.2519692622474374,-6.1478940459822775,2.1307989007509747,8.220592824760507,0.9031873589201664,7.904918833525773,4.704103321913606,-11.476189061508595,-5.890651131900798,11.933010150614225,6.011959942392687,21.09308156842549,7.36160716898036,-6.077510814015317,12.654018640243,-8.5461119582171,3.8609654197035868,-13.169363841787767,3.0701813188391114,-4.468341334799464,-5.281958302305968,-3.3202938117126486,2.1913379304603398,5.1588039128006695,-2.236232754372323,1.7151233719788048,8.911998565816813,-1.988184687774645,-42.62074104056962,11.520547331379124,0.5717240520386984,39.04443686042982,35.43082372277868,-34.23266363252789,-3.0304286565597867,0.4091534357865727,4.505117949294224,8.597503897218816,3.028878206484663,-12.217783714418792,-6.741380663620325,10.941837909307079,-7.664505239276949,-7.201248357956957,-0.5908160317094311,-0.6942177075769709,-1.0211715010371543,-0.38386504403751953,7.360893460998662,1.505353759392448,-5.3735872647559635,-1.4566501901150901,-0.8992231255775369,-2.8491143172966993,5.280817186194019,-2.9228557534713238,2.0229482003226904,2.6521681955801517,-4.192142676341443,5.2044614333050125,-4.62251715748686,-0.8061159508038868,8.553172637416218,-8.082242839323166,-6.753377246821312,22.83402692525282,1.7560486815124994,4.134537901613273,14.151370369402395,17.49260932221137,3.63108171156581,-9.423577140745266,41.58061609306362,1.6768541991743167,-8.85312290807834,-9.810544387469587,19.325643068322442,-4.910920206969556
149.12460327148438,1.5623931884765625,1.736097971315881,-6.094344790264763,-7.787019881978105,10.300230851883201,5.14358724221735,40.30207111573068,7.918178015186824,1.0839099940724852,6.088496677627082,-3.018136178638415,-11.895473804896818,-13.10161091332444,2.297854312662576,8.31552658753818,9.022208679607116,-10.901235894576025,-2.794592504109558,2.1161613703875566,-32.59368498556448,11.931169778468988,4.392930135358919,22.872582318656768,-28.182214152523404,-19.387088233208768,-55.982996976432275,79.22142672014897,1.0644869638571954,-7.621592328652124,12.477198707531134,97.06210726430645,-17.704894731687794,-69.69793222561556,-32.31439293956884,-0.4417276290385548,-0.8097596068740529,15.558750829115557,-0.3571518049215447,-18.114857922507163,3.5713229988091575,-2.5989205975341148,14.709691758014367,11.924696663374869,-0.5784057712851268,7.390214541607306,1.9690473551734948,-11.020066412578302,17.95902212818988,-0.773670893630392,4.410501061645954,-4.920118300157977,-2.8931189058908755,2.9210088036462625,0.3802850138644871,-30.04820066486085,5.062032630944428,13.09441024605074,-2.0480248747863232,-0.020556652351872984,2.2265404976672754,2.837827131836057,-2.135433562673252,5.4562902240147935,-11.309889127158929,-8.261450346282714,-1.578525130914901,15.615310126116364,-20.60657991950795,-11.859551381997274,39.16061159168386,-18.33805314769171,15.059323977041824,48.50544916260465,17.95676114423051,5.940912138244273,-1.989022332643742,-1.7419974582837365,-6.636279385232733,-4.997369744332232,-1.1881581196191233,-0.8959474281882143,7.881363257215407,-2.4790248253150993,3.286366803855549,2.3361788600971294,-0.5271936519296385,0.22166900455065353,-5.5894805725025005,-14.285532773236593,12.375013290072957,9.574329822358372,34.430898831853156,16.578913583989177,-2.860332502994501,-16.94906550645095,-3.62681212076994,-31.7110757671331,12.382879284743108,4.6496057118273795,6.740986552035322,7.773191578071682
