start,duration,0,1,2,3,4,5,6,7,8,9,10,11,12,13,14,15,16,17,18,19,20,21,22,23,24,25,26,27,28,29,30,31,32,33,34,35,36,37,38,39,40,41,42,43,44,45,46,47,48,49,50,51,52,53,54,55,56,57,58,59,60,61,62,63,64,65,66,67,68,69,70,71,72,73,74,75,76,77,78,79,80,81,82,83,84,85,86,87,88,89,90,91,92,93,94,95,96,97,98,99
36.56610107421875,1.9217987060546875,12.522675927512704,108.64265694667522,43.11320131032821,-20.62274679160832,62.67894520070567,-66.40763532944389,-38.23316564689847,-51.457728611232824,-22.749127522818302,6.766415192092548,11.993336897134153,8.964487034601124,4.564176712773102,-18.608620953683698,0.5942189146207308,-78.28410764086784,3.385300081559804,45.28678050972748,-34.79752914511447,-58.96908480003985,-141.4565274579548,-77.8413229051549,-65.99020180153326,-73.15349160396508,-56.01460515938814,-3.8503608983431006,59.296995074450294,61.978035446066755,3.3325169387619136,17.663665156900773,42.06976041892373,-42.913713976585136,-107.29110764129044,-41.2122539960538,38.81852795933264,-1.3572740767935048,24.051113534266577,58.61973001472984,1.2896015276667612,34.32031619626347,-67.37755518509245,-67.51212790116988,31.888965284673215,-34.305827708217784,23.757771370495625,48.4039134761596,13.575596032655369,16.76231489814314,39.431394688954974,-31.792275297784826,69.47853989186356,17.69381390809438,38.453797111059345,-19.650593846237545,39.9718389992669,-37.64391460231437,3.995722979187112,-25.588415559213722,-21.939005615896164,-14.69072363154234,-4.070786462066383,-23.7770693525646,-26.861488232280152,14.742062631829377,13.548480969617287,-15.541691540416586,19.937929538835856,57.02538479631018,40.69056701349657,8.722336926003342,8.327450070286815,2.361709209660745,17.147009852430834,52.910771076240856,-4.605901964181674,20.23236692788071,10.445385438559718,16.896017328905028,10.126284645270697,-17.88569328444641,-3.1459116591471354,13.024984008892304,-7.220276124385305,-16.128159519288694,18.114386515878916,10.881937605049892,-19.44759373339962,-5.217723938550543,22.82457095698873,0.0593525198943059,-8.622719199312737,-8.436590301161658,30.14087099541736,-8.868870943061058,32.62577582457479,22.375783030473,22.640069824607185,14.521914543010313,-31.481240428798152,-22.076146524069497
38.48789978027344,2.03179931640625,32.7049575435208,-54.491137058874955,1.2253417562553786,-25.81787557790879,4.010031627545706,-14.950541106809396,17.18300137307081,4.189044072407523,-12.586117942702012,-57.74157857753702,-30.84507009261811,-46.07775646167377,-58.251364041802425,6.119257937702456,57.76475758487819,-113.84810309808427,-2.82776354905481,40.781947464445956,135.90173270924285,-14.648804077678072,3.8966726835516745,-73.60471401218291,-38.15587146364909,-13.418005404461448,-11.945301839342656,-126.14111416294382,255.45628981304927,164.48689390903735,-54.59573051515859,-207.92993764381146,22.047024853353165,-24.746702505964,37.041313213545166,-20.100738402563152,6.8421989498546445,12.610491229741598,-41.85456427029394,-89.2095491253229,-58.462642140501345,-39.40605247943911,-64.35813575131603,-51.12156830091413,-2.45619340526871,-0.41209236640822056,-75.75482502925475,15.510482062400538,22.239412916319996,83.74706075227269,-76.439813892786,-28.6804752145227,-42.535764198414824,10.050428092286836,-64.93567469733,49.24054843680183,-51.636012075545,4.945279490810705,80.62015025029338,-35.28134174908034,-74.7986710130555,54.17237499067018,-11.285273113047559,-76.54119387700956,145.58794500662836,-176.0525271639986,174.38256852042127,44.171841433003735,-35.42633606181009,-15.81033560623284,13.314054123788964,10.489805773596395,4.968143549688339,47.25253052644498,-46.239672139310954,3.188279376370467,-6.771571401439122,-0.3660605652294038,-38.382883479877314,-30.630201199648646,38.17531033571852,-35.56857259158237,-23.645871218438764,28.1141043258046,17.791474846606313,-19.66583069256854,-12.484267372867901,-26.327332080338216,-14.597077518621163,5.714060011582636,16.675746489983577,7.886643766804296,-44.695745288161184,6.808068828350962,10.412299917164644,-7.228266182013472,-6.138371697920704,-7.850493983002003,-2.3120820663249333,-12.553717181943366,-11.554573913358857,36.83238058832811
40.51969909667969,1.8921012878417969,3.3230827472201447,-1.937006622232614,-48.702738875889075,22.086377077259137,4.20980191988644,41.20881779699005,23.812847698115412,-11.379589854840654,53.246219930076606,85.09090574011518,-2.8296001529513255,18.533221013334906,-36.52199121144907,-18.687323445230735,-16.39815967810883,4.325040588051291,22.385539394307017,24.183447566789244,15.42493342895715,-70.6942977991263,-111.01396639976086,-56.757461995139245,151.3656117262346,183.5094208921173,-18.465393006670674,32.984481087931606,95.91480730425032,-217.63190395959091,-53.927848644235205,102.02302704635835,-65.22629214047679,219.56381747913466,-9.368315958903363,100.42535761207463,3.841312463330919,33.28724362070983,-41.97979678976719,51.94082731642821,-29.89541290555369,-17.29540913561344,-113.3762584266361,-40.176033885561075,63.80790429055806,-37.98374817461208,90.37453838819033,28.698680992410793,-28.212704641485654,-36.42023041929893,25.411603930198744,-1.1594205180549082,13.390703485022616,110.39935004614328,0.1258908731522439,-69.21369446877479,27.52610855603755,-21.483651242902894,119.32525427678051,-77.66986820640089,-47.24829976559383,-33.249554164544094,24.63771397574687,25.01394260377669,-23.12347534621526,23.210780061465307,-114.97991663319459,-35.78061214480533,39.032159494866534,-26.564833910100113,-7.297061841911573,-13.002609202391076,-4.95513790545462,46.377280306018186,16.44645714139652,-35.27535893456877,4.3933692710289645,16.024431460319235,13.271135573155671,4.489683004255895,1.9144390488709144,-12.389280491171096,9.982342798139442,-1.1058646883362542,11.32042758964024,62.68030674559008,-17.511074342188287,2.5763426968651295,41.62187717232014,12.119589546518062,-14.651187499233082,10.570664683730737,-11.470350269285856,1.370611220055171,45.763492879073766,-19.33567031486882,-48.70705133174461,-22.190260158734652,17.204515249507647,13.06452970247204,-39.48069494243674,-10.0951969365609
42.411800384521484,0.6208000183105469,-6.0495377182836245,-30.2640331572182,-13.314486056968956,-14.828596066938612,-28.864679698909562,137.5215713440626,-11.799405889428487,-33.77519711022662,-43.457332651691274,29.304564127789703,-122.05577495617447,2.6897657942222466,-164.70360192767083,-2.388168208394738,18.25552134438964,21.669700142370147,61.768143172286514,-30.42993277630078,-54.842006324090576,14.768671078725474,198.4089505936135,-28.59641696675702,-208.41635408276508,176.43249794722982,61.15434381452871,132.01248116058022,-87.17661174761778,73.71871836748628,45.50826946814857,-141.7625671318058,64.93237431726055,59.34900600815156,49.041974584429525,75.8585673911423,-31.275690334282753,24.09681611712835,51.82329635143871,72.6871709163517,-2.19817277097561,23.77212433939114,-108.35483860532538,-10.43255553465858,-41.07091286761029,-71.5185365084302,-24.34676842813763,36.22984954063273,151.61571248618196,-3.0071968224938956,-98.81448817097811,-18.680762084805302,38.784042378909476,-16.117364936637173,-87.59870409016963,2.438944019792089,56.89290401083633,8.343864753652788,-101.34000441265832,41.8690164637232,-15.784001865503832,-19.72785085844683,82.61923288927366,36.059754405419966,-65.53032143634103,-68.14076595735494,-42.991949412951676,-25.936094636431946,-46.519151721312795,-69.46792197586532,-32.2524109875571,53.70910791645694,14.16367336019746,54.2541372484589,58.71376270954856,3.8458064939482774,-30.948138695237844,-34.55157517044934,-12.130927380170405,43.02760004238357,61.29694227545464,15.961065077364871,-28.377956589471736,11.42859453374571,-5.40559938151047,2.655681968107899,2.4820611280787332,15.316764648584234,0.4741645629373856,-20.314836955645166,-15.863882090633064,12.118525141214775,-8.233567881526195,-12.954223380397131,-23.919791882702356,-10.550558497355144,15.782014537884733,16.96324254328613,-5.26406167260828,14.209713075877058,13.291760656981499,-5.807106326954
43.03260040283203,1.3614006042480469,41.19526320897142,0.12766019220988056,12.46152855270818,-33.329597699387136,3.7438263747323632,24.195613740531854,-22.444198481950963,-13.028447653595528,2.1173483506405475,-10.461322903015521,-5.31373214481832,2.3111517453419026,-305.4870575928083,239.17907485969744,-116.9234855056824,56.799675204182066,-62.370319717483206,54.08775366559246,-1.7376538777769754,10.873918613245445,-60.81164050629003,2.990166289190995,-7.757899397259749,-51.727707839991865,55.41892447768397,7.0466931510503485,63.89158042957619,-22.3548632992373,19.42720224666912,-62.87874180189851,5.523992367036392,-23.84415316835549,10.768011238917936,1.0313780350482276,-18.58827111089524,31.667201107303992,-30.086883779662156,19.538101259059076,-79.54734582135015,-5.102584123554979,15.052963158661566,36.70122239866827,-12.443241360267756,-106.31046898522507,-58.691951034649854,11.871876739731906,-16.617619499494772,29.519319604347434,-159.77326059263643,-1.3865042090214086,-32.25246783650525,-94.41564291448775,93.91131627868535,-61.20315873721719,130.7875764189449,-70.74826500920122,-58.40260395051825,30.32179613841231,-144.40171636944532,-46.07270059393832,2.5892889236402823,-105.90791733359558,91.46864179039484,-215.90237502075274,-1.1690602032979616,101.95706851947,-112.31973287590266,208.5571892249969,-0.26285280109643594,-14.290320191456345,-54.97619886478356,28.764231377229063,142.60115672963022,100.00488231176749,-72.25712878721686,25.296882857368274,-48.91799278748656,24.70135773213144,50.6241203259433,-19.79980796047777,-7.746019864640161,-55.82299326018071,66.04178796703192,-90.47146259600981,-116.04596959848654,-196.72223187178818,167.97823713291456,-35.5282222991887,59.46634284066972,-24.94238171588748,32.91749621307082,37.2228040122243,-60.083135187529265,-4.800842516081808,2.68378942333851,10.654088818470738,28.41676477168125,27.323619931975145,-74.95457548848327,125.73744116255877
44.39400100708008,1.9511985778808594,159.42938249374814,34.87684283422903,11.646459619406071,20.84003378893224,78.13203962524395,147.73333236083226,-0.40176995390579434,20.639837487963867,118.03512455848828,-56.96042173759072,-52.062560655014124,48.10827909450167,26.796192736573484,-27.460123382159598,30.96867186139202,-46.651628057142915,1.7276485882696653,25.01239594527782,96.71443233223854,-40.57309305386755,-113.47923567324356,31.786204604395305,24.580479581772018,25.518836708788605,-48.25580475794441,35.99952747090529,31.738210989070474,22.963747493307167,15.549216769096136,137.649150715943,84.18011221694167,91.08163923558396,-47.51623726648546,6.819836375656877,13.960104660432389,-12.0161327516388,-3.7069497558164706,-11.88855192533859,-9.333648334712269,-5.781373095155732,-11.422521258387508,41.33076075343013,-32.439260266500945,-110.41808195312395,-52.39557409579231,98.72322579025501,-8.01310552196829,-67.508522989898,-45.9462966495871,-6.220378861620997,2.992041064578148,35.76124663261059,44.91401187153123,4.263010397043715,9.76685194148797,50.70060878336423,-39.260436233594916,-4.054370746054516,-54.17732216767998,-53.77851575135979,-88.1005169666722,-38.41814332025427,-24.73466742209722,7.361984496071204,-27.365696960031485,13.813327946490002,57.14759965134796,-45.53465327481076,4.8558515627053325,30.857859280010594,0.8214294617412379,20.74064679382431,-1.8719644470663699,-49.979770055140165,13.191758646085642,-14.600101757114578,38.489513452354394,-54.025288757771634,-1.9020768008980422,-55.28278066918185,19.157137010313523,15.808692643686353,-33.204746991418105,-29.093228390020688,-4.9519426464023715,-17.282274823259183,-3.9156368739572622,-19.21531104942971,-2.7103105455541012,3.5325826185473286,1.3262398142057705,-33.5671592662528,11.6033992363217,-13.87524438839021,-20.279168874957488,-24.153184934281047,-12.251731078395817,-14.67403013547663,37.196921215515005,6.072685324183347
46.34519958496094,2.0027008056640625,9.359389690017268,-25.776672200234977,12.319069833153783,-13.129740659835624,-12.601970868604234,10.643494579679729,-46.02920713682671,10.459353487331892,30.440897715274676,-8.29062547013325,-84.63355476604188,24.011006522719413,-11.01912376392055,-26.40836621820467,-63.33813195602477,14.607653470752496,-22.085817903605726,-58.78284252785675,-5.3237110441827795,-58.88170177123785,66.15941700669146,43.2140034296257,41.87530372730615,-51.28178038142673,36.66774711996361,109.55022675873978,-101.34289098596511,-149.80413190024296,74.56248929804508,-44.28075366167299,-55.739693134128935,-77.64476383121588,-116.27040476341674,375.1217826624588,-52.10505019017559,-3.7930625864519376,279.098729522409,-13.915780396163532,-40.56717517549745,-9.006627329486001,-46.01763511395787,-0.46823352422847986,2.2058582844009464,13.710487762900131,91.14338929353937,35.31384350390688,-67.41862866578458,-2.8762598887297797,62.98697174135606,9.26634491315891,-38.33603544202711,123.5281553426507,-49.64158791413149,63.93683734816983,-19.235842692021297,-36.00219996631421,-13.131016500842321,81.01615593344954,-15.3222938730609,-47.70720999214768,-20.152988273002894,23.758637524340152,-51.726970500048566,-32.73401676393527,22.944206050658934,28.958186001150544,18.00955405056824,-27.462417580337036,0.26636692883771396,-20.09815460024977,15.68702392167756,-25.744073291621795,-33.287185443794826,28.390517051130203,24.61574360646701,-25.979370370677312,-27.982086043889925,-71.1089914563085,30.805264940824078,11.545908367089023,-30.11141226752899,54.21973174131643,-27.79971369522717,59.15404579079366,-11.389094279130067,25.933313337908775,-6.409160359384266,20.12355233310325,45.350961152625004,22.96424960377564,-24.916903813835766,1.9214989829422078,-22.467935773122964,-26.009440920083332,-17.071675487292545,-16.542017044688063,-35.41486226889242,-31.03755166377256,12.61978838351208,31.448534498279656
48.347900390625,1.9516983032226562,56.346577023772056,-29.409291012356537,10.582746375324128,31.323580441375135,-37.45957180830732,-1.9623700109537614,-0.03500341333546331,12.3117796517327,14.736872743094551,-14.616000058063008,-18.917572557291418,4.9072408517651915,-61.44806489583036,60.08803618434891,-55.43111901825753,110.10632446737765,-21.885597841581323,68.70858977848752,91.03780816270653,-93.54629627469664,-93.37229991255202,21.480156082885156,-22.147665089438195,-2.306671818445485,-164.92463403251583,-94.47370434751434,104.28345010288221,69.06328138996061,-219.26814754102716,13.727415460454857,39.331062600767716,-67.83507363685617,122.24025901463763,147.63622233912392,21.103155464648367,9.159927634327154,14.86057280224464,-31.53645415934684,0.6713071515134565,12.201100631408435,7.475869107568805,1.1145174943660443,2.7136825592513816,1.1338700926482659,53.57414670126375,11.986436472668483,5.615600362260139,16.008223255382678,10.213612046904611,-89.80965598695757,-6.560311205557657,12.351371847636177,16.395224317748625,87.10026415400658,47.56967245030918,27.377425352699735,5.261125018807047,-97.75164752643113,-29.00503039526443,-14.43527456937963,-146.35482067035142,-96.08968229659341,-33.21636214389172,48.76384246060166,-44.34072185696921,28.565160934986643,28.67853994605247,21.10405964230943,-4.769308576348141,-43.868697042632064,-2.4047341923827403,-38.63798938108083,21.100123772034742,7.832196991391161,16.795024440613076,-72.6264794054787,67.14922593397358,33.73942304015091,46.85478644291296,11.848395324706672,-16.63631173380457,1.114464043613284,2.463732103688751,-40.36682886207415,-13.385636308558416,-28.42185100545325,-31.88684808375167,2.288627617963824,-3.3472772072631223,-7.9254009660483185,6.523326160436054,-1.9898624607161182,-31.595274540950616,-15.550351449869158,-33.70257022834092,-34.22140511944639,-34.92474915603488,-5.6733270757215815,-1.483573439771181,13.189353043420713
50.299598693847656,2.2019004821777344,-32.88936834827565,7.947701878801588,14.55917499935866,-14.028821199957607,5.780798896617906,-9.37402657685216,31.22005998654965,8.581338224300794,17.44930686760353,26.474605498662317,64.87121827454528,-12.588971592641345,-12.444033156211535,-46.563768595437224,-6.128278625979242,6.7497108160089425,-122.8775983788869,9.087392047782295,45.81519433231834,124.85227873492398,70.17331561681684,100.57598191964775,93.24659993771476,129.54717255898257,-40.80768940108721,-175.6808263704339,243.6271844438463,105.78398435500726,-107.49914022757984,-44.72262052282474,-170.75073336583267,59.91018394082403,-13.984057168518193,-111.74728435090294,-61.406554365117316,-70.17590574914585,57.83945141845835,100.31660034056213,-96.67372814826652,12.066502772914475,93.04220368342487,-132.59304617700792,-64.34765120226096,17.220857234795726,-94.68335628423563,-7.3370157257139095,-0.794313127613151,50.87753939419922,-45.851080808842624,-64.77176788096533,3.371178934658631,-24.404303552735996,31.3084880889447,-38.98106229436303,-63.96991468664492,-33.322696570905066,-18.981319495978802,20.05499326413959,-32.00679957926853,-5.453093392282294,88.08252702830188,84.26792505738365,-40.80090246868578,-13.907613176777318,-73.97476021833612,-20.627536832818233,22.350562107461112,-48.17536477655956,-25.3004245977004,30.904419797097802,-8.515026367741491,15.11697265912706,22.49074403567764,-39.9814266583165,9.884696023881709,35.11016651349263,5.92837512360689,12.724710118125117,5.537474559689983,10.89722964674243,-34.31032710572727,-22.133210429275486,-33.76998503066454,25.648290293714723,-0.4834103624097885,14.968239687955517,67.2029069757522,-10.734940248521529,14.55327034323404,2.7148284240448732,-37.79446017718468,-30.195883822428197,38.76706788134731,-8.438040235870425,8.941042291794346,-20.635859959732954,14.619654185492374,21.77037448233526,14.904000031696526,47.59645232300889
