start,duration,0,1,2,3,4,5,6,7,8,9,10,11,12,13,14,15,16,17,18,19,20,21,22,23,24,25,26,27,28,29,30,31,32,33,34,35,36,37,38,39,40,41,42,43,44,45,46,47,48,49,50,51,52,53,54,55,56,57,58,59,60,61,62,63,64,65,66,67,68,69,70,71,72,73,74,75,76,77,78,79,80,81,82,83,84,85,86,87,88,89,90,91,92,93,94,95,96,97,98,99
48.03260040283203,0.680999755859375,85.7690476383874,21.19292261739271,12.769232415536225,-18.071768102608885,-11.465411781132651,-20.056801111354186,-11.606856168252452,-4.474218825338717,-52.08104492006362,10.71480532530681,-12.285420010673294,-118.68322291955735,23.466838109691107,-27.07996510331959,11.313780733621229,-92.96947172383362,66.98957400865011,-17.360991801822177,147.3954730468344,-39.760038032851625,128.94957480289898,-486.3672994867677,4.18314879532516,115.79586831746015,-163.33057113387946,57.492508714449535,135.81751483795117,-50.62373846813534,183.19130995283749,134.6404856179788,-187.07945672600647,390.62963697555574,85.3161443613118,10.315524738157485,-215.70031774619878,-51.429891388980664,-304.0521586542306,26.595245259430392,198.97815602708886,98.88532595605238,-102.66446327130879,45.09205742666271,49.76153132879752,-65.90883586985342,-30.96463046360982,-2.210283347140757,-8.739477674163599,-1.3302275733443074,29.459987017588567,21.228091752240307,80.51868358828165,-8.052449087644536,46.417415304360404,-55.72129473676058,-57.50309632915368,-34.833397482490426,13.236516594491189,-24.32661175836548,14.934115238889856,33.32364006098788,117.75730706588571,4.533549492255646,-29.879595233553623,109.62268784163453,43.67193805344912,-69.03832866437732,-7.8015280072941495,-11.57333610991789,-1.3052581525382385,0.36717914321858736,15.861263262005266,-11.705165639831598,23.863714129923267,-1.8520989476698082,-10.443376035841302,17.93779742232809,22.63493456519166,9.219399563810498,-14.27478744698326,11.240369534540966,-5.509067965059844,2.707588535393347,-12.102314513476983,-14.508039451201276,-7.254471800868556,-2.2771656531635998,-7.106341022583461,21.572172188401293,0.8564353979887962,8.303676368295838,4.10604212528952,-3.7549058210105093,-3.62401356861392,-1.8192801922572528,5.665378039884743,-11.279076381993296,13.094136591561274,13.240715247828794,21.11497412825426,38.224395452443574
48.713600158691406,1.3614006042480469,39.927998245034246,15.291833137865147,-43.51868743850831,13.301799652455031,-9.844670683569401,-13.214191633401578,-4.866266726121501,-8.971666963710256,-8.328310812664387,-34.107991440622484,-9.193031045156227,24.725792806442985,9.938721788319427,11.152671204715398,-0.21715961816567647,-4.871322779145618,-1.4108077786733129,-7.281047022636339,1.119183241386011,-20.47056275480836,15.228792912002339,-9.168089203505033,17.795487146778875,-8.920182383469227,12.046111925286983,-39.321597481131846,-17.129618315737588,110.28556316756978,-36.302854825667566,-5.119862066643713,-3.605687643671894,-34.83788647624283,-31.152583198408276,23.641935790627596,-27.961179428224025,92.49976201225189,-54.42267831613011,78.14164087535929,-27.98131337844504,34.43993551433248,58.2236017175971,-13.215011893941458,76.93586302663296,25.317464683648772,-29.928869791511175,25.71652552731669,-41.01648664307282,28.716126010129962,117.50838526377905,-62.627574422174,13.367592079781154,81.11249341742293,-18.302793514197703,87.29148374394705,23.722194098622428,-58.047078555795466,56.80533479450584,59.064194993813345,33.56119595167248,-31.279872544251504,86.3380893506493,145.48786690644198,-333.5680250104402,390.1469150417215,-425.2602496915615,431.8708864558537,-179.31350475447678,128.80525441861036,14.48640398195963,-115.33543206884008,202.34389845573605,-226.65621286986968,122.39114801060657,40.714587003315096,-23.667941498937147,6.522019360963782,-15.052587602085946,-16.541520984006738,241.76289253101461,-209.66559983037288,-130.88429471289078,215.2653260381349,-184.59489088750814,110.08964217942925,-58.17142228158294,55.483656439657835,-93.95016362999422,152.39935132216442,51.8961426714272,-84.67944408202685,-32.18129821056186,82.36508440685276,-32.82652591636654,-219.42844791186778,131.57913573342387,-76.95237207466931,87.01428518287936,-173.47143434941339,8.319586576325019,91.59440852939628
50.07500076293945,2.0118980407714844,94.99437942144081,1.4983989721470872,101.05449883721872,-131.44954436151235,-332.30872054381155,-104.77580637116982,111.73501288816489,103.11876690254375,107.92629776467676,90.60093068909433,15.845170243907635,-95.56408088713556,-21.33039236372823,-40.489249408932814,16.60620758351039,-7.204751780657292,-92.47468878542504,-121.73459753188163,20.318867746568856,82.83952653054561,27.337421479705878,37.08649699904233,-28.499101441207152,-12.762913946403293,13.859921259173355,-43.182580430343634,72.29790557156853,-65.13019214285144,108.40370703201187,15.850296340892438,-331.432169366254,-110.90481019580919,-99.30935815826133,-52.932315225215426,24.247820242634653,99.34492288492281,201.2630783722921,19.24546016335372,86.69492580204,50.5997915772165,91.94936127668333,-51.98031747521434,10.194648415283396,40.436999858729386,-0.06687324342124157,-75.49279723165675,30.317988908467743,29.370449433120193,22.796367069911994,-0.6442811996244178,6.2031468244517765,35.83546502164104,-28.20308475661453,42.99092684905085,-13.111475710610161,-24.302852944931082,7.244009736650612,-5.039323883674629,-5.496278351938796,13.345269470978268,21.854970467160378,-15.031274189390018,8.082030018825133,4.307888577778209,-12.736362825626738,10.482249606321787,-13.126843395083469,14.000959414665807,22.208289999776287,13.813474038105491,25.03744859744468,7.166526530653064,2.4489649184780835,-26.39026481507069,-34.77290792690739,-22.23743161597647,11.021379276259356,-4.562722656625941,-3.9961865321132004,21.889910717371343,5.425677113837447,-4.014270254216765,-11.691814998084231,2.4223248364142878,10.370627903164111,-1.1666341796395134,5.642724374437246,-4.641471456457536,1.7613208373883311,-15.02180171412674,3.172367772270067,3.622263885266654,19.85061812075346,12.126560992932793,84.45809557026907,55.38534647313094,-2.583371983117372,-23.29477346472058,-3.4930549277400456,-1.673782135708862
52.08689880371094,0.6606025695800781,-8.640113688319591,2.050568884395803,-6.132736754278415,28.408659227783506,5.515611996289512,-11.105852339329292,17.691185961441196,-10.731833881233575,11.790982646992965,24.176813740889948,26.40285441410058,-76.7578800298167,-170.51157934943436,74.5994510228002,168.25195706315557,-75.32506894495195,138.55641052113418,40.260901371106456,-71.7240995753121,-108.64707262267302,-193.13450861606825,86.47192733972203,0.24821738597697163,-148.07044007105767,40.32064996869525,230.2540554282811,-208.99236870619345,-19.655352714640998,-0.5299205818697441,208.14421686712055,-41.54283265312164,152.74214708714604,138.06995419617166,175.84003474276705,-36.86798665418456,63.48708007546676,-134.5725879670857,49.34272344385561,110.12957668780177,-157.03368709762918,-62.6281900997066,50.074908362081516,-114.80200229208351,50.1838335141374,35.88086523343134,-86.53900009018503,120.70153479144845,65.46610738303887,-74.61681397072977,-128.09557426850333,25.587215903111364,33.795033415229916,74.33319646439867,93.96997687458088,70.33199462533949,-100.29446961376607,-26.501568216660687,49.508221884709066,-101.9269895726551,-74.22300939981908,-89.79512238966734,51.239692111717574,-10.511106921887095,-5.432875361193345,-3.4930394169516386,-12.15712012742397,4.357997373792628,-13.147269404591997,-13.587681242032403,-22.27086619114988,-28.16332066496197,-24.58731272540294,18.046951957968695,-9.795070571947136,-26.085289075668086,19.22627167149767,10.636375640768314,-4.8597286332905885,2.1599763757672594,20.463357156231606,-2.675228544370908,-5.0816239510023635,12.395414604295137,7.045097623716612,-11.487308847943115,1.5362386635734335,4.75857441148474,-10.012291800342497,-9.672597798615133,8.070020740522747,8.347271767300478,1.7145958212062173,-18.57488355648363,5.684651139927221,-31.26224976636615,6.616652465645131,28.554853941565735,-35.187769103622486,-5.52640091771223,20.92186308706984
52.747501373291016,1.2812995910644531,14.55753502276886,-12.959883260400392,94.6807039707634,-23.38992025537348,19.377127694782246,-0.751720739659538,8.833700241858876,-5.526349597229278,14.017431388525269,-49.39103234964922,-44.20228610582879,44.706049548705046,-22.55793595422701,7.679245039959614,-11.572774399272742,4.423527169084567,-12.890594643278341,-23.742582739241776,36.8951446715397,-7.453233259323814,-7.16769692901743,22.802719208115022,-41.16342236975962,31.70144276739958,-27.492883179528917,40.185909452791364,-63.5279600827677,109.86454543769148,-36.71686204483561,-144.6959187721561,110.6307095389912,-53.44916672670242,75.0380090594615,-77.02259119548948,20.12795080492468,-3.4187935482104375,-91.11688760362442,169.47248402517855,-78.67736020057248,168.94562441181134,-142.52454417998604,117.06800270609735,-106.52241269316534,217.03043983503375,-146.15753966466912,48.78915103375246,190.46487080799827,-210.1657664488083,284.10993408028975,-140.55203779593467,146.8777137224559,55.22853950704952,-123.34518737746959,151.70953896892243,-40.888414782637696,-42.896736456107064,279.4060975284086,-50.78884861832806,101.94229005762578,177.16578607124285,-125.34042832955089,60.32954755228193,-16.70386725872955,34.474941226158094,-245.5182472724393,238.64445956449708,-152.20553019975296,65.22215366688998,118.30619367353931,-120.51001240007167,-76.73270226491188,-120.61249053094869,332.7354534778731,-359.37455269614514,314.44503106188404,-356.2728926467163,250.59638384932168,-24.64736425622985,-16.53163591378803,-176.93715902808816,19.28236307967216,152.54512757082367,-46.25358908103909,44.73766294969509,-109.11978089351607,86.37095502907489,-33.75949510366165,21.27179292950599,-54.551821209269995,121.70025062022094,-79.70611346441822,165.48833263468183,-53.07904931067399,-137.62787825653052,90.49306747869933,-44.425633078185,-14.48988756613523,-106.87838105490154,54.58032521184844,-90.95864603317011
54.02880096435547,0.6205978393554688,-113.20347670372118,32.45183541235143,59.294931953281775,51.635361847563274,-57.58198780866845,-24.572661477680683,-83.80880447615674,-54.8245399168544,-90.30835188872975,10.791836301790338,-76.99834846915304,-11.271607372763144,14.507845145054745,-5.039200252684164,-8.269163803300334,17.094368935355757,69.64684014235155,23.39417226179535,-279.9608034592397,-50.32403332947759,-111.6981498757126,-73.69597552476571,14.422165048595684,46.18487944207743,56.24212567468178,-39.15778366129054,18.2519715372463,-57.90611396443833,-266.52022026366313,5.454882783249029,-27.00063835682014,-13.875293149914246,149.76603238763116,-69.50137984177826,-0.3718991446462496,46.81779814619651,31.40621393177356,-61.61192227414067,-13.16381186242717,16.194385562812037,40.30390647051376,28.71038727911033,23.747093759948505,48.84466694787258,60.75846635081969,-68.74395446733665,60.841660336624386,-19.854978625261026,3.867955147800981,3.1312092550350767,-15.789459161635797,5.725608884032204,-21.887269151350477,-4.633734982173507,-32.672597140537505,3.117472944639869,-1.8918724459479694,0.5294502377157251,-22.75943306067761,-37.729823351239396,-11.764486207272945,45.16979708254596,8.972492047555829,23.284186994285154,-0.049124012559488506,-0.2612586695919745,24.247140458842964,11.053243935961017,43.91636701685336,0.6099758728048452,12.26827440832647,-19.03706533031165,33.0244176411395,-16.458947607726934,6.369496639672645,2.6985059147272885,-11.866313130834563,-8.105108192661696,29.522914814823917,16.834339948429683,1.0262270442725776,-3.887733130028584,16.72364710362276,1.0408462637902185,4.708670129326743,29.779064498742166,9.687396938561498,-4.929653383578653,-1.162324261827962,3.2225095445040064,14.633268191911712,-28.306080905659233,-16.2682623697814,-32.18209251276903,-17.69497510115446,-7.22982618729093,-16.07100701791591,-17.962083878733857,-4.190032109571637,12.459759612171723
54.64939880371094,1.3913993835449219,9.980555785167049,5.302824230760009,-0.817339450971402,-8.315103557809262,20.824443393132352,56.75286195067197,36.8826178926463,-50.97524283255639,65.72641174920791,-106.32661315713936,35.71470161401033,-6.232569370760214,-17.982845362360578,-11.285951220884924,-1.688295701070274,-62.78909210066627,80.18573902411931,6.4921541473088284,-9.895346601496911,16.224285470305443,-5.150159812674089,-6.012494312299192,-15.33754977035361,25.157019419745257,-3.616650594319556,-10.476017671870803,76.17240405805548,-55.00511455753544,53.818693162310375,-50.54235670482477,-105.14620568844441,123.9223647034586,-165.8588236757524,62.97554358893568,-11.868749592385685,169.4941267034186,-99.08312646762356,14.01812339171587,100.60617811414988,-32.28148358223389,-136.14869365962227,136.05163787102623,-172.26659000604482,4.290080498540097,14.450477553125108,-13.764490692668076,-134.56495720843284,196.5200677800481,-33.38252490196553,-263.90730446348795,253.8551660852375,-138.60107135556524,47.72302519531914,-109.77330821368432,11.608413089856036,59.45707231391923,-80.16947356572949,128.29076751295375,19.219380878642426,168.2947532034327,-148.71824653911904,154.29035628339048,-74.36255742569898,199.44277533030618,-235.81593651299517,426.29581779983175,-198.78798701822893,137.6121746832384,258.13737380681005,-278.1610435023023,7.322452164656164,10.698722566311078,-150.28286899215897,46.26942964232179,0.8622497755522254,-101.06112146330442,445.12739393586185,-390.1684727652439,311.8956007729642,-53.22500724088102,-143.3714886219162,188.89927658918464,70.4915997268925,-157.04888182710022,139.95533280091485,-84.8265692734159,104.30412393389796,-39.35994922864153,-13.382051184825052,-51.23140565125938,40.25788060572532,1.074100895966673,-101.40056885619799,265.2164350810978,-257.6422515501473,389.25876244612846,-125.26121357930299,89.12731176910037,44.616504640639334,-117.77666793945424
56.04079818725586,0.6906013488769531,-108.79692812977,-78.8845981854484,-139.9145478931057,-106.88280133959128,-101.23714368693084,-95.51525623119625,-81.58608927185938,41.732286012807315,8.791514830833876,50.533097983254066,73.20146445423752,23.23913807921231,-27.714040026716333,117.5002567750557,20.763270929008677,33.44907401680427,-32.83580485795519,44.447758333156585,-88.1268499049901,99.03834967643002,39.935489636201005,7.853908298278535,23.269227048663986,-20.616243609549453,90.92603476003114,150.64713877484948,-79.03333214066653,-76.78328303765302,-81.98344002513417,2.3022979281629774,3.5791529703557377,-47.20389635450977,-58.41853191529646,50.6589751966926,100.84036326005466,-88.97516268872428,-12.91019369815149,73.35521490664621,59.85344695173165,153.77461637922121,38.149203534992225,12.090824430696589,-92.40390151096062,162.42084682104792,30.794257683084965,94.54477894461064,186.24961307053218,333.8377325725155,63.465906709408465,52.27720347299079,74.55424910983773,-25.89724772235592,-9.365339954729953,-1.1149345927225642,28.615154053731757,-24.15246745326852,1.6253297848155164,4.379281529469275,-17.57927395238067,-13.60540467614911,8.659951881781755,2.4472041716090205,-9.06346700206233,-6.571699471843203,5.4625217986648344,4.510219626649894,7.996004925585607,-11.419030833679574,-5.191694987696428,-18.576328320697474,-0.9225317984345427,-14.405475964608442,-15.132810155409835,20.389221391440923,10.92156744224031,4.114468868957867,-23.82008427854383,-5.011743615131691,3.522954445987547,0.6625243705722763,-8.51707094221895,-5.830454489400113,8.404655339306661,16.540330828754513,-2.3966596735833523,3.7946299109570596,-4.7686476129651,-7.9826453789911564,-13.056383359705862,16.711178198877835,0.12937844058147357,23.279922087664318,31.897055115775036,-2.49879227792782,-12.476887394920695,-12.637414122618107,-44.057867709983206,50.6324887855323,-18.213327796929526,-21.75995971274631
56.73139953613281,1.4216995239257812,-14.900220641175935,-37.52441192444416,-17.919982617773503,-12.60688219157728,-12.510834658877219,-11.589711760216424,45.92008244681284,-14.699238290606392,3.1843983205698265,-14.42470818135298,18.121221728701226,-20.20236350607788,4.120306109171713,9.560617003841902,7.252675925151065,-7.682629843540614,5.322471487983638,-5.564319076637103,-29.921823173304627,0.09473364633655734,-55.6056822611065,-30.2441461437501,-9.05817452136915,3.438491047687788,1.967063192687247,-4.713172600684694,1.195417291332237,0.00999462942888367,-7.675254329276595,-8.67920985499881,28.928583408811782,-28.86793239910689,12.526209641375594,0.8642457721265051,-0.3123022877488131,-7.364061522330982,7.811746860303773,-19.67248037811093,14.260887421241316,-20.761048186452154,51.68934346839697,117.35414669189254,-222.6309566968131,-36.283128439684305,66.61083020462557,-48.41914426102527,-29.91793929463604,44.96494208444204,-271.54216961671716,321.1566653127217,-82.39015604702985,98.2561747136141,-133.86895054421274,-58.19419257125103,6.33168845451372,94.22472053494049,-111.71912307645717,143.01536693495203,65.6567614424959,-77.14798096060332,265.4650431607877,-265.9253399749722,202.7553658498465,-276.1809259479769,144.3507324573629,-66.17289488657214,-26.368707792631962,-103.7651812600718,306.4008497907119,-318.7689323606697,234.16550917609504,-30.36819547432529,45.92147794589981,98.63439646184494,101.5159770428906,43.42767535039688,-79.85364612669326,242.9122711510957,-144.39373349342944,-197.40562742337417,276.36130462964786,-222.7076491045112,111.85098324718469,-121.4814682283432,81.19073113735529,-118.7722594124683,124.36223219268695,-179.55546946590857,91.32993330552726,-109.84908342225341,186.3909325578029,-63.95427089580669,47.292372551172505,22.72374478314547,-29.23111799552272,-96.73952010846345,116.16511441822078,-105.16870586936835,16.291111553874686,-55.94858349096032
58.153099060058594,1.9016990661621094,5.6544902148869625,6.832036359879439,-213.80106936288558,-247.28954720596326,55.35781161796628,105.06427473058498,-66.70571722203009,70.49429087377587,-150.22106646987382,60.98871576028218,166.45501123501344,73.91197797586617,-52.801288042794965,-70.8676559374139,24.608280639630998,-83.3638930389613,-1.0267270744246915,45.93916671072128,-11.391784702724626,-197.95804105634383,-107.13590048454999,-0.24419102820478678,-31.845198267561535,14.900291140333408,4.764176918537616,-17.67774408035391,-24.159058885985793,-47.271637454970566,44.55732190181752,-157.94043685479176,79.71400691499733,-22.948331266192362,92.08656887544414,20.942292584215746,-72.41019009163828,63.18680148918162,46.732709318023275,-105.8675439014451,-117.93273375201906,93.40643478342844,127.87227798608272,-38.01763346421079,128.66988209567526,-22.766007684745173,11.96175994261177,97.75711749222486,-10.672472842531889,-97.74652829253323,-62.737629895137104,-63.74786064582244,-20.559093055024224,9.700946133122706,1.3171443951865747,29.637530570246163,-5.434010731423415,7.534197062629889,22.976480145398266,29.254281032569384,-17.608772450111257,3.1266598095733658,2.7945840981474523,-18.00516474772791,-20.56386793614742,-35.82737571598197,-13.75247957839703,4.264209068656051,-24.959837205704066,30.68530146391273,22.817556263599773,7.723356013285683,-7.276160566984431,-4.3493285866306675,-15.945932606762693,-11.334494683879447,-28.048308348455766,4.573315049377905,-17.448447320547256,-0.4976443833674693,-17.48330705393991,-5.7493622151913435,17.17172404010782,12.937508018602147,15.734014385595492,20.3896640104677,13.678429916640251,-2.5634537706261606,9.194958903904382,-2.358935145522388,-1.5006897118376799,16.28207386002291,6.294694235703984,25.713620667821043,5.493235491573445,-19.589542646366134,-12.409735288625509,-8.074636977216002,46.41507657823325,2.6463260005824134,32.61887995760574,14.77687600497644
60.0547981262207,0.6606025695800781,27.468942858823986,4.083600251869411,-8.265652325507917,36.942445293369104,-21.03295460288311,47.536652127269065,-11.183969835348623,24.687111119516793,12.413494891802259,-35.68530942627584,33.93714134664645,-27.636222704639017,-72.82046062039292,32.86187148367519,-89.97088465113823,-12.978792840339592,-224.7775237232295,151.19357325986536,83.29447692352991,-164.87117411949316,136.23407165966614,-215.1554456868954,118.36271718565493,-46.29548333427004,71.84744602953242,-54.319545373548515,-172.88596028599932,103.86118996315572,-334.1244155750663,-211.59465096218426,-508.91092855489387,-19.796009996957796,166.2706621790157,-5.8357669881525505,66.9159234428788,-138.9616133818319,50.41766356086567,164.94167284354035,-4.0498001532264905,-244.21989570948995,-143.1389897176832,-81.31635023191325,-47.66402764116408,-5.2679314582860854,42.63614784645432,76.51875561334951,125.39117766282973,-131.66239159028348,-10.688935209741274,14.780962641486678,-56.53827854486504,-161.63104618932465,-6.531970519973742,3.925550616691123,30.01862252775495,32.6159198403766,48.395193153840545,59.55306077595675,-56.49169987416541,25.080050192102284,-72.16602517276786,12.699103763985875,13.828911142971997,1.8356825574064362,37.252454758481306,28.78260534039676,16.799261389700995,6.9372754730346236,-8.056044247791277,-11.979822895012349,-21.293673191383405,16.286400391242125,-1.0571284330908943,9.693051774567163,-3.389623905633405,12.786926758770363,-11.793729520890274,4.070618586118106,14.643391409845268,20.875783033879255,6.012249792659127,-26.04536273678555,3.8928667673198767,22.123443043334582,7.641899709672439,-0.6354462233083984,17.17847044929952,-5.505631780045826,11.453641230314618,6.5515860085595,-1.3968465662330336,16.633776473803128,-8.583214358362811,3.2060807343839017,-11.262764937818819,7.969198164161907,9.697710446367678,3.8901427189000297,2.449140106293605,11.472764709705764
60.71540069580078,1.3913993835449219,6.6956463875159535,-12.962963108310559,15.915595907227917,-17.02304581333632,25.63836643481501,-47.84675526367836,8.440151862944411,24.383200535391033,-14.169245519074982,-23.31760009954974,-14.119453822274908,-11.337810731030078,17.707022396054263,11.88861121742347,53.49126045452923,-38.27900641868915,-6.747463377475986,1.646924338367123,10.688996991806391,3.6712158621277906,19.658812170414933,-19.82547614119055,-4.680524283454088,-5.377260242768868,3.6207968047205625,4.024065423972994,14.283154573446108,-5.202893478062405,-66.03063034912877,81.31950413944332,35.47176349874796,-36.76184308033632,-0.27801278640749993,-42.7016349460413,-15.00787451976461,-23.383961565388134,-3.613813501375155,99.58577592956752,-158.49935604688068,68.73421530418975,1.0697767902558573,19.94935486912842,-105.22049535782072,-83.0488764569472,29.612134697153714,-104.0794119955084,160.6356579900527,-87.84615619369958,0.5182974784243441,15.264282472216394,-35.14699620856883,52.20826615183158,-51.473543014233115,3.8244956214536296,118.83402102775085,-166.2471794151949,295.8382722372924,68.77933210814464,-111.05808196137693,194.99215561266334,43.34613273404412,120.43903705513843,-88.08037917859335,190.77446172090723,-127.0703738366127,7.714717875623313,57.85313929511525,-88.76566117113121,-56.29901499750845,73.13510210621482,-191.01804016359097,153.72438242417468,9.020028684010073,40.68771145300181,30.529298579944452,268.75400019394715,-299.0097967071927,160.02097046502894,-169.04412491378855,43.231687196912496,183.72929051313287,11.827146461589585,-64.83221300151487,24.0899564892162,-103.93902713725294,91.41655700344083,24.05185400785332,-292.0151456582725,274.5032051056004,-244.92230124348774,185.24838829027783,-40.3637463316142,100.76320926772725,-64.91405830165854,-149.94573471843242,169.53774624909596,-197.75256648403655,170.98493795392577,-251.01168723947578,54.72726103410294
62.1068000793457,0.7708015441894531,25.52024305813788,-87.9989779899652,-12.886680723032478,-235.61702357815966,-42.377298024534994,-16.657829761704306,-85.73879339001444,-125.08028292899166,-49.64899896313452,56.05429414195784,97.78183014424884,-90.60560958151953,42.412387940282834,12.211484317979853,-128.59436618994218,-54.936823104867386,-2.0592011308176126,-7.505011236890189,28.80824193180412,104.1430222940956,-9.453216159221792,-18.964913845221922,-42.237277456419335,-6.586258999269699,62.71616669780898,8.137815028365415,-76.1008662010892,-40.887925904991015,28.617847718273097,-25.363233143057602,-106.77914910879014,39.34408932203502,-90.301569005439,-49.495859417180824,2.125924659509355,-6.008904620668691,35.39117184353534,61.44882194143007,13.678839210497065,1.911435258689795,-57.907858684989876,-25.36821735585183,-94.91524957486712,-157.81492480178457,-74.26128125673392,-39.74998261863233,15.202843589448065,40.395270836633365,31.359981071764835,7.411706495471507,46.29046427822098,-3.1208368063289376,-31.826512596602136,-31.1335072643454,-10.88701390764804,-15.784525816202471,12.700737073027145,-1.3217030334001265,1.2442326662606025,25.226558903902873,38.650906014968015,0.8413955508428757,10.688838416660255,16.713143416278907,-47.00020475279227,-15.804561781336844,19.413654432128233,-29.57195144067819,-5.643005097497327,7.061897700879128,-7.018954741167639,8.56767344658741,6.210895424929635,-1.3943381056031399,-1.265137767927289,-0.816485185406945,15.906696754350405,9.539225711066386,-17.587318373635984,-0.906589880036083,-7.740872205873888,-0.8447590461467889,-3.120277466163767,11.139499405171764,-14.426692581633482,-2.7831795168436138,-4.8569296892053835,8.877675230623055,2.314060354651372,-4.982760389094496,-5.893623753713166,-7.84659703322202,25.54401345036741,15.462421422997659,3.122067047363362,-11.42237321521497,-2.643915500624604,-25.456397097988425,9.394005748109741,-23.67547277031783
62.877601623535156,1.4814987182617188,-20.252148766541097,1.0808726824975485,3.7067045817715183,-22.19525697327098,-3.4545186242449155,37.881820507964235,28.069486230881225,3.5801728759138314,-22.873567061169208,-0.019471568982943277,3.7870547800037038,-0.513099555806126,-2.5768178030992885,7.51553780259774,0.7774911228261283,5.181467054890472,-2.0211850841100425,-9.701344027649569,-4.542780091057022,14.541510962982,-7.929870770952842,-3.1565662369750216,-7.843956043494036,50.86016078724389,-0.1675051877193119,0.9786227366029863,14.103279085218169,5.40857826604057,-0.4846554192317374,-12.422321913499388,16.51066641939298,9.13169725932902,-88.78999336161111,108.30952834460332,29.7717929464913,19.33139551710021,-93.43530449423046,41.1348359580185,-68.87461332707144,39.90282813114318,18.625816705351724,113.8956573124906,1.802103634635095,-9.981727733342545,64.08084457846522,-159.26973271043678,12.985533649106296,190.33966143576185,-196.06935634821718,142.55460839370943,8.954087482818899,127.01349083217184,-109.12981391748623,-28.29906258798901,179.19592581187248,-317.9779942288953,1.2634932880497267,45.076668031447205,142.7093262697033,-17.463461117929064,0.2016152814036758,-133.60873844018136,41.99723136916539,117.08936742396543,-170.1057532594205,194.44199622192485,-28.66910989174925,-28.072353964780138,292.3165101956141,-346.339181169918,295.0002122573301,-156.2538777844146,-69.2771640569102,-64.40777188318505,16.272459096116343,-138.33127826662638,158.22059153968993,-275.5248598700942,223.43247958436515,-145.61475546735107,56.97595145292654,159.08094747795786,-37.58942467607247,134.2577998851576,-228.38452452617872,252.59206418875613,-270.0187906663038,321.6034370054725,-296.30729998202906,32.2893335183987,147.2281345595938,153.09497070370392,-146.66488265660865,89.76262038493505,-172.425138992775,-23.00245774319005,67.15604455477184,43.596482983595365,11.092179703201708,60.00263419724923
