start,duration,0,1,2,3,4,5,6,7,8,9,10,11,12,13,14,15,16,17,18,19,20,21,22,23,24,25,26,27,28,29,30,31,32,33,34,35,36,37,38,39,40,41,42,43,44,45,46,47,48,49,50,51,52,53,54,55,56,57,58,59,60,61,62,63,64,65,66,67,68,69,70,71,72,73,74,75,76,77,78,79,80,81,82,83,84,85,86,87,88,89,90,91,92,93,94,95,96,97,98,99
32.83905029296875,0.8503990173339844,0.013680355861653823,0.09286260797181035,0.29472578540999156,-0.2247847362835336,0.17945767977273097,-0.4187534217197353,0.06332664562693024,-0.19983643801339848,0.46417581190072743,-0.04431321140386579,0.36124384108900087,-0.15898224301406738,0.12868823415390807,-0.023310630708414486,0.025282585120257252,-0.07835701792303833,-0.05345067272302939,-0.037960374458418336,0.0030893702290568713,-0.1796130375814612,0.17188527965275835,-0.368290184765416,0.07904905585437655,-0.028132380493597592,0.18357346919585815,0.022492259851208212,-0.2181883349800667,0.000776756477957774,-0.06364074589534804,0.013773456477793022,0.11011820400669377,0.1574619305551706,0.15684419171659503,0.04840630900868776,-0.28041865976469216,0.11695527726303148,-0.01829086074782883,-0.07601505927963176,-0.04179368579655613,0.02832692170507122,0.06939828168419862,-0.05889199463136402,0.0829869000465928,-0.0091464085466119,-0.02305747721155457,0.02195937878896497,0.015062759466310142,-0.034203186752724164,-0.09881201215066315,0.088007881687638,-0.10755201270790533,0.2650306258041549,-0.10681232648913976,-0.32940616818853374,0.004442166772096641,0.09277941228294648,0.04013429155381374,-0.17856779502814474,-0.058021181305027605,0.050128784982949266,-0.05947180208813981,-0.009390146347013314,-0.01155220376339469,-0.028802425043158032,-0.09427846708967988,0.03978536282466972,-0.06908131653293935,0.012217295098429512,0.009974935815826645,-0.0358022439473331,0.03029359365940645,0.0068232308483650115,0.0002258954069358221,0.004931379544404405,-0.003932813513430362,0.008237953157815434,-0.08758190032308064,0.01579702130578098,-0.06348299956923799,0.08528294352351118,-0.11939534049535548,-0.6322515191436655,-0.035322486541934726,0.2648683939113757,-0.514383825456216,0.1348574290344876,-0.29072425113863676,0.24655815209845716,-0.3521611794937956,-0.46978405897510567,-0.22790755217291658,-0.14041607820055418,0.19855561154920764,0.0569280680124003,-0.03986199337349413,-0.22905066742805869,0.5834075537844016,0.4807455628323192,-0.0741988587747364,0.1621775904147335
33.689449310302734,0.8400993347167969,0.15896757435272635,0.17924896371300084,-0.11369747710471427,0.24139863114903493,0.01337701437084493,0.11160851658785337,-0.32274434200061997,-0.21970364845638043,0.06097241942955196,0.011486156218859622,-0.12635859190603518,-0.29909605526018646,0.2716133901080267,0.10965506893651854,0.012304570712775385,-0.09901505287178167,-0.01816120936664189,0.10519007604648685,0.058434637556893564,-0.28474084457712745,-0.22155452335841183,-0.23399240813822786,-0.0304861468548304,0.0578449375395436,-0.13452111398595445,-0.06600587816161418,-0.13606046457151438,0.08053839681758664,0.030535118681403982,-0.0891175270155071,-0.06820671827131285,-0.1635262314598071,0.0035694531232590854,-0.10862544002184664,0.16253757178587486,-0.13354731282955662,0.012504253181219872,-0.0756187290667651,-0.11632350868769775,-0.0734385586600769,-0.0021861159981836145,-0.012545101908460799,0.07060419387954653,0.035975015477075455,-0.02020313161440447,0.043695982293941046,-0.005315709026817816,-0.01215356540787446,-0.0813095834937471,-0.0752529338390401,-0.028427955299442295,0.11974517327780898,0.04975946673916669,-0.03000375978338897,0.047041344223436504,0.15503998709187689,-0.19283145695400922,0.016041111158107944,-0.16236973166592406,0.03598707556083283,-0.04127628132325943,-0.02528137989765543,0.07338718603987981,-0.0623034534891615,0.008332042121174926,-0.07701030077784787,-0.13037948620191392,0.05557458785893818,0.006517582482482218,0.09989650247791829,-0.054959902429032106,-0.03005062603179496,-0.0697720287600721,0.031218779377656776,-0.010971804949301249,0.038642147528619636,0.009428632881372408,0.024504489214680618,-0.05537292040268504,-0.3263330114552853,0.17527471809635645,-0.09226655285083542,-0.1133294729618062,-0.19024619732282072,0.32185774937168177,-0.2904802636983474,-0.47739906754205097,-0.4413422315805036,-0.06417061680949142,-0.06583554524945995,-0.1703128186299887,0.4626225048760136,-0.9176109221705506,-0.0662065167592677,-0.17190601765056077,-0.6405742215247364,-0.8189951336387891,-0.2306460382883825,0.009216450016045097,-0.5862163273857349
34.52954864501953,0.8201026916503906,-0.5143153566842105,-0.04334087398042388,-0.3043593648913012,-0.39902431148803286,-0.0350352772273418,-0.632956503842428,-0.020616174536916578,-0.226231389184962,-0.3242520437435054,-0.01855817792649013,-0.1839183075668445,-0.08088709125261034,-0.0502512719930991,-0.3675051829031933,-0.1950478550852525,0.1546617457436647,-0.01548263447145259,-0.03720001746602583,-0.05719024755148715,-0.1817436111225425,0.36818195681074406,0.1636681893095704,-0.1456878345942929,-0.23979385374143375,-0.08050706432327401,-0.12121847397390316,-0.19526720817979962,-0.22113849842318353,-0.09427498010982585,0.10393317611650918,0.3478338930456758,-0.1960629528533967,-0.15368836599698368,0.1746387467787486,-0.08490569564130085,-0.367976918572422,0.140882150724187,0.11298400699756103,-0.09434214127545121,-0.02995408670853242,-0.13998323438597945,-0.045573312055305716,0.010187046534434543,0.034198505196418615,-0.1361976164149605,-0.28240013378074685,-0.03828280361154318,0.2044554650852762,0.06101059800325589,0.04286155323060192,0.1242201485690208,0.03363200801131381,0.15173823298154737,-0.06413654352553276,-0.1855635045564635,0.12406425573359987,0.15449714805675396,0.06897071023103679,-0.15344939417749504,-0.07910401267825191,0.009505670204105567,0.050290054541738904,0.057103339044901384,-0.09911175595762303,0.13711258916648172,0.02324534080666532,0.0025972709512250337,-0.11960769660181875,0.10500286929363795,-0.013918515740988707,0.04917921126204382,0.009174672034447542,-0.05630402811652935,0.01936798669149939,0.04868307088803039,-0.03343922447443005,-0.005110201036027556,-0.07255749207856253,0.011358002924375186,-0.0017307261555849808,0.034805838118549315,0.3809328818167889,0.03689493976602165,-0.07492882219756028,-0.22663895407998685,0.32630261285713025,0.1929507270687515,-0.10507626330575903,-0.4938827790840428,0.5602505735637582,-0.4883602478850249,0.041746904493889236,-0.4689759737759629,-0.5255345378121626,-0.06801014451507602,-0.061484287406409543,-0.39788214777593695,0.3184885317424147,0.46306228204427285,0.14600736847192286
35.34965133666992,0.8698997497558594,-0.12548652247715641,-0.2871276578004825,-0.18056897531314553,0.19118247838455077,-0.3242430105680553,0.005792095510469719,0.10158377957937395,-0.08234512691125301,-0.06127852353586647,0.1311792346731535,-0.389720536256357,0.08641578660059812,-0.1507524099097303,0.2423105356728244,-0.02182110223207054,0.06602723496824933,-0.08710389344041337,0.033974642936480906,-0.16299832493968416,0.16181735058547764,0.3097501119204195,0.20947358197098687,-0.003572400841243476,0.05977142063409887,-0.019403980418918686,0.16009424864824603,0.04637928084402461,0.19504110017051207,0.1284054493537377,0.009520578691838682,-0.14512768142942173,0.1544541507249371,-0.00595098189339072,0.028143291537867352,0.07421197884780688,-0.26436359248294167,0.06607930051518768,-0.058437102234427815,-0.07290693617441113,0.2195921022146603,-0.03544556979456695,-0.10161652167584792,0.09824655105164028,-0.04391316302389605,-0.041678067516345604,0.06989849792052447,0.018279372213177915,0.060766387258019416,0.004028227610476209,-0.027510255820279227,-0.07812297266398828,-0.2657706775102759,0.19232343789173628,-0.06583121015758656,0.20428594692251734,0.3816837997083817,-0.2239559245341635,0.1880035972942385,-0.04155269325473927,0.09135642574466933,-0.034369322077262704,0.028495702769610682,0.023926165176499654,0.019963832269895447,0.05326753284443786,-0.08434168661934673,0.023244942101369667,-0.020240854114579543,0.04300361397980899,0.08669980153125961,0.04623619244660191,0.007729527105021889,0.01707690459466341,0.06887694241846137,-0.002749090236368219,-0.0622197546339507,-0.037165802376926065,-0.05056894152835866,0.010599123614356526,0.04815276989690688,-0.0004948665407208154,0.0036383273189611277,-0.1867877965078829,0.1985041947968072,-0.4710304657729059,-0.13446963471794474,-0.21794230427223882,-0.22961414752820036,0.3147631715797513,-0.28556201887518295,-0.05029508829688421,0.16554261476109539,-0.14106643583405573,-0.6667140614970188,1.0699736785494591,0.00238830011836505,-0.45988228832291667,-0.012862532920531827,0.9923214900207067,-0.5146655379906174
36.21955108642578,0.8700981140136719,-0.45839505813890924,0.020592145884569854,0.5648187955911292,-0.12702602586817402,-0.40797872338450886,0.0005106888978320817,0.059629324339196446,-0.051234187081064156,-0.1941610326046307,-0.19835143563260446,-0.3380485638787122,-0.06775030717283673,-0.4397607340764785,0.15989864075362664,0.06469536582495623,-0.1146094835920711,0.09330398743769652,-0.010560336678076734,-0.008162350767046338,-0.07289401302943657,0.0286978527559068,0.08229069492784816,-0.06708373242993598,0.06449844147114263,-0.023238966264848473,-0.029524583841711388,-0.024937022302282758,0.2510083738187309,0.11930838118044441,-0.13465566070781307,-0.08778624621602658,-0.15128782684172093,0.3081157649612059,-0.03575171420597752,0.12926239835332853,0.039624430824603665,0.07436727612450736,-0.046125483912667596,-0.03314266680579271,0.00706438567137326,0.11556863991542535,0.07619417318784268,-0.07624029275595112,-0.1331810952029343,0.005658035478485476,-0.03072476193852393,0.02635983239687332,-0.05984684437915133,0.02590955805989086,0.050273518445883514,0.012150125371349997,0.06737276465147915,0.004314812011082393,-0.06819441222808706,0.04952577294441906,0.1072363865175025,0.024806265869263114,0.12970723997005923,0.006137631661153796,-0.10054296443414538,0.03875236838327179,-0.022688373630639178,-0.00841004558601731,0.02292244095408687,-0.04441644157706623,0.016377017810517147,-0.11215541332419685,0.08701184068630173,-0.07793787510114455,0.05254485651472803,-0.06892706682531413,0.08261497949824655,-0.10820810887637376,0.011152161702618759,-0.003047775610053236,-0.08417189013457174,0.06458300591931462,0.10059064848798993,-0.059242559377725046,0.2244142216706215,-0.0651031283817586,-0.05974824144798898,0.11241439430966732,-0.12331972022769251,0.19968362658887165,0.05612362724698261,-0.05800390187006843,0.017234994066875634,-0.07953643216881306,-0.3679152855764033,0.199510210681424,-0.722292453534664,-0.7983970019928074,-0.7929679777976815,-0.12756610608090496,1.006137938157182,0.00912149384958931,0.06687841669271097,0.45238317304200437,-0.03660310398699029
37.08964920043945,0.8697013854980469,0.3838225408219781,0.5608189273034907,-0.21916944111340197,0.01611373679670483,-0.3113864311108445,-0.44473889507973285,-0.196115096237528,-0.22842808115810442,0.0003963641995092873,-0.4057340813185073,-0.1015676752137735,0.16160753556046945,-0.11978977637801898,-0.22861452765394083,-0.0508166417950251,0.11995893023696905,0.025091934389185153,0.028902294971546078,0.1482265015905476,0.2775993375724531,-0.5141053639943673,-0.28734694526313004,-0.49180658333826605,-0.03743010804114386,-0.5808895560199325,-0.47940558452329773,0.37221140328144353,0.048618581476947156,0.10813148152736185,-0.029814683255446766,-0.014853532668066799,0.0036621170288022925,0.1610426570541691,-0.09626905405747972,0.09001956150404414,0.02423672028619902,-0.07616638799677733,-0.0921393086934408,-0.06121601587367721,-0.0851772910891794,-0.1286698687166957,0.2508019616111233,-0.05454632249485798,0.07822364038386856,-0.08616176993636693,0.06851716877426144,-0.08941600546175656,-0.06460204704615438,0.09541330522632228,-0.07272421571660401,-0.04682865132792025,-0.06188949804924466,-0.12527445898475797,0.2055701678587798,-0.05342938631869784,-0.06879289952034198,-0.034166652284220195,-0.023669329197799866,0.07870023863520528,0.0979388888061605,-0.022882910191821135,0.03227410849816246,-0.03627871836842893,0.004618849582753645,0.014266081572910642,0.12875225195105633,-0.04341747353246353,0.0720814686722853,0.02606454234350181,-0.03505819058666774,0.03697794757497007,0.01752119036218604,0.007685950242348861,-0.037540069250439914,0.002122171767172533,-0.06220721015416489,0.014756356783963668,-0.04250128580099371,-0.0575646211871102,-0.04972116113991515,-0.08861137639800808,-0.03989157303422005,-0.1274918558129669,0.09861892922846473,0.3522562654872159,-0.3397292384713142,0.4238000144626162,0.027685620563351603,-0.5325015764248084,-0.2364555656244435,0.4576197510896415,-0.15030624947999155,0.28711423578543016,0.3653171640663669,0.34073946212303213,-0.9278138486615618,1.124721195043763,-0.33941915199217615,0.19824593854095493,0.2024730428885616
37.9593505859375,0.8801994323730469,0.07240970350479037,-0.3576834401576945,-0.0004868223970769098,-0.2779543361808036,-0.0569056783653775,0.2659283726626556,0.1010787055616899,-0.18074236378520792,-0.10135560073788102,0.0352763204948071,0.1418386967769211,-0.18746414782917992,0.051117495722515977,0.0280583739138114,-0.07676852617955814,-0.11588422937318285,0.0065062013592033785,0.08850725783860233,0.026386064973710974,-0.24787727479933272,0.12550593145768404,0.10721427529258347,-0.2039401190716119,0.1587236697726072,-0.09872337026448058,0.08988351205404434,-0.0029641051696424163,0.23004176506380972,-0.04886652244449619,-0.048485379953963126,-0.11750282418134692,0.11758437810794828,0.09863130734389139,-0.05834890658768475,-0.0190630711662318,0.014290601672587847,-0.0791427078244839,0.033745133014401435,0.07508749469954594,0.04508857419083136,0.04705830838129375,0.02440376930909066,0.10267584709871797,-0.15172718672582852,0.0035039877042226802,0.06782461857064775,0.06918966951539796,-0.027996098762708286,-0.06069206790018919,-0.0032601197434103724,-0.059417165705897196,0.08723640271004562,-0.07435786580733643,-0.1426408997590516,-0.30875092027842244,-0.1890391609540281,-0.04607013567096599,-0.013135186535021253,0.012484460812492942,0.09891695591596594,0.05598880200353954,-0.023667630464941976,0.1127901834724466,-0.031298741994571125,0.11107869421970579,-0.00892864973410909,0.05173514120158493,0.047089925754574914,-0.024649117612929053,0.06585442739228936,-0.05794510196498152,-0.057693366418970306,-0.011483102830801784,-0.07123289400993543,0.042131379598283565,0.01886148971497962,-0.06484818791365664,0.047500314630879614,-0.02306472101151624,-0.09686292911443188,0.009577874856273217,-0.16495741270601283,0.053922688782967215,0.0687744100870588,0.6139655511227952,-0.4605484811000304,-0.03829753328697834,0.2634607343555714,-0.10225936089087144,-0.5814118330053627,0.4711433861982711,-0.25398863190909926,0.14630414428132132,-1.2862096017150646,0.3588026790331653,-1.2762081792226248,0.06873155721249966,0.33889798495083995,-0.22808274599045433,-0.4831989675795962
38.83955001831055,0.9298019409179688,-0.6255300540308506,0.4532548551488615,0.5317656346067327,-0.40497333998140966,0.00600025915388433,0.06608566170400408,0.2743677881104207,-0.4272647047022633,-0.005747833564065052,0.109545688103402,0.1605956078147059,-0.10097066919410312,0.0758021205794267,-0.04468673205229102,0.03438217330936984,-0.06222740855484421,-0.24551751470832583,-0.1410354324846249,0.027446255045914972,0.06956636356624561,-0.09393519055511851,0.14137015883302084,0.07490155853153889,0.19997432414007718,0.2380052192104252,-0.1066147997486054,0.3488178765139269,0.1901996849405373,-0.0413838590267943,0.1791390390631134,0.00928745591501512,0.05381210305746597,-0.48647730914403714,0.08057418979204059,0.137967155056661,0.033522325184338085,0.07650501642595559,0.002844289340440685,-0.10927250010593324,0.15181564257136793,0.010593879988377103,0.05332796245551027,0.0791298765267976,0.09389655871927442,-0.0005120023455364442,0.04149240794771282,-0.003785445199249171,-0.029788823117713595,0.10371248707042144,0.023850694976989658,0.057783002992289834,-0.041591873835200965,-0.0026484252495523053,-0.10839739350238262,0.013855877679086833,0.02797069220646451,0.001975162396798791,0.13351283905297512,0.10439472368360943,-0.0463228266779595,0.08471278712163773,-0.0314603696568894,-0.00012605087650793476,0.09903016789507245,-0.024023321496108422,0.11253839733391444,0.047871924404167765,0.12601271840551675,-0.05710059114967442,0.08277518217063623,-0.05794576486356752,0.001803280239643353,-0.01904960894586086,-0.04730063162394641,-0.028553102723804694,0.012147206185854758,-0.0072969694665808715,-0.008741803039153132,0.006462114544788283,-0.15126333568423594,-0.03725725624611914,0.5496762902256276,0.08295566732123438,-0.31114644339048514,-0.06375191625765213,-0.27636254171759767,0.2779130159796402,-0.17774769379277292,-0.30686312688313166,-0.22716314809888,0.2363997797418219,-0.1359154320118575,1.0591495165676816,-0.36792547004794557,0.17615891144076842,0.11416937625351256,0.1430573578871689,-0.4908818813899041,-0.1767812794484547,-0.025770422386843878
39.769351959228516,1.0302963256835938,0.10408340608612102,0.04623855554334752,-0.1638632827592112,-0.06557324076295674,0.0002647643839885713,-0.15322812624686222,-0.22748596244262673,-0.0576015606714066,0.07373447987070973,0.017110838032172296,0.055735849173194185,0.023540144700485682,0.02775349900660317,0.1290513132609452,0.13264931416171424,-0.06227489999084252,0.025902783618306967,-0.06581329924241544,-0.06880035075508145,0.06533384824715083,0.006570766263079183,0.023223747982142544,-0.09005859930038265,0.034326373233610485,-0.15319085377089126,-0.04224551553719824,0.09756754525872287,0.09542730470600636,-0.0028490762823423967,-0.30737373371086374,0.08954189393394031,0.1081741873040301,-0.135664573469828,-0.35049653118049606,-0.18595974357943681,0.14112572887501493,0.09486966577458408,-0.09027032251118268,-0.015065346784526779,0.0680046349697821,-0.016457443736715982,0.028312852374418006,-0.03140913156202729,-0.0405531297313886,-0.05703655879355896,0.052203917581258405,-0.04058947745855442,-0.050341584683833984,0.09360880291493726,0.007876000755459715,0.13928653919588696,0.016950561786054474,-0.1589520130572817,0.1542723662295169,-0.04727790568292178,-0.07373090334451125,0.08023078934911149,-0.03735983786399006,-0.012526096907024137,0.012913215700851846,-0.057823036542299665,0.010423732503231805,0.07207989069338505,-0.010086475058939191,0.05380717820963109,0.03866163636765559,0.10621320078202219,0.10153494080962364,0.03653545678441382,0.11400401632389677,-0.14224338058951574,-0.047459563486355924,-0.03320272669476734,0.0836290744383949,0.019875684367334796,0.012774206398178764,0.15576968327398694,0.2268335249418037,0.17364319275566,-0.038444003020123026,-0.056488448827686194,-0.05070984722096373,-0.13834025884566425,0.09335508071318598,-0.13560906124777794,-0.022740417564599123,-0.4660786553724624,0.18626880730670567,0.008946166335141309,0.23395190599337368,-0.6225879254341569,0.20602434546777623,-0.20729853148426475,-0.37272137495069957,0.178082803785396,0.7464251256137565,0.44785133413393363,0.1239007514287623,0.132726015338669,-0.032525784730368976
40.79964828491211,0.89990234375,-0.03033844304681929,0.0800549262067473,0.004592084477883812,0.310717214397706,-0.5514022563274371,0.06704865753124425,0.10239790405769413,0.19615765920423597,0.15829392479206866,0.12566278796032523,0.1075996840880029,0.5223765083599089,-0.3048077610772335,-0.19186320852288974,0.04269178673986081,0.03893829945541937,0.10795135906801834,-0.03871179390642172,-0.03108840089590508,-0.04949149732217534,-0.19930150497381555,0.021904690862125452,0.011935044643419317,-0.07180729117846202,-0.08703216173577824,-0.07705932474458196,-0.14749502988614482,-0.36433161920659557,-0.41750351497801264,0.1506384084174907,-0.11923495444808889,0.024149120310751525,-0.21155861787255048,-0.03391438303767594,-0.09765551496049893,0.19128355693207408,-0.06495882829779764,0.049876788071003215,0.24264407484417816,-0.12661818588400234,0.06412052049571457,-0.026310785252311737,0.04852780149278219,-0.02984106007426652,0.09654938780162738,-0.014368604517428538,0.03175292279683711,-0.20488012323601557,-0.24964419272670518,-0.04331151875637519,0.1996890707522732,0.18504343259416886,-0.09346661072392574,0.013517278409132754,0.011795213012561168,-0.06016480490242142,-0.13636689334203844,0.12120418871301061,0.13198522957885342,0.045594372881683554,0.06693160597679235,0.19010523883811375,0.02423040410017494,-0.023356664893232595,0.012282475894972611,0.04222691810305046,0.00427639339258159,0.04673086738225482,0.1199604542680164,-0.07124618090631188,-0.03602793653950849,-0.0883499853929742,0.09085727346898463,0.016912457109841253,0.024573996102409,0.01956053344431366,-0.047906792172454415,-0.07811514339419894,-0.06476275984975448,-0.030516904987831772,0.010885714229307678,0.07280697508757474,-0.1413613422263815,-0.06076772712820637,-0.04818844702581205,-0.21414864818095614,0.0551971790162912,0.274604714557293,0.6202310438999276,-0.10849515640535252,0.037525540922125504,-0.21498681420650295,0.14581728545865327,-0.36150815033924905,0.5230533199747258,-0.234117666321436,0.3179504718300191,0.19227405712045995,-0.14630414806891023,-0.39348773585916796
41.69955062866211,0.8598976135253906,-0.11911038117579908,-0.05044578905685469,-0.2268708915631982,-1.044267892391673,0.3262165906511041,-0.09179873856523163,-0.5183305841738776,0.3333322665193861,-0.339239219326611,0.4529310069139218,-0.049232367284843453,-0.44125272871561033,-0.013298802222198907,0.0016540196504907885,0.009253842836564968,-0.012193676843675075,0.060298028097874885,0.09785681383769229,0.02508328144825061,0.06351719330522831,-0.12518274351012268,-0.08583385688597457,-0.0075923103563910405,-0.02772138912716438,-0.010342388835451091,-0.003922539058004548,0.04185097192212306,-0.21273892686765775,0.38712102658623626,0.0299978061979927,0.1694859584561233,0.008946345856770614,-0.06770446434679728,0.07987617306627628,0.004958048822404047,0.09532545296603287,-0.06374281561578898,-0.01625890586803666,0.026954387835031176,0.06125227482251221,-0.01351537301666104,-0.1524415585037504,0.04997497592046395,-0.08358474777492957,-0.12154081769381421,0.16992559908028568,-0.07450423590684155,-0.08640563718973879,0.033195883288315145,0.012420246033334536,0.009411744838504616,0.07083964941902726,0.039992667016910004,0.05349950399461489,0.042159734191125356,0.017179923617339492,0.05491592606359348,-0.06829070503634012,0.0944325499768575,-0.09649739842069935,0.09741889325456991,-0.0030023517929044785,-0.06934258180279784,0.03195294179124322,0.1753886872037636,-0.12350408685841056,-0.06762567403012963,-0.07948008722274458,0.05783647385041671,-0.11709030088697181,-0.07680317348233626,0.05333113829135151,0.06813873205999638,-0.08477497170681404,-0.09310620377308176,0.06682557568494193,0.04131294164049347,-0.0009053466335670803,0.09254612973359622,-0.028296909781996494,-0.16095433041617288,0.05976089668134888,-0.05348838291690184,0.014636337740804951,0.1500980672927309,0.06835224577344683,0.04055258662468969,-0.2877348492925248,-0.42777675313293373,0.024168655026694047,0.7884722891387284,-0.44749701474897624,0.010331470267442189,0.15403272569964466,0.15245992199550282,-0.6780677244855734,0.4571764508853966,-0.24325088183758029,-0.14692534082153785,0.5992135184645384
42.5594482421875,0.8604011535644531,0.6035788517091146,-0.12216852222122511,-0.32232667220705535,-0.3789529506127229,0.10948930983562014,-0.06585531455881793,-0.046202133272717945,0.19969880609024898,-0.14154929176291828,0.21552837459761,0.057375362067181974,0.13472455500516992,0.5911468641037346,-0.2618239066991609,-0.6526701000647196,0.1256762076769072,0.09187579717316885,0.003659861519945559,0.06650508526147157,-0.31455673397765593,0.5211142826844071,-0.09574232450039043,0.10828223351978976,0.015885040193909572,-0.022696965574802642,-0.0021424521120452303,0.1964016079445469,0.10354923102673876,0.18135883183971335,-0.2357951258910572,0.07080826765183515,-0.056266489887571505,-0.22791378520159206,-0.0012894374731585306,0.056576611628645516,-0.05353766898239256,0.06381593221287378,0.29567401686374567,-0.07678770158135309,-0.01844755030644534,0.054146436790608606,0.04903641731987208,-0.0672732123439722,0.1699157279693597,-0.04797194725572064,-0.03787269416985432,-0.06607636109370212,-0.14263060151964121,0.09530374897116439,0.04031864369050307,-0.04338408678221881,0.14061631805005875,0.1106879637642129,-0.0663474783911206,0.11895723786353113,0.09528649662030003,-0.05504881250930876,0.10933212832137675,-0.034203699922937064,0.012279011062352848,-0.037279883735385023,0.03963873792034389,-0.033590436490637796,0.1549823673646593,0.010661825498031033,-0.0692378535263499,-0.027628729843426895,-0.046879424016531605,0.04131287868490637,0.026003337611796514,0.06217399843962207,0.025147615993883828,0.026909956808872974,-0.027890100476759275,0.03274746514911692,0.016103236680916178,0.07465987635808237,-0.015502991006675217,-0.007698267885923877,-0.02667124743855961,-0.18581522349376461,0.005544098228852474,-0.1396860355828872,-0.152157667497126,-0.12612032465586273,0.31893246021891075,-0.15449405925102158,-0.08262199323737437,-0.034643064706856984,0.524599377287293,0.22247349462320887,-0.14751151590661998,-0.7206700067053163,-0.976752445009839,-0.1947774739438349,0.24308810414354762,-0.1024970935756511,0.2045463182904655,0.6896311686722387,0.8015565438132486
43.41984939575195,0.8694000244140625,0.6338611384011771,-0.060330182443026466,-0.511361586791323,-0.43738180075897437,0.0439476343390551,0.5113282218680911,0.4523447780913189,-0.03584402976356213,0.34210923429925133,-0.030213369099437035,-0.05436768226550054,0.10968789051013801,0.1383472680967902,0.45532425585988856,-0.24034570243720646,-0.015215159050548606,-0.15745496739695883,-0.05614111144375919,0.012204097845071956,0.09579016506227388,-0.036742588244078174,0.00633739440478881,-0.016607252438061763,-0.008603937968659554,-0.09398901398393719,0.07060818929523724,0.16191453768488415,-0.28674867113412034,-0.02660340006950436,0.0883187048623973,0.012579004240187153,0.008428309180781912,0.1663439029433923,-0.07930197014616153,-0.01366323051964508,-0.12310742215016945,0.07818406433862511,0.0321380592898738,0.02963749975542053,0.0386451860784173,-0.005048713685974489,-0.06838429279795769,-0.1037622657934308,0.0689298847523352,-0.012584765512341178,0.040710978128964466,0.1706770219801324,-0.08684846959595072,-0.09782074599817944,0.12486806943652139,-0.08549473327307039,-0.05931449110210597,-0.17076870156663973,0.053886328624394395,0.046031902829892134,-0.15723744778181023,-0.09841230017800852,0.007028622566269446,-0.10369513421421976,-0.007709297027960638,0.04080459098143748,0.038200370569261746,-0.08480396935299706,0.10051098104404406,-0.055199496719961764,0.17347247539695038,-0.05366475246641555,0.15587862957161197,-0.2514162481026773,-0.009054935138868021,0.0733778165700217,-0.016703725799651653,-0.015591548918687807,0.012337893825122667,-0.0018373884015214746,-0.09236107455537217,0.07862308585951447,0.0360295892821053,0.0653728560083248,-0.05897450631257787,-0.03559366860932688,-0.10044118039688935,-0.017994657858664637,0.106632277299029,-0.37152688323787464,-0.45593399113999333,-0.014890171211049614,-0.13117150614375897,-0.3748356056415856,0.5695133138953199,0.15301652744167532,-0.15344367562375064,-0.5554940140105957,0.30810299498305116,-0.1573572124832326,0.13832634091608648,-0.07724740934405855,-0.14506092800242315,0.11789152630826162,0.30817689096879497
44.289249420166016,0.9006004333496094,0.0868085890601348,0.2505632457090625,-0.9032827280879067,-0.5337450075767067,-0.047421202219050704,0.15614319065496995,0.8099261543785002,0.05165190610854238,-0.15369221448399856,0.17928068790219165,-0.05714270934049136,0.18990929973883552,-0.07895881788231998,-0.27509439162165406,0.10953499907331146,-0.13703818044910535,-0.020880213201738225,0.20255086706472483,-0.16183794779341704,-0.07351892690985372,-0.36618936768263777,-0.5763115107130866,-0.22760806790137594,0.01131726587353584,0.07585281254935534,-0.19293083192952387,-0.0064477112000830075,0.19771707295161112,-0.09556176818116907,0.3621086314289348,0.08535020264973346,0.13718534865157353,-0.21560436365322147,0.018181537446032677,0.05168592246567983,0.003048044244393016,-0.017381812770305264,-0.06439520485811566,-0.05306960553685918,0.05952895100873163,0.1342493014267577,-0.12263807099760966,-0.048399494949671426,0.06809089810285994,0.0022095831860917264,0.020193569747195585,0.01153978825341054,0.020876939327866537,-0.004985421584971887,-0.10987466012447088,0.059299993854012495,-0.013348180716797413,-0.058049956504307845,-0.03174465054138418,0.16016440195198894,-0.0685841969804315,0.004686719196872342,0.056836758520486926,0.09287214195006246,0.25708416481623575,0.0922976643789824,0.08439635328296347,-0.16990897435049113,0.24813596905883417,-0.1037682345242328,-0.03669022793361021,-0.08327303815013042,-0.029088753846862672,0.03919941646147672,-0.02196173072131212,0.049033341723497395,0.018169473530401152,-0.0497200759535678,0.0015396874838694747,0.015115932293922427,-4.91439560228011e-05,-0.06747762030768975,0.01898975815662543,-0.03947424857817854,-0.04840228011208701,-0.04835812536636892,0.05760768538280326,-0.15408176667073128,-0.11345882457039197,0.24095116192948374,-0.15171325489183674,0.003400554264547896,-0.1512711615305345,0.0501910475451696,0.24601458293525405,-0.3526735142541904,-0.18371877880622126,0.15361320952868757,0.5001649767457713,-0.7301017825932207,-0.4599605815207668,-0.672711509532333,-0.08112282127055648,-0.10228104802676188,0.8612943245838859
45.189849853515625,0.9001007080078125,0.5754126573973302,-0.2558841922297505,-0.36336796741778876,0.2163934627072328,-0.15318816471579183,-0.05117252280872413,0.049574894545658915,0.011266011929464744,-0.041400280419892924,-0.09858549666000149,0.09087920788578256,-0.1156007382422454,-0.05234182603024365,0.2878023932026719,0.11790742215552899,0.028999243200536345,-0.16086261260022633,0.10151442581384194,-0.09407407038815507,0.059513118454213566,-0.05465513800184102,0.11854746549404216,-0.04256653246042126,0.060701317682936684,-0.05442586009826382,0.028137781387949,-0.07526272404739213,-0.03657302655669962,0.13430980886497293,-0.07971001937820557,0.08663103147622671,-0.016039475358601556,0.04633311780639195,-0.18709497062654096,0.0037366113415794183,-0.056834511291673835,0.03679752498322564,-0.1781498918704571,-0.03375727233429245,0.02598354193357249,0.060687581084371514,-0.013157262872999329,0.03806944871820038,-0.03378405452371416,-0.07443462350363311,-0.16751111603869298,0.07478665731526593,-0.053659313867423765,0.106231249905293,-0.03187631895202239,0.09075066495727452,-0.049152968880726365,0.048674695595778236,-0.03508776723670686,0.1022570074328852,-0.016445532308498927,-0.09679719930954706,0.06656918206877599,0.03486157298907719,0.09063489265198188,-0.08032726305058412,0.1478132540031111,-0.023438424967882527,-0.12354624724382142,0.020269789158648674,-0.03545413670384643,-0.016870425918825455,0.01751268472557269,-0.0389282980613841,0.002381228009858821,-0.003116112444342312,-0.020706820082928092,-0.038850755427523524,0.012154152492278266,-0.015194590219820118,0.01200358848818266,0.046380313599229714,0.09598072648954836,-0.05429749065864803,0.012715737871288171,0.2999105885865297,0.040194646875164115,-0.025142423225434897,-0.03791120178653787,-0.08358493295839695,-0.26407729173167593,-0.2466087603070734,0.05316559735231875,-0.1836200179820322,-0.3241560873519605,0.906349353990013,-0.4841088822547098,0.21615827483938935,0.23886557972783937,0.31570549234769485,-0.13531632128277024,-0.4806829480132939,-0.23048777388464614,0.6101229954685362,-0.2813718136083983
46.08995056152344,0.8998985290527344,-0.2711421209898297,0.062190667755832825,0.47609988984084495,-0.07391889754904155,0.09619740427114153,-0.6298028355819707,0.13037653719190267,-0.052461243759237726,0.19614550348495768,0.011838148876794935,0.2063341058489191,0.15045749535406622,-0.14208963285999804,-0.10799447999932724,-0.08666143648639135,0.059095938379045226,0.0009970409870316416,-0.01847121314965379,0.042454487950168325,0.015109814968562951,-0.06640686562472474,0.08016125764823545,0.050372356277201116,0.02130264851646005,0.13813800869783271,0.07540915560097292,-0.032145582182413104,-0.021064837066436325,-0.04082654510468629,0.013793948984975265,-0.26255145719880624,-0.28154428484015664,0.23998673698844042,-0.03408912589112456,0.023579710257877393,-0.008748533581019765,0.08588565653929825,0.07902509423328986,-0.1272705147883831,0.207708221987643,-0.08620536685650274,0.06221463525923289,0.026079382571820964,-0.026962886377272482,-0.029824495499889178,-0.10748191345729366,0.12134202607824192,-0.08476112791757226,-0.055302478257859125,-0.05475439976794389,-0.08888948597211367,0.09676058411836977,0.12171783297271434,0.14799842925398332,0.03767789540805644,-0.04942895076445679,-0.08613295161371004,0.20127585756244992,0.010093290712438849,-0.0774917998171431,0.02288181372283718,0.02190852371187404,-0.0360152737025421,-0.02815313103019749,0.1798086724883895,-0.020307339577441103,0.03064378429740955,-0.025605984190342518,-0.019908949504336054,-0.08381552754015296,0.09667973756964318,-0.020923536092299615,-0.006794286757298439,0.06646568556976211,0.06910514943614321,0.0016332972503271476,-0.011576983941835097,0.028029642254118678,0.16092622510179505,-0.006640408813415859,0.0742971944035575,0.2016143037076352,-0.04100776691756819,-0.12386636642242341,0.7457254556504185,0.5695104300341766,0.09447848417823126,0.2650766845846673,-0.07996331839391836,0.6001567647185635,0.645612794498836,1.2790498538897104,-0.059429645748842436,-0.522333474490762,0.34185303664553596,0.8826049323271961,0.6367987410644037,-0.04077034585658662,-0.04504767558697234,-0.30497380000526775
46.98984909057617,0.8899993896484375,-0.25923727697015486,0.1664551617426136,0.08015924855967207,0.3132925244833703,0.04892666152288486,-0.22611036482127683,0.23479033656430864,-0.2719568004057043,-0.08500512292320128,-0.06465634843034886,0.1628249175796523,0.011949264510733512,0.05793466160371495,0.06065407779541859,0.28957941919814856,-0.24679909991823887,0.006011474401716437,0.0426075429956485,-0.02874876165359941,-0.03866357284810964,-0.2366997608074645,-0.07754605034521976,-0.009488067717300016,0.2008664097307843,0.09263241229865493,-0.021207838204695476,0.20427725299032384,0.14594617622579747,-0.13772071112394593,-0.22598916393887902,0.005388845709979665,0.1605793944751729,0.2008506621784586,-0.2752921522849565,0.21309489002616552,0.16058412133547442,-0.0032760068363877726,-0.03996291313767657,-0.11674843644552806,-0.0015390726586820593,-0.025340045852736158,-0.08427821139383988,-0.0669541801905841,-0.04132774151046844,0.025493647819402013,0.13393716932956287,-0.1613370123068035,0.02739604665170274,0.06613243169763297,0.04537252728264859,-0.0050958224670449165,0.013621499464058329,-0.08934743930306094,-0.09346923277577622,0.058974802705692206,-0.035410370939829704,0.027206388311603123,0.08063154519305062,-0.023130600774775342,0.10945464807164268,-0.016274533388483947,0.07886015984084235,0.08875487867245813,-0.05743048091478918,0.11842067977683686,0.05482122812623751,0.0008975229478791896,0.07981465667292893,-0.10885582460444966,0.10463500992084304,-0.022475848565330754,0.09425723844999731,-0.014750528295648995,0.031915801259096405,-0.04809435029689271,0.04819806371641813,0.03044473460724122,-0.04812552603742387,-0.0008918407888292568,0.07556855140175474,7.880358075081778e-06,-0.08791866610863558,0.016723948839446307,0.06724999012530794,-0.03659260672707362,-0.16056407001096035,-0.20678393360855093,-0.002942243548172744,-0.053927519467206336,0.08014527463052527,0.08077782618544564,0.29595202272642773,-0.26702986566441617,-0.18601309387543694,0.0005708637332520888,0.9385739352032108,-0.18902005249489628,-0.571673533097144,0.02793902674209707,-0.6703414088665901
47.87984848022461,0.8701019287109375,-0.6599168789006907,0.17606799245864932,-0.32918609022674533,0.25865148042739605,0.09056502082229567,0.08862874594878845,-0.19132897557263143,0.38126178953386375,0.013473906008370652,-0.05828997143499921,0.14939006476674804,0.3887484352030385,0.22690016900801493,0.06121906169868363,-0.09575052799799116,-0.10918246517767077,-0.04941647707763286,0.09953767225868831,0.0243166361189854,0.12209703634458635,-0.028535212551161496,-0.10422823113831295,-0.3648361649533294,-0.0243284932118064,-0.29562778395056316,0.08440331795117846,-0.05624574725549946,0.07095756388472434,0.013187481017666217,0.01235887326445757,-0.1115431769015654,0.09924345347857771,0.06263360733686735,0.09967769854019581,-0.05771128545257761,0.02113184924673404,-0.08440325061968347,-0.15788802104010996,0.12852918601226235,-0.022278639512151793,-0.006538340304443899,-0.040794076641141985,-0.02787976928682065,0.004656915029627812,-0.103410054818516,0.06437221980790606,-0.07543319902903176,0.09306920359601843,-0.13205485036785058,0.009983758396515684,0.015620840545626152,-0.05226722160045837,-0.014239104547403656,0.13908056117431608,0.09632426305444894,-0.32352112662759497,0.23699132576405896,-0.04198146493966265,-0.012377998880955443,-0.13259249885310792,0.07900170817174326,-0.14325531948887565,0.025021392689802413,-0.0021905795764324,0.0125384810580652,0.07089897252231338,-0.054277697314571965,0.06234086605544533,0.0550900805876222,0.009808586332387847,0.047700410839380175,-0.04279791607009589,0.03742716531990859,-0.0008189203989493118,-0.0555232877484854,0.0436924242827561,0.026619589033969205,0.06626413364497624,-0.19821568760909752,-0.15356555550619735,0.050661054445780146,0.08676788921523117,0.08365409173534118,-0.4357418377362282,-0.5076440625936868,0.22592659806189788,0.05725465837098932,-0.653390239951663,-0.5753782615497157,0.3011225675265458,0.4365897387959244,0.5700098686242758,-0.13487627011208844,0.1347919461904515,-0.3276256057336619,-0.607964299300805,0.34195934299786634,0.16156507489362293,-0.2500990846187039,-0.031336041036511775
48.74995040893555,0.9000015258789062,-0.037966215645766216,-0.016209533239632007,0.026197131097198872,0.02854701383341665,0.13371852042236265,-0.21264186327326362,0.05185280781464297,-0.45208537045680236,0.04224838721321533,-0.4848970780444986,0.2825097081095683,0.0334232796761674,-0.0816402792732151,0.1826410954753208,0.15927004421238816,0.19818664326097737,-0.10933068223870063,-3.489977761397117e-05,0.0312387001070224,0.1010942430357269,0.09973351763004454,0.03958936612765497,0.013184831627401118,0.08786103603416912,0.08454410729819006,0.0102900806894905,0.01767828958046283,0.24405729475577462,0.20458083841236027,-0.07342638484499472,-0.1826831672465109,0.428984474008565,0.10043659717727046,0.054452661124620896,-0.011458062466162926,0.0016218696159127819,0.11896568257017477,0.07225381485844422,0.022539033294552938,-0.04437825778142916,0.08845010778943016,-0.04799396425211746,0.16153654955007174,-0.08663963504642481,0.07497297860743936,0.06945080418849836,-0.03896724769394973,0.1163653039952797,0.027456510738039237,-0.026135781409547372,0.059452712183045875,-0.04839507655983352,0.0240868800574459,-0.13301554204585933,0.04162984289242814,0.12425762216100349,-0.010011868616177772,-0.05759370266254533,0.047144207012902076,-0.031583060327219116,0.07371105373207984,-0.06296428749207149,0.008671004903827136,0.0001598940009223393,0.04365422053628423,0.03804881309271134,-0.07662635205704561,0.09163448022360668,-0.06562611845000597,0.021760342705151342,0.0024926535588625743,0.014419973777633587,0.11272317050065346,0.011521996389375122,0.01557772673593821,-0.018300583402312703,-0.019686120866169353,0.06524207898744057,0.003497276451573731,-0.03356584785838407,0.0789465113386273,0.25272696475078543,-0.06113183932699184,-0.0478911918380426,-0.3492611454112552,-0.06134985823450475,-0.31290808751606625,-0.04003052433333329,0.2629692449732998,0.548164507048165,0.13147901673047765,0.16171948020455934,-0.23625218188812364,-0.7655233390296619,0.16530992059790814,-0.48573411998287674,0.0841355951652326,-0.5531484648847704,-0.10015360624239661,0.356717393449297
49.64995193481445,1.0294990539550781,0.23203656017050867,0.3933559044433846,-0.2724270721198611,0.1353053611936051,0.21165652595005363,-0.08784363362453859,-0.09153430569900278,0.14371205584740068,-0.16538399477540217,0.14671230842865052,-0.06012789555839533,0.2271760795125793,0.11650011728035153,-0.14353823387616493,0.0500782005714427,-0.061956064801475585,0.10120406913071534,-0.0043339145163811404,0.04115310673547116,-0.05942877874991906,-0.0722829353504719,0.008275660994192446,-0.15840971221108616,0.0041123600470308885,0.004658105411741723,-0.07974754951151211,0.05408313345201536,-0.007580017458344132,-0.03018183939042957,-0.1159559057971595,-0.012773410380727802,-0.061894607800662915,-0.04197354241594552,0.11647320944050153,0.00285147676415131,0.004162273297419236,0.01269739612551914,-0.3270547297753026,0.06381853415128194,-0.18102422830693524,0.06430728387708735,-0.06849522126420976,0.17532210264506362,0.014904033585351098,0.09227322686910884,0.11014514014092244,-0.037418599147494444,-0.06225477914308575,0.04323420358854613,0.030989001705822757,-0.029158275686137672,0.028082229313373244,-0.13026768985398218,-0.047456491388371186,0.07463210478773499,0.08901572615929998,-0.09933424524499289,0.14706817831857846,0.03637805063370559,0.005372034967846169,0.01863017003505798,-0.0690025945374905,0.0011376769351914978,0.11523232070359553,-0.018551022833239783,-0.015829919228785846,0.010478058471573917,-0.01735821493023466,-0.02319478753247089,0.07040166427362687,-0.018170725135332758,0.008714145872495208,-0.07894341294714195,-0.07957782608589062,-0.020013707489294912,0.0763101924693993,-0.05986584366170942,-0.09611842036281591,-0.0037824693515698254,0.0577566612171105,-0.24591112357088973,0.30741367688596277,-0.23629882770625385,-0.2718739125339839,-0.19068030236319866,-0.00043689375836848676,0.0038535584120152795,-0.11341429643551224,-0.2788273112086216,-0.4304885818181861,-0.2594534705562625,0.31652305669137115,-0.2069371060527376,0.14059960177741898,0.41022077684242353,0.5340644692044729,0.656455298809412,-0.29219834765834435,0.12217761590647877,-0.16163625890503713
50.67945098876953,0.910400390625,-0.036739396191127316,-0.3264096319924297,-0.6556454830932089,0.14907926679594774,-0.10763806347181591,-0.10396263185672629,-0.19250262452261593,0.13607746606972904,-0.013861637524873814,0.21131970838619032,0.18276890978362714,-0.08605487282257585,0.0802748726360975,-0.2352517108356364,0.06570111558178438,-0.026773982452546162,0.11499429110606402,0.12314091790030286,-0.04441945807464262,0.06219688302808627,-0.06841191517376596,0.1743903084245179,-0.15378303324635534,-0.019262447663036985,0.04917901235066425,-0.13320169698482096,-0.017759223666197463,0.16976761554228742,0.07765094140397685,-0.0559958004153287,-0.07912275309206299,0.06046977702917358,-0.0019319794524106184,-0.07355819759381424,-0.1986515465182095,0.05054606790983565,0.07849307582856441,0.06276006523737909,-0.29142900551145345,-0.0026301791533196494,-0.27438359355058467,-0.02050196967123456,-0.047658017095399755,0.269220512830441,0.08990344733788723,-0.11729449619866056,0.16483274852350904,0.051240584024466115,-0.14834065079900355,0.06097458104287974,0.13557474841137807,0.10715131740243436,0.07628689194421587,-0.05066213327242411,0.05142530280563358,-0.16367502741344583,0.11037150597330525,0.11684364388245179,-0.05741657677828743,-0.09162865935427794,-0.01971856939348526,-0.08542761925493542,-0.07242705906597453,0.02845845241453342,-0.001284907519887385,0.1258733989516557,0.004430138134287439,0.002022924547829527,-0.03046328833288478,-0.0528855177507618,-0.044940992739066224,-0.010956575128186347,-0.09436410909771786,0.06394972784809766,0.010148446405537073,0.02055854338722208,-0.00800593710706711,0.05921119624647627,-0.06466359875832511,0.006284853126387366,-0.025348383830520863,0.17269247054140308,-0.0828589891610508,0.08570144464592865,-0.07456452906503758,0.13891185425729483,0.17003104590132145,0.13939169647065203,0.16390631434795508,0.19213028006673377,0.26491724350620977,-0.04346807839475614,-0.015050573550789315,-0.028854802856061068,0.26847801027807683,-0.3308473757113148,0.43318878656809917,0.2692371598187917,-0.680210412475174,0.4018303537763508
51.58985137939453,0.87030029296875,0.41350743365340376,-0.034642846352023006,0.41999720136365737,0.5608979280215398,0.059522289394279324,-0.084722969143314,-0.15206267125947764,-0.69273864220641,-0.42032871172480973,-0.4693292359675817,0.26690115558194477,0.38169769067040105,0.19110285234439872,0.13283548179404656,0.19785438627237212,0.0799030456774246,0.15348303486681478,0.10292010203528477,-0.04962511966094331,0.24411297746123073,-0.08141772822097065,0.009618382781184421,0.15242362155382477,-0.05780282822248905,-0.06424378280231503,0.1353412539483488,-0.09689209953314445,0.27956361637667115,-0.057228086308244414,-0.24713429072299214,0.008271940712078827,-0.10296596846370008,-0.029721411829139965,0.021983995676120582,0.11255357946297764,0.006133453781633342,0.007409361962760695,-0.02449876485062788,0.02942954742596094,0.007816909369020006,-0.03249383617284442,0.03968818341884181,0.02224025912022057,0.034268626852326775,0.08973865865833469,-0.10235490064536969,0.0999325407360622,-0.10751847554914686,-0.049694200119142135,0.2109022047226964,0.06996415831341544,-0.00823240726542301,-0.14390366577552866,0.2086327179927494,-0.0975555276440982,0.006904028451834007,-0.0016141039771091215,-0.013943140798240938,0.02429463296731784,-0.08812867553918498,0.004648849884418659,-0.0019520918282171606,0.015282088233416022,-0.08550672388447325,0.09676398070349328,0.04526230629203842,0.006969525335344838,-0.03176504099084161,0.006577727881906812,-0.014825521568654493,0.031871998023590635,0.06136505643566074,0.042588753206522265,-0.006581489315431585,-0.016530549792265634,0.03103393509838974,-0.007137399229915589,0.019366232346082077,-0.030651395331119054,0.021096138000619373,-0.13795298026785252,-0.04412063562485674,-0.029771619782698197,-0.07383433244710075,0.2521440698311288,0.4530939471523857,-0.08347051968537897,0.14674885284978895,0.19090727723649714,-0.32259797228812664,-0.4241202830166069,-0.9806518583970856,0.11529452709928638,0.5506022557309226,0.13091161771608925,-0.44761303509428746,-0.09467243689429683,-0.4895161221888517,-0.16514776206780366,-0.059009164494186264
52.46015167236328,0.8694992065429688,0.08023960646279207,0.08738192629222069,0.1399673091456553,0.08035025370665107,0.320989984311979,0.20848647817662896,0.2049392876457123,-0.035821298532575235,-0.03854668994540797,0.16030948592570973,0.3474069668375707,-0.2681857827262283,-0.10689173545094299,-0.08707958037935655,0.23414566628318856,-0.15361321636429762,-0.064655235167841,-0.011755731662900299,-0.12045929198438678,-0.2678752117653739,0.1010350454343325,-0.2714076440421386,-0.06560718836180006,0.11606620466334744,0.0723846266309913,-0.0896694348595028,0.170291526915021,-0.014171165135545075,-0.11824092049891645,-0.08811453326057438,-0.08231624758028332,-0.25983946440727146,0.08859900466850223,0.18754515554703663,-0.21138413158815422,0.2665515620247401,-0.166426911486571,0.12322498434391173,0.06005743970394681,-0.10430887555648324,0.0025807810904506486,-0.13557074525218307,0.07768484210031455,0.018792748347347864,0.08583426758475528,-0.0760878857583403,0.08400583776450254,-0.12706366371146843,0.18304989191622145,-0.06434577014029903,0.1265265187339914,-0.05845034919885168,0.0568167544806474,-0.07163473704381014,0.1508896644859794,-0.006577663767070557,0.026619543917040737,0.001228438010835567,-0.002347753014519398,0.028978603913721368,0.051357893934218767,0.07202199540064369,-0.0436161043846276,0.06903544751304888,-0.09386979395490769,-0.02436462500447669,0.0314683896987657,-0.027651666162077423,0.10460593547561235,-0.08918248925077113,0.03346045822903959,-0.23351867494389858,0.14725523263342838,0.050736316663946075,0.01340762753895622,-0.017646368510669877,-0.057265408014222495,-0.0543339707250677,-0.15580012100561813,0.05295843378222309,-0.1717131279216344,-0.34101527269679754,0.0063215236993000995,-0.0862955803642898,0.13431814874540687,0.5022178806126072,0.05421227168713515,0.46918573880716863,0.20221665165214764,-0.4268927034869885,0.7715091243681914,-0.21071661737984526,0.988778466187475,-1.1953143141943647,0.9693472700054616,-0.02222139671843118,0.30857166864507657,-0.41779048069073016,-0.028075558156972324,0.1389242416135018
53.32965087890625,0.900299072265625,0.31186780391050783,-0.2306613533678622,-0.10898183087835474,-0.23513877461586402,-0.16571572591216235,0.2628705270324438,0.001594657775119919,-0.38737498628995776,0.14118640035818503,0.15593939285124392,0.07960822224400177,-0.013573527949756525,-0.031619813043478544,0.19630739650302592,-0.16200037061982134,0.03482042441943027,-0.0710917467801882,-0.0636676751106382,0.012860939417236712,-0.017494577199385596,0.07464934697432794,0.021574558038380758,0.07754695012165717,-0.18476323200413697,0.0401304817294721,-0.007248111114708521,-0.11789416350159511,-0.0692059598225912,-0.005129876418580273,-0.14048575793851986,0.05184192357826883,-0.04844802292303519,0.05838778296393063,0.04145584797659328,-0.04426025203570936,0.020563415156719087,-0.05559611791799042,0.06764656284423674,-0.023190547769076537,0.09175104600849916,-0.07907946214919966,0.048571998059682375,-0.06710511945372719,0.053885715613714524,0.03907665093375375,0.015576149238794483,0.016731183080996845,0.09520249685643722,0.05819832572638051,0.03761314945069855,0.046190339273890636,-0.000391254449638263,0.01880476948971542,0.03588695339416608,-0.06830166353840154,0.1260165730277001,-0.031522960202876864,0.09902119548725018,0.024922983659000458,0.02849270131859202,-0.031006330011229814,0.011113622731341897,0.058592840667638396,-0.036531332220459914,0.11506975366810056,-0.03916568631746243,0.03003980140740308,-0.05615481446760513,-0.06566723434377991,-0.04161325878625967,0.04803393500657497,-0.01040362133151988,-0.0372259424695478,-0.006551550009475614,0.019680539438524935,-0.014447335937583851,0.07037468075247527,-0.031352193227789364,0.003898007647119353,0.0757476565544265,0.32283518545871065,-0.28612609137781436,-0.16470475549178665,-0.18475356574506843,0.4546751419780111,0.07530725361586241,-0.15214073674080364,-0.04651215968969942,-0.158018041959183,0.4840674733225162,0.20182894526936812,-0.772280523589018,0.6343561737168988,-0.36461877627984296,-0.027995802969879927,-1.1474334149606487,0.6941185429152859,-0.5622496329251249,-0.27407519115310774,-0.17988954891173015
54.229949951171875,0.909698486328125,-0.4222392522510623,0.06332921173997011,0.0855932599159992,-0.08811433372301888,-0.06180389239372472,0.24793899519323037,0.32944266008369244,-0.25528930387044874,-0.10223642460372248,-0.13509219426852945,-0.2825554317259395,-0.08725581481498676,0.3348314487192506,-0.1976572399569663,0.0756471117201831,-0.2667388374969313,0.03733824921842131,0.015864411130024382,0.021326994592651208,0.11199281555811573,0.1903269808795892,-0.003564014427618182,0.05393301669834033,0.018841704847142215,0.024715391963995168,0.008256543526694502,-0.007743970436462437,0.09971391423192391,-0.15569955720590398,-0.25340414734122846,-0.11348411041349045,0.14961772948574886,-0.008063098021978556,0.08192434906775742,0.06245143679765979,-0.07013314374491951,0.07719794603808199,-0.06507663827072785,0.08985239203687453,0.0734281211651023,-0.006289081658385995,-0.005511020654474527,0.05284208846900418,-0.025641237092906374,-0.038638658444664326,0.029919704220585538,0.08103748122187035,-0.1318844461232476,0.0909904512139098,0.0059607822044845955,0.069607089530599,0.04818821947533704,0.08455775062825463,0.0093004863881246,-0.05007813487643808,-0.07011168123318187,-0.07899315107666216,0.029075301854255792,-0.024626112178608408,0.04939255939318446,0.1608962938812478,-0.10183750542233107,-0.07669372966700957,-0.038961257537912866,0.006405064325111387,-0.05747662904904219,0.03010680317218568,-0.07321290546936893,0.035325504426880816,0.029589734040726602,0.008549405885523552,-0.08943718070754801,0.06986640194074654,-0.00784164644185394,0.00789224285357202,0.020649115724104838,0.01882162339484413,-0.04132771758391139,-0.14292375533877444,-0.1336466130275821,-0.061802010644109756,-0.19247891524575184,0.09372820884389056,-0.1561977914190883,0.20667601207958058,0.16180589674481763,-0.2868732629421903,-0.23389316170878988,0.20797944212310163,0.4237592800403449,0.26674403515929596,0.22278464431898765,0.3526438965060133,-0.5077566247451689,-0.002764106309085558,0.09769450398285914,-0.199829116904147,-0.1905034084699135,-1.053561653062854,-0.1218683210201369
55.1396484375,0.880401611328125,-0.274367222389133,0.10665810333161785,0.17595703539039959,-0.25577731529049236,0.043267630716271294,0.3679603182236476,0.33187124946286584,-0.2574271847669851,0.2544196786220912,0.16886166498959757,0.12517057814764967,-0.19599985690148353,-0.0641663949717742,-0.11827140088487374,-0.16075072583652006,-0.08519209729317073,-0.007795717463219764,-0.00038588299930960576,-0.02379140237377587,0.039879962522811924,0.007137574802623085,0.016573818575050064,-0.04589780372207654,-0.04957644032909202,-0.043006652712360253,-0.027569015999824642,-0.3920893462274501,-0.05855343718514723,-0.052819549962552115,-0.19413695495200203,0.008463322632113033,-0.07395251247921668,-0.31314416328074973,0.18366914562290476,0.02179722887238652,0.052918195281402305,-0.11768158536562012,-0.03599143461394101,-0.0854241934755284,-0.06761835122288445,-0.10491410147208843,0.15132772065748273,-0.05507693061133458,0.0005857870102598423,0.013767935332744743,-0.1361974555704788,0.07388923095003037,-0.09278046889182835,0.011928897942151958,0.03105917997917681,-0.13690283846109946,0.10649649842335894,-0.027906310917936952,0.11713174531129562,0.03656211588212701,-0.05730826582329519,0.015548591776464383,-0.05361712731125616,0.033818643331839676,0.05561817051676391,-0.12560074120564257,0.05304536070053578,0.07186077443962248,-0.05898802767917272,-0.14849797404913087,0.03519535461007409,-0.058807633432029584,-0.04192760882029214,-0.03713956867386055,-0.03843673481699731,0.04912587500960651,0.07809287986516397,-0.07423966480879388,-0.055522727657621285,0.012085965173436004,0.06153768041020922,-0.030425698603387532,-0.05046845838763152,-0.1451099521195133,-0.023335676925024255,0.004285304090760285,-0.029714123055993125,-0.09258176180111406,0.335138136865863,-0.19290651842189513,-0.20829484243681992,-0.18321684560506724,0.1803239035820624,-0.17650614476590704,-0.17561388570698921,-0.25646149326864986,0.05238918052978693,0.8618855238983729,-0.26802047050917444,-0.21742603509496772,-0.4358184674467128,-0.34616958204955095,0.16842752390529295,-0.7575321780580568,0.6035581602602917
56.020050048828125,0.8501014709472656,0.34271033987745236,-0.5838299356306212,0.1709250390399929,0.31673822274707125,0.04621152021320946,-0.20077245512509526,0.026346733273990938,0.06772617813122486,0.6707785888030088,-0.20887532335692732,-0.03392816930915916,-0.12235697369427506,0.0533211123008265,0.10652928058796479,0.3719211260610976,-0.21906039910074537,0.1079775691195178,-0.11983668281369757,0.0045319921197834595,0.023613244288917378,-0.03501960199971079,0.01938118681656104,-0.10237578627544247,-0.22432078080742127,-0.15228131729414632,0.3045842224573337,-0.05685001071414986,-0.36516804115030665,-0.08651275341965066,0.09128916354993297,0.30191197402935704,0.18743740957412158,0.16781733882430988,-0.01124243074066778,-0.06321286325477163,0.09007053850106307,0.029066336709869252,0.1367108259443215,-0.018664125911373175,0.05346938970498276,0.1555437688111277,-0.19137781340717924,0.042897202597505166,0.06556340078369507,-0.031109540910193037,-0.16257021493942986,0.06084666342270151,0.009452690841478581,0.008866267924195124,-0.02686802303402471,-0.021173616410272326,0.04632311542325483,0.053561008150246545,-0.44093502083691866,-0.05387000840765868,0.19094339974522598,-0.1751691132707417,-0.20182955362714924,-0.05182477552790968,0.13851419608561177,-0.032818062557551674,0.013903843534505776,0.05086032910243907,-0.019820089274227966,0.04062686006412595,0.01347764495707432,-0.13978044131724074,0.08474092381473557,0.0702899999885533,0.03784384620353882,0.009438045738907852,0.022029069110902244,0.014379162851338242,-0.03303191264174857,-0.028204478088463738,0.01318060553159146,0.03572881841596958,0.013388077963429137,-0.07384105811542434,0.03553855035323285,0.1520258364999442,-0.06739027829702937,0.07543525950853713,0.08848149589043579,-0.2661421099931497,-0.27067954490836443,-0.18323122973284503,-0.07958549391619449,0.35682492136580146,-0.4215769602970555,-0.6189254953328701,0.1373013852526874,-0.9162812824253775,0.5742030957362192,-0.004532178365087212,-0.392481657129205,0.24702149231952297,0.127797507114348,0.465114547540349,-0.1557234196563596
56.87015151977539,0.8900985717773438,-0.27934209948346955,0.4738264608614961,0.5976486873763345,-0.38521354148272263,-0.5600550530021623,0.3439928727538727,-0.24563265725987699,0.12205641927676156,-0.1439650468407337,0.12218256757994689,-0.2579038510661338,0.07849335556972264,0.13814507547337057,-0.15800689854159175,0.33972986033715746,-0.23529299600041884,0.14080049702705325,-0.04505616585655531,-0.053832295576035485,0.2950302555396556,-0.21534866495799715,0.013609011358679193,0.022180573332502958,0.3128010600020644,-0.3872814357606747,-0.15947796482680054,0.03265558159878504,0.050421465424999166,0.4705674243815907,-0.020391120600123984,0.028448955187977153,-0.07923703475728566,0.13802673283035605,-0.007517395848966587,0.017599555350267297,0.08110290015469895,0.026180195093028474,-0.04298768739351139,0.044050798537316076,0.01052398128125399,-0.0038181544353204228,-0.051227983713557385,0.08380224851663276,0.12519531497767486,-0.15402194392109947,0.08108342719232174,-0.045320890173201754,0.014278480024651805,0.06548669778312399,0.0385035788678801,0.012489425565273748,0.08873236419609452,-0.0688949491691693,-0.12065131493669803,0.03758254558535619,0.04376378730070825,-0.20244243172447002,0.013033395871142854,0.015556243968294008,-0.07945036331108773,-0.04849034283326038,0.07410378140408078,-0.015245020078270458,0.057842013031349226,-0.10171709447093898,0.0326707885993463,-0.004806721071555973,0.027517044664553847,-0.005493042342855171,-0.02936530612036892,0.003461902581284726,0.020870965486695175,-0.015529371182620828,0.02231473213383712,0.008747454129375512,0.042347402299770534,-0.130185645477503,0.051064058702710746,0.29916403288837623,-0.1403030736069356,-0.1279711354184778,-0.05209532794845893,-0.08789261790113118,0.7203171669041118,-0.00023390487118954417,0.04317820355831926,-0.019643571141458226,-0.3004147247437771,-0.06043341530579691,0.19387144423558,0.21464050014566083,-0.5047261608204627,0.478834380115917,-0.4269800878707449,-0.12744431091425085,0.027456188927508753,-0.021363060930240235,-0.18033011622819467,-0.10651058447996369,-0.17774310524812836
57.760250091552734,0.8801002502441406,-0.14651308681591246,-0.40161906512422507,-0.1772621114163654,-0.05251050206466212,-0.21303146462228534,-0.011317849705516567,0.07515363898934574,-0.0012074961282236563,-0.11318118234397759,0.3088776157930473,-0.1885476607909433,-0.012454843025926607,-0.22625030401149596,-0.12269407581012122,-0.11604492323257667,0.01777267322319099,-0.016689278914833405,0.10605787104789197,-0.04681459601501231,0.06537942724269874,-0.11005293258040871,-0.03361250165070301,-0.11465215520294655,-0.05897616075026842,0.0809163605455665,-0.14780117953666344,0.012881401400910536,0.07695301036520248,0.07481705971293852,0.013652697179306825,-0.183407064757003,0.17669383147979426,-0.1803171098120997,-0.04186458520967987,0.27423880730465316,-0.014153818133622993,0.05722884362254595,0.019074756992942515,0.014879522612866054,0.07619292454637827,-0.2121137436952025,0.23608838783552535,-0.02328519849627661,0.03496033029125448,-0.07346459878061676,0.04040584540763509,0.02757267919851367,-0.014745379341523344,-0.05802745862756429,0.011301170323015305,-0.0012384664746904334,-0.00859294550369163,0.14590521139561982,0.025791305513449818,-0.2803753958261813,0.02828485191992969,0.008297570266769375,-0.06628629188735145,-0.07144918384142528,0.08882303545837213,0.022394346170484095,-0.003783986071704614,0.06612766682688295,-0.03159911871049127,0.0215819679886808,-0.0034152671181894544,0.012394249389313033,0.0028808410837165913,0.03699890703722951,-0.04544603241152472,-0.0015334172517743917,-0.01725561795784163,0.005536210889881519,0.10848560120146941,-0.02001442158294917,0.00457041974674899,-5.244577517440777e-05,-0.012295877007539622,-0.07692302853790202,-0.02289900315854167,-0.08155218141009755,-0.03966171968567366,-0.07862730957559376,-0.1920712519975289,0.26676269600419666,-0.3533578273420761,0.19518599082696533,0.12003642042324117,-0.24196702453820976,0.13228748575991656,-0.41779127618209,0.47970454903631227,-0.2922642840933316,0.13161730130031996,0.5311367485152572,-1.0650888141510968,0.013263710313196078,-0.060586167958783,1.0372268296717981,-0.05951236854441391
58.640350341796875,0.9000015258789062,0.09957069386839844,0.4739759556209378,0.02170366166640935,0.10862807320903076,0.3493737194366301,0.332788612031707,0.4084267356764822,0.2505332198245703,-0.2595872982662672,-0.08594745270324497,0.015610091881126982,-0.25565051213411333,-0.17906147905449885,0.15756565359480496,-0.05282679032480954,0.016014248303725172,0.0642604703154442,0.010941938264972206,0.0022239006158387073,-0.05766934809126385,0.04960184621913914,0.029177970389187746,0.19877565837860145,0.024951750877510157,0.203089967907643,0.2665530503279828,-0.4182639822373284,0.27873743535689144,0.02372807563831076,0.019738731762722887,-0.03242200400619614,0.13543270290399254,-0.13262534803732562,0.10372717451639583,-0.02466738416043868,-0.06492899996771125,0.01868682009923297,-0.06829865888654607,0.05080125220604976,-0.10984014152048034,0.16401067498249663,0.008498011381883403,0.02714311171816666,-0.03099021755597831,-0.06502942558739652,0.01580526479519407,-0.02811624254452011,0.055012285376266595,-0.10805698234900014,-0.034052040482300996,0.004562901606768435,-0.0070905799089339945,-0.2430154281799308,0.28296206646546507,0.17986681456262882,0.07307013534746648,-0.01114587480050906,0.051322345302006106,0.024971974221179923,-0.13397448611067123,-0.1196920348636572,-0.04627805533743887,-0.045106068566544484,0.08840027909244179,-0.022978350098358642,0.10817823365735904,-0.04156714074296481,0.12642048476054984,-0.07926704498547223,0.016581027632441347,0.03298085042372533,-0.006795942729075841,-0.04890757668710962,0.019037784902759963,0.005758318153402842,0.01037894183809428,-0.03664500710110102,-0.07302824213342729,-0.1050921756781907,-0.06972327395924938,0.054036959604221814,0.3814845270623332,0.07046548564608603,-0.09068329278787075,-0.13327432403824108,0.2610308503271037,-0.36724736577416384,-0.2486631543100872,-0.1575674915404009,-0.21859324714377004,0.004048311619457052,0.20036545251257964,0.3711504955339239,0.4382011893039533,0.4678906457075944,-0.15050926908292317,-0.18068884362888182,0.19036664244096424,-0.09422984207441615,-0.029631458091347842
59.54035186767578,0.8698997497558594,0.1090786060731762,-0.03548628529653248,0.27454209228427423,0.03792798087450991,-0.3916649171188043,-0.27663304594651456,-0.19437471899727204,-0.03584170166014242,-0.028570827297996152,-0.03153702947966459,0.25805774042438506,-0.28116193201757167,-0.27295580614591824,0.11444394239123662,-0.041572780170389456,0.25828091256686564,-0.15174856850051446,0.010905384006108729,0.07480997878445096,0.09142005902615692,-0.013790322965965602,-0.22221183315529153,0.06838697788099057,-0.07063392178702632,0.07091889585807078,0.12666280600926544,-0.22740037721647102,-0.0588275678219029,-0.10315079454854903,0.013903087728461742,-0.2758260662863547,0.05952043184582757,0.17437313023584017,0.0755558979097229,0.1759557746073877,0.05469947574256014,-0.09711252252042174,0.03852315283526156,0.018575394601133888,-0.04440322791254411,-0.09523460707934747,0.04968697267341821,-0.019277074921911774,-0.03176473150768955,0.10075639070382376,0.05390157167567596,0.005017253277468214,-0.05968864463318037,-0.027416267777846934,0.013196328544926333,-0.05862931687570144,-0.002690884249116055,0.05859600841686391,0.03985041125712743,-0.04541088676864087,-0.08108830582318398,0.07863075733300243,0.02565342898355784,0.029108840980594075,0.006830945879870447,-0.015396818934069717,-0.0650794150015024,0.1226489553352561,0.058187973006770394,0.00902055238288716,-0.009184279242536113,-0.00656890791326073,-0.01564156142493847,-0.013465650337170855,0.00677051846829064,-0.10206112497606876,-0.04735849869821187,-0.0762751029488339,0.02392463912333263,0.010608042821649948,-0.0394905425202216,0.07197997886170399,-0.03544158418116215,-0.0077371204561054435,0.08994986789215798,-0.03378199197478003,-0.004917393018686779,-0.01891443665376244,-0.296599015277094,-0.35935341810738547,0.09517384364030446,0.4050370356127115,-0.0007203042618361619,0.12638626365549097,0.29017577205498746,-0.4172834449934351,-0.18776496704365825,0.06953125400921711,-0.05000252591992282,-0.08507730962369722,-0.11346213533511361,-0.3466477210627124,-0.052100272267299935,0.4333780239388201,-0.010103828801574441
60.41025161743164,0.9801979064941406,0.02292716223916924,0.47891917992523136,0.020486134296355846,-0.2712989994515849,0.05904383654543481,0.09137786674796303,0.022850519787796463,0.09279358313844963,-0.09311176237929833,0.09018467528301019,-0.04307032352958165,0.17241880833138806,-0.33674495116874326,0.09418312306879192,-0.23968822731758377,-0.03594204821601833,-0.09911066042816849,0.06983291189148257,-0.054587045250179364,0.061370613171414616,-0.07249878140726103,0.007491581362734728,-0.03285549054831684,-0.09808807929751398,-0.008122350468909184,0.046682950123987675,-0.05610146697446653,-0.04135193510277788,0.11309679753540841,-0.0834653972441598,-0.005736893083863062,0.15298296538152262,-0.14599838108091837,0.08884499522820738,0.09001925607190826,-0.02517395867331963,-0.06286468847089784,0.05564651236315799,0.032148259071992924,-0.10890988516327052,0.01687906772215468,-0.047688669441905904,0.011058467048261567,0.0656171920360588,-0.061761026346262876,0.1511594443439391,-0.07278005740764397,0.040180518894288995,-0.15354456282317908,0.08827812323311693,-0.09225132857197389,-0.17305707321842184,0.36452308890436036,0.05786964183936216,-0.1957242547776287,0.026296359800805285,0.05783891009603343,-0.10210100568276109,0.05143584073949914,0.10027170478390428,-0.029643396684428773,-0.018181684575936587,0.10630466568520558,0.02487324847939602,-0.012120956822813007,0.038233689001414495,-0.09816325622213848,-0.002824219583833238,0.03354396152849427,-0.09958158417147335,0.03217821490189436,-0.05816751014726185,0.017461907403961315,0.02559490085766286,-0.020737429762289157,0.10285235864293596,-0.35657203120417474,0.16649480907154451,-0.12791594964072772,-0.12040243795729476,0.30333717803644455,0.5008234205244426,-0.320120702515089,-0.24554545561452534,0.058181591194620505,0.15035787467929812,-0.3063437663039825,0.4385137752079355,-0.27197266588701857,0.10954243140530096,0.07722965827325345,-0.03744964697184164,0.09754731410305592,0.24724517746779373,-0.31354882021239994,0.6128554183777607,0.8030286394410313,-0.28462795014597464,-0.1243460373868677,-0.36071314023395373
61.39044952392578,0.9197998046875,-0.22851866642121077,0.15800774742105192,0.19721273859452476,-0.14114376258928646,-0.11545079565026437,-0.04681415090567449,0.2606408684101372,-0.12396473570127342,-0.021807789267223546,-0.022359581708452203,0.15889740511032696,0.22746555991476772,0.05221401791512133,0.08160772875147869,0.029208365555921073,-0.11552910124509792,-0.010218089090259716,-0.012260326505242631,-0.04934689217704974,-0.044646737299204126,-0.05400206187134694,-0.20959650081470396,0.007037755965620094,-0.2982165021165549,0.10512490945529301,0.06791913042389933,0.12397426073114803,0.05010217258483983,0.11955179033332637,-0.03909967597053405,-0.029145752257545284,0.12046813368392137,-0.012403671587944013,-0.006788087241352922,0.1150262605694426,0.03741626713555105,-0.17304320209473098,-0.0028995118052620207,0.06597462079523847,0.024029162989237154,0.009404855732823578,0.04298201387394526,-0.000795929782850216,0.11609435077909688,-0.019156308565841614,0.16347643059503925,-0.005253494596353071,0.08337185975911894,0.012089590890091484,-0.028360163583629666,-0.01840601262447114,-0.1524062033001226,0.05834064343542239,-0.04996314059627521,0.09362165048143428,0.02106411496436278,-0.010900425996632834,-0.14580652767813848,0.06840961127426574,-0.028165252817314426,0.05404970758758849,-0.08042795375307558,-0.011563567169698703,0.03186693225117486,-0.0816998403262082,-0.08631257891606756,0.07651226440768653,0.0070751901232667625,-0.07891854989526549,-0.030555194689958133,-0.02334111696128225,-0.008542540947681114,-0.03159004872991568,0.06304450965990632,0.015492510318053768,0.004689238137107531,0.040584759941334876,-0.04603892258401332,0.03430108605494745,0.053622212033894445,-0.16257009874809678,0.1332178997936606,0.04907967001916333,0.2210465535025212,0.042434874101165754,-0.1711949269008921,0.10064998445691478,-0.27176253692453517,0.15248855620329946,0.16259218420529942,0.2404435356407736,-0.06237073324687065,0.8758569549140928,-0.6249978987617215,-0.13734179174984337,-0.28063392404425686,-0.34025477463434467,-0.30205734834187503,-0.40018001649506224,-0.1993237794842284
62.31024932861328,0.8599014282226562,-0.0701305477024727,0.3419700973022525,0.02217597400651613,0.08787503131037992,-0.1501063655525469,0.007639781192771353,-0.15072155885113278,-0.24749762195407182,0.18114730483912062,-0.2101090517232844,0.3930942185504093,-0.14343114211627214,0.28209412918376464,0.4093483594375323,0.05218353948860182,-0.20651494059482955,-0.041408531375331875,-0.06762142075060996,-0.12544379454481364,0.004704064739946834,0.038230658058770906,0.02449130202700104,0.11945327303263925,0.032619758726193666,-0.01849326244360483,-0.16415671214836888,0.05885345527563727,-0.0033582803245673382,-0.07133210830588643,-0.035348504098360385,0.05777349270519394,0.0036508856197179224,0.025581459832697027,0.0900346999478682,-0.04839186174072052,0.019540235517679538,-0.04248533363691556,-0.009715451115962958,-0.08267264744086185,0.024139166897625047,-0.07773049528067202,0.012105570005670405,-0.03009273644700144,0.030447984883911053,-0.05179281460315982,-0.07824359050555611,-0.04521944719900021,-0.03621420583920748,0.1084550568570748,-0.10345746399978885,-0.02032195146914071,-0.03245768011213364,0.01949955521515496,-0.007050663766518227,-0.04001326394936484,-0.0337778272918198,0.14248310444584572,-0.10424435159305606,0.09832101977277859,-0.05979505986140526,0.057777652706742,0.011219804578764321,-0.006325190294193701,-0.029932359345228123,-0.026405795428871382,0.09634068036556401,0.02069919835398505,-0.029884102586869233,0.0814053261585001,0.000873694478142728,0.06788491899759848,-0.02478694820230918,-0.07341549608964992,0.0026553128005368243,0.027837976497687676,-0.049696327843250544,-0.03910141147158055,0.06158857598293961,0.072597513200044,0.005148883489476808,0.06652086961323833,-0.10410334684593232,-0.1109726817919085,0.2817096183547116,-0.21556403070776556,0.11130068013265573,0.3425793071943799,-0.13226375911812974,-0.009715993981465363,0.4321044431324805,0.137080012853176,0.3157170001480006,-0.0641256701572645,0.31491927962492455,0.5798803676110048,-0.8109372156357906,0.3542378717881163,-0.3090435503292275,0.0023150690059925523,-0.5368193811795704
63.17015075683594,0.889801025390625,-0.40482862386338825,0.33359793334835686,0.19364386266518865,0.6243091018617827,-0.2319624034387312,0.5033638802391704,-0.3726131047728482,0.08029363620792597,-0.39093276959920703,0.24288965574519294,-0.04130590973139131,0.06128740235934578,-0.05888690646199118,-0.0039733462836983174,0.05926271814581439,0.0005226609795982136,-0.032648303430887204,0.06834871381846722,0.05782226491199674,0.06341137655116114,0.12988896711257317,0.26489226749663,-0.08843299553046158,-0.16013707043350345,-0.04093423255614768,-0.005091765120386449,0.004561058967912474,-0.13708101350750856,0.09319579351881768,-0.004447233515175736,0.06979334578853288,-0.09414375570883153,-0.04650036476363368,0.09725731920039571,-0.01427258663349639,-0.02656425201843674,0.011012341947601105,0.04312394903681428,-0.03083894719652851,0.006448838291177989,0.04443501051789915,0.0045135519289680615,-0.009097355070601037,-0.03318473417979838,0.011856763584499845,-0.03388290018879572,0.026654303693683695,-0.07830172699708622,0.00744204925879033,0.0004931387002761354,-0.051561476313184994,-0.017226578029481326,-0.07478865596967758,-0.004812038995589508,0.07657874924930787,0.04050955821584579,-0.04918363192592581,0.1671022490556938,0.09804161902641956,0.008821640250716897,-0.021620657472446736,-0.05540661578242906,-0.0007160508246687918,0.01530972425848371,0.08864911121201133,-0.03290940737324637,-0.08946439994049764,-0.014837886158383336,0.006543947614753784,-0.02489234211388214,0.06974606472922072,0.03579469860909942,-0.03280213877357986,0.053232110755211316,-0.07036798686576463,-0.07387907122824316,-0.12373879682587277,-0.12915719190086317,0.007550851417947951,-0.1446826814907948,-0.013588634065794532,0.29175554368396206,0.0312115210514428,0.060893906249898044,-0.04271806350590003,0.695663673870243,-0.08279607606008693,-0.6205398774215323,0.27430866718879454,0.28368321217410675,1.2055233893411414,-0.8426597902367743,0.01347439340071963,-0.3360578557427956,-0.5928746249906167,-0.4240619643167466,-0.48487967253415,-0.18718762060619332,-0.19022777842001345,0.06986701468902978
64.05995178222656,0.910400390625,-0.23696486581870446,-0.16488609960396983,0.0980201097775712,0.3962219218043588,-0.022440581218100476,0.14349370073782397,0.027795496442648684,0.09820463766978912,-0.15383295429977498,0.05208462341531144,0.5307603687999886,0.07697074712058163,0.03146286690487512,-0.04483709615793536,0.15710852618380558,-0.07704171066857735,0.05300473727166615,-0.033889413495186656,0.006766564014424823,0.0898456896988146,-0.04608125257222127,-0.13288821833483075,0.06397477039193329,0.03166768227838701,-0.05775384385860846,0.12958306038217354,0.017034815942911362,0.0347466697849763,-0.2780207391768501,-0.02331961186879809,-0.06633386400720377,-0.04654943392773883,-0.007131329003620687,0.01372357909616014,-0.29198882022879286,-0.14806595240390213,-0.34019312685114533,-0.05133958305512574,-0.0385307782517372,-0.06414454940319117,0.16500045639399183,-0.03969851430678008,-0.10564289795400991,-0.041846271423407425,0.08494698067103197,0.04691515643907848,0.16106757246040146,-0.02631314619483517,0.090329547802334,-0.04868713901211363,-0.07758657689764563,-0.07445717642164501,0.0028402693184730043,0.059840284847440015,0.006820763659730289,-0.0977774458812442,-0.1360965525266596,0.022462604857395676,0.07333735482658159,-0.22823313758510358,-0.07479407580989769,0.16302194235905174,0.07294066776930747,-0.04285577282365955,0.03971232944918142,-0.07691500236158927,0.08697139811130478,-0.03659758989540125,-0.02721720399066188,0.025837903899828093,-0.028485221827112397,-0.08290716365015063,-0.011256838430139936,0.016887908501950717,-0.00943933774738434,-0.03386829652879869,-0.027230764302966264,0.07338329279729289,-0.06684150070846857,0.062325798366971726,0.14710286989823285,0.2653418052380183,-0.019823312153705145,0.11289882015819637,0.04198965699465691,0.10666743314071896,-0.04525970571190317,-0.6429114294268662,-0.5373369212129031,-0.30400605359850574,0.4986598427764491,0.15368555203849693,-0.27040985207692503,-0.09308405944699767,0.23725689486802362,0.3071459044672425,-0.3801621167922395,0.2742145361147718,0.4709890047870784,-0.20221380140929945
64.97035217285156,0.9199981689453125,-0.33877817605899757,-0.03188211996578876,-0.43308382086588054,0.5547092655820929,-0.2684014029852353,0.0682241152022576,0.1712212716478374,-0.2839105186178252,0.3103605052787584,-0.09349791706023329,-0.11954625883226555,-0.18528744418527415,0.029168804993151262,0.08438395131770308,-0.08315582516662508,0.12447209608154651,0.08207469515178828,0.06697684863149152,-0.02447339700424697,-0.25335333509342584,-0.1916754341394829,0.08609315899623889,-0.5984200684447099,-0.28524613747711625,0.11221121999063734,0.10391915568243282,-0.1386128059590297,0.11349520304581731,-0.06641511728296935,0.09999117843365794,-0.23271286982557507,0.13958408541875647,0.1629804021320283,-0.16407394544581344,-0.04315100352207277,-0.043432909338008946,-0.05004753228310193,0.0055502656438121785,-0.0626710012201873,0.15925627298273148,-0.04775302085310714,0.11116600734322754,-0.02412805291626404,0.1459598258603262,-0.11251873603433833,-0.040867212043338236,0.05202849641286013,0.008330752098586023,0.026915881570610145,0.007929460406051133,-0.047562663582024406,-0.04245683819109711,0.12023964504772523,-0.18164400329154692,0.14035773883157363,-0.043043015244856805,-0.052825874458713944,0.19823090876942692,-0.10828091467583319,0.055870760422861716,-0.07154076273067429,-0.10032213404553446,0.09885321806530142,-0.03896055148803311,0.16540361247732874,-0.10470243615279787,-0.0100787839523021,0.041157048316032764,-0.013477101557698773,-0.01823095512285581,0.02748928221566853,-0.03857229644752527,-0.020166307318236126,-0.0051223041350047845,-0.057352843795110034,-0.0375301510690497,0.011659146342107234,-0.016795018338040722,-0.08533099921517807,0.07505007388092404,-0.203242418765155,-0.1090063563271291,0.1277205581742545,0.17016140849254402,0.19179564096588786,0.06034569473818287,-0.08854914066825652,-0.10744506167446398,0.21675555772236996,-0.17641444186558264,-0.31761629372290656,-0.24400697118164583,-0.44439635152306467,-0.031854086080654404,0.24545225101916246,-0.7349263265495705,-0.20503141066843195,0.05365013324530108,0.0843043536507984,-0.373788413960147
65.89035034179688,0.929901123046875,-0.4841712303199367,-0.22996467897800313,-0.11914421099816166,0.11939796466110991,-0.0626901598511396,-0.12314788906806629,0.05151761595814933,0.04776054816627467,-0.09920102941707083,-0.07742428673876617,0.034080477218898286,0.501367990470043,0.09123298957061617,-0.1357019479868874,-0.10934962282437109,-0.054436611173571126,0.06457631232528693,-0.027490454094128626,0.04030729465350864,0.01678784627529911,0.05924717615398626,0.09807688485817076,0.06615194259741806,-0.0873236188215413,-0.1256374538614866,0.006197376839059052,-0.09618665142519334,-0.0477264224484511,-0.02952279993426062,0.06493390704781754,0.09142083919220774,0.02108138019881855,-0.0303345214566296,-0.013233475579895912,0.045585344455836854,0.011687076946762593,0.05428114599568842,-0.06267963643688214,-0.024825517992768487,0.020097451208170483,0.03747536877585182,-0.024079585444945442,-0.001786854827589085,0.02872515957655733,-0.018149294254129332,0.01660022248327654,-0.15908187336050778,0.02358411617299313,-0.0710641206960372,0.052569803427758785,-0.013469055726584515,0.1593694667049161,0.10635959146208934,-0.05324670435048605,-0.06527816600179667,-0.015164793985911583,-0.06095716571079698,0.047879163124135406,0.17971292756828564,-0.007769223466804337,0.06848563311986187,0.022632663294067504,-0.04284556639578368,0.12503718572134798,-0.03956479198722952,0.08308744510072247,-0.009248615098275889,-0.08146597196309034,0.038529548432638304,-0.0018977655687865344,0.018755900166721337,0.006243771617995669,0.06325803552576471,-0.021714301081998046,0.07456463220026567,0.0559507098155477,0.016441378587773794,-0.0038801745294237766,-0.06536439459814823,0.002320541789048308,-0.013002774053349042,-0.15917098293131865,-0.10574839896835746,0.34851441100866976,0.1213860927927569,0.0018671410888903561,0.11108720727086219,0.030024432439248037,-0.116108630213066,-0.10556659430755182,-0.4258968826933153,-0.0755162867955218,0.7949225871718139,0.13307905713059764,0.39412774469538525,-0.8252540067322909,-0.45512759690787175,-0.12350913555434155,0.1412908065622717,-0.5395101265080825
66.82025146484375,0.85009765625,-0.209147004480419,-0.27757887161621747,-0.1833774380037979,-0.22280039451013564,-0.15856979740122523,0.4578071576790179,-0.36926264699671285,-0.01953337734006013,0.12185340018574613,0.34795414920832923,0.122520251044603,0.035726932030898974,0.21475683021096423,-0.23631526707446684,0.08761366527711406,-0.09469572464857645,0.07688872795636784,-0.023429220688707425,0.010545635509815923,0.09801173789041034,0.08890992288112708,-0.22370586654902996,0.069497759630222,0.16941356710080752,-0.42355343925047273,0.16599969895211858,0.3938412857822837,0.20289240740910497,-0.053171554128497084,-0.10352519282136342,0.007050889972460327,-0.03244471681911867,0.12884298866014265,0.07331631807370294,0.033503164289519695,0.017728428210407068,-0.01802766280940541,-0.001890230744511597,-0.02205410394447572,-0.09667548331683977,0.07280686297495166,-0.12041084654783943,0.07179822863652176,0.012707386416327848,-0.08605000757303694,-0.05853737513070033,0.09884670611779725,-0.16496200198281316,-0.057381946986461346,-0.0903565374802177,0.10298096173995605,0.060503055547133595,0.06959201518929532,-0.29643220752918564,0.07291380331994703,-0.06630928108230388,0.15338868206670744,0.20728345059157433,0.12335742751293827,0.03220271433017196,0.03143537019125748,-0.21224583563957458,-0.005627389299584541,0.05768423963137808,-0.1530645228244139,-0.15133114338394052,-0.03273890843540579,0.020095063510193176,-0.0061425286304502,0.02288043189553887,0.013399051575754467,0.031451147911311726,-0.0027675575323751964,-0.001759812181178308,0.05980914391827304,-0.044388859987187945,0.02658644787402303,0.055689597855182245,-0.09127988017951598,0.07753871720037216,0.05736342366001948,-0.19076263374578584,0.3871781285300917,0.31775654848545953,0.24763971114110786,0.38762751167647447,-0.11436523675966473,-0.1464843462208608,-0.15064029863189507,-0.6780459833852066,0.12323074402591337,0.487753549770085,0.09190933719699737,-0.6342528200358423,0.047692496213180446,-0.04468343947609153,0.1868296122790931,0.5403611675257971,-0.16158969796809278,-0.18224765418713218
67.67034912109375,0.8003005981445312,-0.13185510101507825,-0.3340700446366139,-0.1095764567389577,0.3355340965181939,-0.06036294237877407,0.10533374825946822,0.04514535134762698,-0.3260119864039816,-0.09524466022168611,-0.7581549594673211,0.6534269257131313,-0.5222067341229908,0.008038850409588513,-0.08855230688166942,-0.1778361012943336,0.0028451760850265774,0.03750748202817635,-0.09432225040284813,-0.049422452692049645,0.008514196165130855,0.11869252598665286,0.2350329822545234,-0.054594874363301904,0.22068659328189677,-0.10968583045316307,0.1243530058159575,-0.09591464961324672,0.2534692365109531,0.12708553074250023,0.061404814001588745,0.023861230845484305,0.11905590022521628,0.06241271419341424,0.06634195256839769,-0.017573466907627892,0.06475266234911296,0.06657102431438283,0.013552123153123066,-0.1669845285112164,0.16401898124172123,-0.14260051869619067,0.10052263919555167,-0.02938889409703702,0.23554391607834996,-0.0633096507261319,0.030607813148530123,-0.0021437647689853175,0.04723935111405766,-0.030891962101727104,0.08700139674678782,0.028020334044378967,0.0999096714813103,-0.10649629620699211,0.019980677796486886,0.024166638379135734,-0.053816392885004824,-0.07589348033993018,0.014587436672607423,0.019971728252826913,-0.07051171203580762,-0.018694939606777525,-0.16699392373844557,0.12883291256476836,-0.019332144364281514,0.05400925815906991,-0.014280344595675069,-0.06829258454180244,0.01147557086306633,0.0069427732386311124,-0.013362281399274832,-0.020866633375108468,0.05437260214851575,0.0782182449628687,0.01370995738752379,-0.08346121234585548,0.015244899945775048,0.047497825918756675,0.01119060233339798,-0.057152028822461655,0.005893219415012169,0.08805288094006193,-0.2181133136267449,0.17143630378921387,-0.3514881628964428,-0.28896387023865855,0.08746473820153497,-0.19437750722572336,-0.3956758384943726,-0.13127743563671146,0.5356172678863873,-0.7975598771331823,0.08523858619638497,0.6851331866958722,-0.31058493542115245,-0.22240013655637544,0.14978207554286355,0.39257051036489543,-0.22769728742083795,-0.11622971338748828,-0.26235855585490164
68.47064971923828,0.7995986938476562,-0.2857788935285581,-0.18029825441492953,-0.12023680207410274,0.19729216087385854,0.37722037955974147,-0.036114647934995886,0.025683770644844034,0.23494427580041466,-0.10883821706449806,0.5132605874573747,-0.4223724846171215,-0.004871235138649389,-0.27674213317433893,0.04859506874682983,-0.01640552336700911,-0.07878694064614163,-0.04434353482873798,0.008844867320096338,-0.09211578608806971,0.0015692368509781784,0.0724499037224515,-0.2839549610909653,0.30840984599013715,0.10035128428800116,0.10471388160735248,-0.10714931296719593,-0.011296529642843875,-0.059438429927546194,0.003606031496734094,-0.12918797989490854,-0.17412621235906772,0.020637684288091034,0.0498688826712668,0.036842190613682255,-0.07492075044220861,-0.030020943852471782,0.07765201505932093,0.15073077823342879,-0.03544159123925116,0.18485545679572518,-0.02368080021681218,-0.014431394623638467,0.06776143593380082,0.046885823522632764,-0.07272787778610423,0.03213878767195269,0.08021117396641338,0.039383464998084414,0.049891003423743766,0.08556490252465064,-0.1378186716418379,0.1096150802729961,-0.1181089011368552,0.248378062549029,0.08400670034430743,0.0616169840568029,-0.14773856932461293,0.002235962837141803,-0.021412277485851595,0.06546188746882824,0.02368713884259071,0.06016984751086695,0.005062382355456278,0.00936794343758064,0.13835926629413667,-0.027929235794622212,0.08897024237656713,-0.019843157954904486,-0.04324728294407871,0.05758028614165396,0.02398679147746925,-0.025227376196268685,-0.04805836614927122,0.03592873944680712,0.017707655813766432,0.050825422669101526,-0.04864367004734628,-0.05122133217696065,0.10622233242297023,0.3747121383448697,-0.16609639449991498,-0.10625627703023786,0.04464002528814706,-0.1395433983891649,-0.2391398743037533,-0.027350715906203638,-0.34687740202655465,-0.3584539479081846,0.20332874384110386,-0.18508817122167448,-0.14503382793457192,0.258181263174372,0.06465282103923783,-0.17163323534214336,-0.1226714176245795,-0.079653367200442,0.6587633362374785,-0.16525665353686306,0.2151617701353175,0.1495814299516474
69.27024841308594,0.8102035522460938,0.29162334805336765,0.09974043757457168,0.03415285226056379,-0.27581835659229553,-0.1322127572183355,-0.3117287486749187,0.1737366641969494,-0.06767940541935971,-0.02802816321842756,-0.22777058580524553,-0.0852532331826516,-0.14839120575270123,0.15083103606210357,0.005846210443254114,-0.06474360297777959,0.022511644391087018,0.047038217013176786,0.03456208270709429,0.053150937432437664,0.023971325384801987,0.003475513867797188,-0.26052618772154107,0.033526204651773264,0.3793939606827146,0.0977619375200323,0.09797032544096228,-0.2869688825844178,0.23330354195519637,-0.0494696756070481,-0.051933489492701136,0.022332820764980464,-0.05975216325254977,-0.017187986350663723,-0.13147898923135692,0.0923248857294785,-0.021412669209274884,-0.00526840969741345,-0.022934206233789087,0.05852212310241344,-0.061957829383709036,-0.0013282299549041976,0.12214834802205074,-0.1443632696592597,0.12040870780041252,-0.023763416798522768,-0.08201264685819425,0.02170700520824707,0.034904310358938005,-0.003924405874102876,0.16874747130535797,-0.0785961355331245,0.1146074325118613,-0.004974953796320632,-0.0766341125629922,0.09200837698172133,-0.09684381234013266,-0.018097523162871082,0.017816921494804905,-0.034319101744393836,0.10444735918387343,0.03969162273795239,0.06590028765224096,0.04552698450123617,-0.033250065816422106,0.029616597651972443,-0.024738213555000686,0.0843094783054475,-0.053323858956521246,0.012207430980313818,-0.03272299504049935,0.004707078837388676,0.019143182281413956,-0.05229488820522447,0.03136265407347666,0.0033437217198980934,-0.019219768125333245,0.004003368431271675,-0.03568828700474278,0.016655444896288098,0.08243866241534949,-0.04022197175052718,-0.015231114002276377,-0.0176370868646727,0.38882983635474927,-0.3136225939685243,-0.009398308198128577,-0.16194059053017462,-0.5177223839530686,0.24366051289492305,-0.5166533488908394,0.17116824595783606,0.3518951601922367,-1.0273040138317218,0.5248536197842326,-0.02911131013616963,0.14330150057474436,0.050417019418381934,0.162932492254584,0.23939199290962349,0.1074354500191759
70.08045196533203,0.8194961547851562,0.12315210331960956,-0.3240892704620529,-0.2134001332182647,-0.12504264031097218,-0.3417492690557381,0.04811127337210749,-0.06384055513856328,0.23441955822791144,-0.5485898164381251,0.03621480268093978,0.0644476355594289,-0.07182690083451386,-0.4516703738605578,0.07755242320858892,-0.023233709015405803,-0.05282555831361177,0.018844249181627762,-0.01223410331180555,-0.07851905380149486,-0.008281835187583408,0.023419745837740695,-0.003827804122471439,-0.028719360829911934,0.06531827389075134,0.015320277178231905,-0.010670366691476682,-0.046414660833565526,0.0036821875438778073,-0.043043987852051796,0.024575016569718642,-0.004787778566883236,0.10040178528987515,0.0652891642201142,-0.042454390423269275,-0.02526442727751141,-0.015282115158095345,0.01919789797453982,-0.09277226701530761,0.007242896252587317,0.002948200928308957,0.015927833153841168,-0.030691587912043787,0.05843827888711108,-0.12928533712617252,-0.07292988434993265,0.030694397965466122,0.0739534687697834,-0.03733984883058977,-0.00542179417849839,0.0036376792590884117,0.12810658168565187,0.02828242946277488,-0.030861471761397332,0.04500744550039377,-0.1480175837203085,0.09222861842791841,0.029739796375902978,-0.12582464983138597,-0.11058646965857519,0.036118237836415636,-0.06812626308349191,0.037830878416148926,-0.058872460934782114,0.01378934813462536,0.01620393484694184,0.00669723779244296,0.07938896525772961,0.1095078234260162,0.005831769150238343,0.03414328648481531,0.025963484914507128,0.0021946600339390406,-0.07402890009345317,0.003457974083383263,-0.018451932523382446,0.01715571530141112,0.09417144966467776,0.22933078611970567,-0.04294051914189623,-0.02729721126429366,0.05361474516808386,-0.18011746532588302,-0.3486264632956242,-0.3464830161013255,0.33775907521751986,-0.0344884610024376,-0.16649465381189033,0.2508483445469688,0.26863834165308537,0.18847662437944568,0.23801818771686356,-0.5899840075265286,0.24140180717704068,0.15900000972516734,0.46695941157866033,0.12845846551890033,0.3732865041163389,0.08281455290421783,0.213917812106581,0.36308353426105644
70.89994812011719,0.93060302734375,0.4033794129739285,-0.06371893085659586,-0.21122542965671742,0.09986646545232034,0.008205973825348448,-0.06796522146496806,-0.1823710974537219,0.2932721377037285,-0.15357111221277325,0.07515897265952087,0.057288290919023384,-0.0871648663194699,0.5619953598787177,-0.15129516398216797,-0.06867783064493717,-0.03981792459493344,0.058271113468931324,-0.09846752799062534,0.05374420824771802,0.039187368313954106,-0.018041436043646296,-0.056253654825744556,-0.05123886865134536,0.00800801646750651,-0.043832262434071095,0.13964582878961027,0.03188529395362755,-0.0537122944779486,0.01900941207403721,0.020426052313152955,-0.21090652640508326,0.12435987571913448,-0.1663400324278964,0.022104868269468274,-0.13091945155860446,0.0666251957260277,-0.06725075323027833,0.04155765255875121,-0.061173973541348056,0.05651879857240026,0.12457894588650402,-0.14730722894052373,0.027323763714802867,0.0015884145847885472,-0.08516317242037326,-0.01842049052969238,0.013847479589295001,0.04073366207310189,0.043567772741030256,-0.019225098117299673,0.001565961088826083,-0.013373617678108709,-0.008676868568755748,-0.11166403307040372,-0.05909139947843361,0.07866731195875563,0.1189223280203583,-0.03693530862759817,-0.03615521340652836,0.09163703130156786,-0.031767458930941815,-0.010888314829948415,0.03293884106660054,-0.07196363910889518,-0.019739592373082523,-0.0883522596856195,-0.05911102522808257,0.03130133173892667,0.05565615467278978,0.06524902701354923,0.02151491055364003,0.04118349310187753,0.011707358323237537,-0.027061506372039683,0.05643775559870371,-0.06501789344931536,0.11521586833338587,0.0812173582166463,0.36955131056626,-9.398633931358147e-05,-0.1368296418027257,0.3418717556645436,0.5458065740571563,0.16324777284641365,0.042423286870643076,-0.2962795439635926,-0.42751848589216956,0.8877734958815547,-0.48064659098497775,0.16609399622464133,-0.5592965654712145,0.5619212577602848,-0.05256970415000756,0.05426549215675902,0.06344095825278227,-0.11737059032490875,0.10578309697939439,-0.25197647331429956,-0.5294986412660802,0.0386610000939096
71.83055114746094,0.8600997924804688,0.3449141738323396,-0.2010048283200375,-0.252319561312069,0.12685429319314906,-0.30378604589907077,-0.00042138032800262404,0.03475858075962594,-0.07295571885033446,-0.12987063070017216,0.13845465121184108,0.10502874375487684,0.2996719283340097,-0.09177298333662334,0.08891826608162948,-0.008012196783096549,-0.06810220073541241,0.05923002185175834,0.06673838749100458,-0.025157223619437685,-0.00012188743816424989,0.08483858226814511,0.003388519515427412,0.007280751255786119,-0.03215444266897062,0.07634404867280294,0.047580293980618825,0.020148099595678565,0.026822044165700144,0.03318191317248226,0.043535517877014186,0.049024176546242915,0.016522592790771312,0.0302607214838245,0.0963982593079524,0.06885656323250995,0.0005023548002484656,0.11003320489421826,-0.1765913144499532,0.017032491049444952,-0.13281250678773307,-0.05835405744891061,0.03659991260852443,0.013743234386369195,0.04841357492926551,-0.15633594827156966,0.06155469308776036,-0.13548059899365744,0.01608668188151473,-0.03377526388654705,0.013565738790148177,-0.007914434054641288,-0.10294586123147358,0.01877655884117757,0.07476535076419435,-0.030919757409711368,0.01165465416526,0.17447865893716413,-0.00043169956210005987,0.01684548902694541,-0.044040852797906135,0.021189499246649666,0.056677438122194494,0.001074860778826181,0.1035612344572279,-0.13044403300043478,0.04614666680013635,0.04823859133894659,0.023566175483399635,0.041582013496869394,-0.036708454794071,0.09847538168763013,-0.050445702510060475,0.01791856402426951,-0.04065972558098774,-0.04753469541486363,0.1064584986342641,0.05505967399495462,-0.04686141030653598,0.013666773490634693,-0.01519314308113296,-0.04982379658546913,0.10904081162310389,0.29705557513615205,-0.16048988989819216,-0.014217942223496184,-0.2863285638827721,-0.09593662390426992,-0.32768957642388974,0.48641839001304404,0.028746401319889064,0.3703239941637707,-0.45589938813147285,-0.12182279562861628,0.2941526488531532,0.3090501029753195,0.3675600314198577,0.2589602668890798,0.09697996642157099,0.00300067072012275,-0.06920790700853324
72.6906509399414,0.8498001098632812,0.0658783220331661,0.3176022509988782,-0.1567987502693448,-0.28280181376221347,0.24917933522641691,0.17149489270792295,-0.13655540297700247,-0.08919083298233266,0.456588938083859,-0.3229587335460774,0.3646162064523065,0.009002404650920406,0.2627069767063193,0.09704744154748576,-0.13257798378292882,0.023371053787641653,-0.32432238862785356,0.013750841920319754,0.15696599727873356,0.19722924023818972,-0.29490200182615633,-0.14963771828216457,0.351964665436519,-0.005849503220177271,0.11635677934910554,0.1372421381031586,-0.15869633624449503,-0.02315134288063607,0.03669988857763733,0.12294718678773464,0.16107459627115708,0.006755203677927901,0.00784462560348424,-0.027561060299657866,-0.017437556497380748,-0.055852034195634684,-0.04991237374805839,0.02557990449646181,-0.024548978298510625,0.08095583202849163,-0.031480106434747204,-0.01799823668357505,0.004483074217256853,-0.013125044264952552,0.13198660310406274,0.08830340535247398,-0.015174679237675657,-0.07823554688699251,0.06107352971100913,0.0594633462608595,-0.12421537438488298,0.032458933064783674,0.04502744868041787,-0.07608498757362388,0.009838633763627772,0.17735286652233528,0.0754729861672549,0.08436311045982431,-0.1086553955424803,-0.02740017363676692,0.06021181321739996,0.03844577343776645,-0.14238802949461882,-0.0024994493443885055,0.012253731506441583,0.028484141610243943,-0.0666575419097186,-0.0050917990195504135,0.01842126269209493,-0.013243544570169699,0.027897665741712346,0.041148986032258444,-0.05045212051725595,0.015915051468292495,0.02662940361921283,0.11729265893783303,-0.03882700320150634,0.03472005079058933,0.006570210123003371,0.05074169431186617,0.08835298232023588,-0.0875796886557705,-0.09331190875575487,0.08098174069520249,0.13158187497895746,0.08629267011727032,-0.017550127618467914,-0.07177420671245249,0.06315702454770959,0.08963629127258574,-0.11036514321787794,-0.07269621076427026,-0.7891364822120057,-0.04428327104196794,0.7230501435283552,-0.4645179118979967,0.6172288823592345,0.10357400958179641,0.22800420002820493,0.18020378865097114
73.54045104980469,0.85009765625,0.20093038329766588,0.09970021483391533,-0.3261101086880297,-0.29522289166740656,0.13481448710138033,0.3897553712477508,-0.18379355314300938,-0.03927405259397204,0.25412779338483943,0.38961526552728754,-0.41713266361940543,0.35951738808813016,0.12785066797564182,-0.026296617369226657,0.1910844927749383,-0.04354068044433046,-0.20801057163246484,0.00901338452853493,-0.15557189543981018,0.14068199710229332,-0.01421093967155028,0.27439588677634613,-0.14695757250580854,-0.30852144696560063,0.016724567080401938,0.31595997724003283,0.02017897676578697,0.06906465334713005,-0.1079988622178863,-0.04157777204930103,0.08807421582443213,-0.06676156992088951,0.12779886087096798,0.002124006228715188,-0.09073540297688273,-0.05771921229626494,0.07636214011474662,-0.035310467246157606,0.04057768411523631,-0.056944448911826415,-0.09469730819602439,0.1596134044051286,0.024350999603101803,0.006026291071823462,-0.04116538285498274,-0.021171474228980684,0.03694025732406059,0.035579984121112324,-0.16668860792014772,0.024545985637871852,0.06045903398686228,-0.07853323820871731,0.02853401275456719,0.06081784030806481,0.0032328464084432212,0.1751786341380487,-0.06614784183476971,0.0037076617504195712,5.2616991113932365e-05,-0.18893974621996673,0.10607991855272497,-0.019241456121649583,0.0012732876207970367,0.04968590151261977,-0.013299373705099128,-0.0047097879805763805,0.15634113766550864,0.0483747754043751,-0.03559306481226996,-0.03522080921795906,-0.009839801408034428,0.010621120967738503,-0.011077589884526921,-0.004893304300086387,-0.01008785434054937,0.007333001258488176,-0.06495505580299112,0.22264816926195166,-0.17683140082083315,-0.012708584607279805,0.08012463156290167,0.280235766065654,-0.16164748263027506,0.32779261504120666,0.012706030280826428,-0.6370257133526962,-0.3383851856776361,0.5577472738119421,-0.29292077990782844,0.02164416106279196,-0.3705565175448121,1.3724736539652636,-0.23231005593899579,-0.42991597410386057,0.3677513928259295,0.5779301036116989,0.11269158943717363,-0.7467165326856057,0.17728688607905238,-0.43315882504596137
74.39054870605469,0.8600006103515625,-0.41799171500626486,-0.3890683040078962,-0.663898753330437,-0.12324982035276595,0.017359663960181168,0.3813719093942188,0.3254456266998548,-0.21117505755028415,0.09156260728187832,-0.023052112187054094,-0.0003216249157331416,-0.03527755645989417,-0.12128588755263242,0.014370528854477281,-0.1119701328845895,0.044730453978814644,0.023240284720143202,-0.09774187184970334,0.054033623133765085,0.02120388154977447,-0.07647841374334467,-0.08039667745765838,0.026275617180938318,-0.1349400484268498,-0.08591762289989228,0.1279465537090232,0.1368446797669963,-0.07130437960287205,-0.060154627129667085,0.010539402337248555,0.05027254233123398,-0.07223121856272188,-0.03897789734735854,0.009250510076625211,0.06850872789911647,0.07628384922900912,-0.03376300146381176,-0.05584971526675514,0.03202293795254943,0.024189381449369902,-0.04121037202127141,0.013370771901595076,-0.038673567883450104,0.004313674673493894,0.032973064921766396,-0.019440864927947856,0.0253695078617919,-0.1471284367753725,0.15823666192419988,-0.04225861423035218,-0.01814796307553,-0.023976488229758692,0.08979349079914394,-0.12688171371066703,0.07804102120344081,-0.011818439262795752,-0.04093257642901592,0.04049359284113796,-0.015313400564697141,0.0016870216216330058,-0.05966297859393323,0.11859458904771407,-0.02694233820913292,0.04431637604676941,-0.020696284626295504,0.08991070262776307,-0.0157107901232615,-0.04724201504860057,-0.015217051912067833,-0.014207446977267654,0.023521072309357897,-0.039597056109328815,0.09325480638141107,-0.03142657093239399,0.06927342664564629,-0.06541604505050372,0.039981041108921304,0.004524897325358544,0.051245156201194686,-0.09865606500347239,-0.07656957509265572,-0.017136324330068405,0.3927515993803095,-0.08864424096596192,0.8073031091833129,-0.3388704655374736,0.29152703806757335,-0.21109415709907622,0.15541618138527305,0.060142529480671135,1.0947204708300522,-1.1999603410036017,-0.6061904850328176,-0.13124443020766888,0.31019884846295476,0.0406042512833921,0.59891003044513,-0.2870872697756885,0.648044229399392,0.35979990417320756
75.25054931640625,0.8401031494140625,0.2222695752350138,-0.13942450774393533,-0.18371671598684633,0.085877400720905,-0.38174176986922936,0.015003668539785398,0.32467721004783334,0.22682656608374163,0.297327517173886,-0.3633827828210834,0.35116728410091513,-0.22010126455471862,0.02342878160709042,-0.20753337964476454,0.13973137547439843,-0.0680482075206786,0.004038242627491041,-0.04802717118474386,-0.02018088505266295,-0.01980630077626074,0.11074366483141775,-0.11871070315337649,0.10639393143803318,0.03167950118978635,0.0723261518439893,-0.11154088673077876,0.09020986533630593,0.013994816791542223,0.049777690874019676,-0.08094106909191967,0.1129821840633617,0.0256270240856199,-0.11591205683183776,-0.0462307218556952,0.08205658492811474,0.004519837300760838,-0.048331579315118896,0.00512958500553975,0.0476627404890381,0.011436036202040294,0.013372967053937063,0.04032815393813458,0.05377395074062931,0.00704086093010782,-0.03774411049360064,-0.022580883806749358,-0.03933324224718372,0.04612268004795055,0.036023813115196146,0.031689185273376344,-0.05436648225348101,0.05372445640311436,-0.025331343035679854,-0.12074355491363849,0.11782350775056617,-0.019362065731126657,0.018705729408930456,0.016855443938671524,0.027312541984515847,-0.12120840587964916,-0.0032862102357517024,0.06634004605205397,0.010416026898490346,-0.11610328643912268,0.07808645547539383,-0.10820777353975901,0.03650089454439568,-0.022519776532301704,0.05162458222031587,-0.07474833577036209,0.009665559159059785,-0.02944603865175071,-0.0443291592210989,-0.0020604524617611145,-0.014384058647067537,0.030476629868763646,0.008354959905876615,0.05607216724440503,0.04046100679375649,0.1233459291768937,0.2049384411548668,-0.1724668649259635,-0.18236314729737535,-0.1308168242311847,-0.04173385090673486,-0.3370819070778159,-0.1397303502193862,0.676879116779247,0.31162169678703094,-0.4416561377721015,0.35010335482627347,-0.8108118162428758,-0.3875323046553681,0.8191708583532525,-0.03932467680796205,-0.08289931469749783,-0.6794956767232689,0.21230004638375144,-0.2985279554887127,-0.09517051023784669
76.09065246582031,0.85009765625,-0.06732551053246241,-0.5887924681833467,0.521507706048111,-0.21399853517245446,-0.14315840880733266,0.03935708581098134,0.021883745314979035,-0.04242893969494357,0.18034555517720008,-0.04166942469559052,0.2499137852266624,0.2201305217963973,-0.16525786377532395,-0.05852582353971555,0.03710717411351297,0.00649367817018141,0.0005801962814288007,0.06889756409673242,0.042592856612689474,-0.0006806946624920169,0.06100752106576397,-0.01946931567489664,0.025550254094203237,0.01694063255533952,-0.027015094508144724,0.04529856937185653,-0.010626142845029718,-0.03592719161099139,0.02914435604795717,0.05430335692077509,-0.008590779565704067,-0.08714628572621641,0.06061988897286888,0.04094247993637321,0.13145694410381098,-0.013672750369285988,0.08981785323643719,-0.13089750897643604,0.06154825777890588,0.005598487645316844,-0.02899655274382596,0.03855924414681172,-0.04486152495628975,0.03447604026705728,-0.13038215208407353,0.13236445225105295,0.0939024080299841,-0.05468741194365734,0.12418064498213234,0.041154872875154555,0.12224327463516359,-0.151391505337578,0.07865030874324198,0.03191354610359496,0.17864916009687065,-0.0526358528350777,-0.07982076192842784,0.0445185407693716,-0.09923962274063772,0.06512900054477516,-0.19467091928490157,0.08850100409177124,-0.12725122798313426,0.038547016679957836,-0.1308416440293371,0.041673115862131654,-0.027532148892216234,0.09122744541800053,-0.13861463051468104,0.10048966951158572,0.05095955683898949,-0.06619970326186235,-0.04505479338221267,-0.04563741476014143,-0.00801255390309224,0.04627834866876738,-0.04528301221904066,-0.003563922589694724,0.15144001786767153,-0.14215804948667418,0.016298069113708173,-0.20079799249322317,0.1914182371529025,0.014975252949710954,0.2645222447854937,0.08196054810118289,-0.869356317469919,0.4058591359703875,0.15621222766822243,-0.7118552637539813,0.3855592647875027,0.5783639812029044,-0.5521562568546521,0.796237671663869,0.8064634121482017,0.09478736512024209,-0.5241594967821552,0.30682158100258716,0.3166878453124472,0.6574190461170137
76.94075012207031,0.8296966552734375,0.7857672780827516,-0.23430873253453333,-0.2577625580803473,-0.08444951945245788,0.26782260602712266,-0.30019188824342186,-0.25952306589933927,0.09181656960014914,-0.2209259762839368,0.15952138522555032,-0.4156979524186179,0.16991055890251283,-0.09795247334454764,-0.06457744133970755,-0.046739881701705316,0.06159464714945618,0.06405117069412236,0.0024841124489083377,0.08688194592290191,-0.18131271979451302,-0.24807026731710763,0.10516203073561806,0.22765161483089874,-0.02909290216558153,-0.008694073756604165,0.22185001729681098,0.10641626649486205,-0.31155803078842353,-0.031074034208582044,0.03757183056194775,-0.04158467916626324,-0.09090165356502874,-0.45149194748190585,0.137323055657882,-0.03181115881030544,0.06284334663704329,0.09761005418916312,-0.001027199651577307,0.0776433012123139,-0.08494736768517905,-0.14059217368681265,-0.029248845524971853,-0.04111511073394801,0.16954353848128756,0.012144570171467152,-0.07112160969704098,-0.09600545913087515,-0.03260589116811219,0.09911462633191238,0.02388631236522249,0.035604743597876326,-0.08729309396470415,0.02703026378418468,0.03342563366832725,-0.020580536866170437,-0.09130387508123354,0.061787667234903774,-0.003111513874738167,-0.04145014972992094,0.02552723101898123,0.11147375373014094,-0.034951923806934695,0.09171078116553574,-0.023585099991235058,0.03574984971201096,0.05859047442177756,0.03557574307051041,0.010353992671139057,0.05935978886648716,0.012386070395062294,0.017078349390101735,0.021976023779806675,0.02871377172767631,-0.03408226754868941,-0.036717758172136045,0.038010711087783575,0.04446339346825623,0.009294981865123782,0.04172823868520964,0.23811796309234248,0.13898514624009245,-0.24826825034040922,-0.15513780641271538,0.096190456324224,-0.3977113770533144,0.08393286862162626,0.22115825152138027,-0.10975228546778039,-0.44885738445430584,-0.5704288906889433,-0.40079154564399533,-0.07481919396292175,-0.3423629260484964,-0.3277384765984627,0.33191455010348525,-0.7943305385680256,-0.8820683231143781,0.18439057054606944,-0.4335477995598109,0.18781573234236382
77.77044677734375,0.8100051879882812,0.04435369662005806,-0.24734953329383885,-0.4935624776425551,0.30442330156823005,0.03283124439120944,-0.17174572328196308,0.48592302339637283,-0.3942831419537065,0.2946151627818263,-0.09726966884195401,-0.18767819262614616,-0.09384010788093258,-0.12860668796136043,0.025752834026691228,-0.26646929554241894,0.16735214711993082,-0.09301748907841653,0.01580049690553431,-0.16999782905625943,-0.12756675161001485,0.0625491946295795,-0.025910380595253878,0.021056280984533122,-0.10215311477886822,0.038568398925743215,0.016217096796003926,0.11639990127110632,-0.199872162467839,-0.00692293145351759,-0.023503660442431226,-0.15565169814634336,-0.09578730349290004,0.01670402682402603,0.20481621285798796,-0.046501475353934014,0.03092485595641911,0.00619270620794127,0.06371439186207722,0.14288588048749998,-0.0029775397204042722,0.07816761847965775,0.028477291161042514,0.02908144367458028,-0.17601784294676495,0.07290282240622295,-0.19904055861131956,0.1259645492687519,-0.13541889008977898,-0.00955453550434976,-0.02519238198681417,-0.023863203142265487,0.027372153861913464,-0.21788563545196524,0.18627264001610638,-0.12372385811982008,0.11282196780326337,0.04556224731425035,-0.11363134473858358,-0.08265563546420683,0.02122487558703701,0.04053833467950859,-0.009677246470710717,-0.019592782462655615,-0.12243189800186224,0.03864223350306899,-0.020144625072758295,-0.11622346016205311,0.10313904519352754,0.0036258023603541606,-0.006928623288435003,0.017325823811551233,0.0195065092624285,0.040824865287032705,-0.052623853280420005,0.0007902548823495387,0.012115885065276333,-0.0035621138069683814,0.004006798256641764,0.10075255323523112,-0.18580287786443941,-0.11006640533496885,-0.10974197398159431,-0.13089861616470438,-0.018617470182628548,0.14542875540404743,0.12343567423086269,-0.10045357415711938,0.2981835450072701,0.00605249693152744,-0.0336547498493127,-0.5938311069230576,-0.10228302788000904,1.5854270267551744,-1.052325962748187,0.5252064701061504,-0.8316251952477326,-0.18272203065898207,-0.18869153943933714,-0.6152049545637287,-0.2651689398122148
78.58045196533203,0.8401947021484375,-0.29308500454479974,-0.2880336813014428,0.3633374486568529,-0.20442048532578314,0.13241023128102564,0.19941925734720312,-0.0023189799491423694,-0.3345083776345041,0.07048956467081341,-0.2014876009614323,-0.17275348939613697,0.12669562392313588,-0.0883717563432471,-0.1276590284783698,-0.009825865795276084,-0.43806646971828794,0.37882438734325286,-0.24076824422143395,0.2148345015865697,-0.17954378939974294,-0.023265238071697322,0.2917066405102584,-0.24864502458673657,-0.020692233066560855,-0.10782085104485561,0.03704582959138407,-0.23291610515796857,0.04905807084417889,-0.04146467530071874,0.09461000856083583,0.15383411072306363,-0.15484568646692573,-0.0770424667791767,0.09154327429054006,0.09111387130488022,-0.0635383254448903,-0.05365785117948095,-0.022300367250926156,-0.013305408050852657,0.062332532158109605,-0.045043675797773026,-0.14127042145168323,0.36343980014956434,-0.27526783222989887,0.15295349439188458,-0.12414813615944112,0.1416008456170073,-0.031572659705097185,0.07295155743623763,0.02556786924903806,0.045005000014005016,0.03202622877029522,-0.0027760929669629203,0.021689873732949186,-0.06031783466115595,0.028870914589715805,-0.00644850944966613,0.13282773074911233,-0.008030815038574224,-0.014071238495423369,0.05869875681096744,0.002758619207917923,-0.1541855426636786,0.2750672969623172,-0.13279594452250573,0.17982991812846766,-0.07280630568600649,0.011344971307542964,-0.0005146778120729695,-0.0018241683448333157,-0.07551311291440942,0.02533941699465113,0.01615973808481644,-0.06127676637517975,0.08419382152709344,-0.012764704444468332,0.03622044437060505,0.0917739572514787,-0.035526396489269585,-0.043539782358032575,0.0035847575350043542,-0.07622238001800008,0.2322094751191473,-0.13409537453095866,1.064748873883323,-0.25634369583487443,0.46676722754252253,0.33470612901145963,-0.10208573088599754,-0.12411467721294793,-0.1431371018837092,-1.2278088003171204,0.26382969620767605,-0.15525952539075744,0.9414032307137423,0.4278822530364733,-0.5291676992580581,1.159429325709549,0.012296619388933047,0.3285257754878158
79.42064666748047,0.8301010131835938,0.44197453218316574,-0.5500052846639258,0.05576170393052855,0.3892497637993368,0.38425751985787104,-0.1783779341820861,-0.04617959859748341,-0.1022392026616069,-0.04573169937956277,-0.033377771466754094,-0.08898199363823175,0.19925812593920805,-0.09993859305723418,0.1750151880500829,-0.011733277064614179,0.10084066383476498,0.04808383220041934,-0.01166999197032006,0.042121712034224934,-0.04289385182942285,0.06181641872841858,0.03544794937146992,-0.048391329892985266,-0.04999245815846032,-0.030791455034124213,0.059069763294644834,0.08749853253040242,0.038896163621076445,-0.011744969404984651,0.043791863019588574,-0.03329172621526348,-0.07086731995328006,-0.09738992383081191,-0.087603839810495,0.04092406953839838,-0.1667917834510705,0.024053100584133544,-0.03665302797271237,-0.006357129781136174,-0.07278124537734498,0.14585059240777518,-0.043729240785993426,0.15344270318066197,-0.08492154285325124,-0.04671277047157908,0.11237086953106121,0.0053404137599463095,0.07710663973826005,-0.06435650659383617,-0.04071423154973097,0.04061045606297198,0.028334399580504717,-0.006996201771393116,-0.1531760603999343,-0.09963088078377567,0.04353680222831748,0.06812738334252133,0.04252849742183212,-0.12895068425110878,0.10447762509163279,-0.02669530332682364,-0.03373966815706302,0.08386275660589271,-0.12460536366595039,0.006127432996899898,-0.02221087707602145,0.07538623615666444,-0.045018452437254664,-0.026707791716868816,0.0287340937043964,0.0158122332409996,-0.0257074540090383,0.06085606507092527,0.002165957815903428,-0.028655463678412707,0.014183033172480845,-0.004878133608217091,0.030142944362592076,-0.07304381338316146,-0.05420572025095542,-0.38784298279144397,-0.007983183481116358,-0.006789254387409821,-0.3869859395444759,-0.02162043051195913,-0.12509930214820034,0.2633856236495318,-0.2593529768836344,-0.49426692332523847,-0.09472855762214913,0.5540983914254866,-0.22242443009877028,0.06444080915662595,-0.6273176140414026,0.14129154068086047,-0.4056579149212031,0.5698613717846767,-0.06109092798991018,-0.06957165669684226,-0.290571247533429
80.25074768066406,0.8101043701171875,0.00817355782292839,0.158685902791032,-0.001490881630377583,-0.177553962584196,-0.07638682762126009,0.11413126984047062,-0.0656218724581742,0.4592329180732557,-0.08465756916616102,0.12373496257218046,-0.13077395419644125,-0.21968479633464238,0.15570576983170922,-0.0398162029150909,0.017330970368712364,0.03176320847716143,-0.003448329876138686,-0.02673829814730322,-0.009415560279234843,-0.07778335612467499,-0.10187893808814767,0.03273692592342186,-0.05621678482844103,-0.09270009680838036,-0.035617647294081275,-0.013581192585785575,-0.03661709035103091,-0.02749028312196289,-0.008469844870513572,0.07066301357569851,0.015697331456529615,0.056576240316980296,0.003897646203117014,-0.02599075169561664,-0.017019380398360137,-0.05885852727188301,0.03544887298987563,0.006577957720932587,-0.05822864408938296,-0.1045385154002606,-0.01871270524830435,0.039812882639400374,0.023016855165815364,0.0456340531508692,-0.08304984617938165,0.042694416778436974,0.022002621642315492,0.1317327600022813,-0.15775556352397171,0.12337245433008669,-0.027373818937829295,-0.19466204994684047,0.18285048638568252,0.10912348565965647,-0.07442235968746269,0.045855900063948164,0.06425543859418759,-0.03407265686019718,-0.020661022001269087,-0.029286368943642158,0.06267643048188656,-0.03156935887844366,0.01734250969202447,0.061080897872134554,-0.08904103430066383,0.03160833448036346,-0.04926085101475147,-0.0234822250541874,-0.0549527043460057,-0.08253772804413492,0.037961460171188406,-0.034066510272697796,-0.004061616634621302,0.124548912181323,-0.05620469883561215,-0.045193532503872105,-0.09485487123148509,-0.2164537960513947,-0.12099620034173712,-0.06602076505560583,0.21245721199674694,0.01599876238438966,-0.12919926578922958,0.3705875690921493,0.5739876713481458,0.061575539254768,0.19014547175287777,0.5897408717397334,-0.42083474746957683,-0.10575677364045016,-0.5063082091601969,-0.4193350793879549,0.07746969135213318,-0.44979557902400746,0.24014603483557062,0.6338885118848167,-0.01787728553402504,-0.54131136444267,-0.08348264293006805,-0.02218671697476865
81.06085205078125,0.989898681640625,-0.17184622205087424,0.030825691933264947,-0.0588413940567802,-0.05702676179507276,-0.13157887550235497,0.016737753631059157,0.019696393278884824,0.1950035316662489,-0.0769865499276439,0.08844446612988319,-0.03343933879659296,0.30938793087516686,0.004519964221611959,0.0864154285626107,-0.07775299985799258,-0.03934577334128218,0.10488805030807317,0.036715005226240764,0.039369060615612746,-0.05296433944576383,0.09319809084619016,0.07515625542565176,-0.0700675263064482,0.04778746873202507,-0.11898498797385004,0.01299599229811064,0.0046776625627167855,-0.05970510598880725,0.0030453152211968645,0.08985366445779475,0.009605145285278123,0.04680007295946109,0.012409376241883088,0.06093278113729385,-0.17850492338197396,0.02245865131049416,-0.09855465197466876,0.0638224282116182,0.05438154682196688,0.010886793859021051,0.11582392692780788,-0.1412541373865447,0.15065828941262766,-0.04371235317763236,-0.03415030778623934,-0.01370001080364776,0.046293936765397135,-0.004673739479401847,0.005106778177852473,0.02567634874699311,-0.085571937647369,0.04103406350541454,-0.10481262754330264,0.0996943872030919,-0.043148544684909314,0.04920491093887866,-0.09256181355885189,0.0717864148362044,-0.0474985023857533,-0.04619602509790028,-0.07704990885100649,0.10797780681893242,0.10253702753119591,-0.012115147896524549,0.007959125442929649,0.021353563037381285,-0.060975568299670914,0.03785592200142866,-0.020565541220687027,0.021653062340577935,-0.07325285810718844,-0.013856767249378368,0.025729133193789326,-0.017892731408472546,0.004685723956954914,0.001688948030289965,-0.07641918622086798,0.10687870094393608,0.17833964145768819,-0.1649003492564499,0.18102704452608187,0.026163983824087623,-0.005820844859380805,0.10545892106034942,-0.10667031703798371,-0.0012847035666516092,-0.06320661333134356,-0.04810329442881223,0.2841526185821796,0.20452620346348283,0.12337947839585617,-0.2095371537497685,0.35917655248728697,-0.3602583893151082,-0.24495382314824157,0.5218722938003966,-0.23799670900920952,-0.2330042705235313,-0.596120748310338,0.3240135809325471
82.05075073242188,0.87969970703125,0.19445879535933225,0.13277098219880798,0.20922909502055687,0.08446835805218085,-0.026162503329429043,-0.1353749390959179,-0.05363162005256847,0.012098853379608553,0.06574466152886004,0.27372945607469085,-0.12101358197230418,0.007363962982625788,0.02892881590279743,-0.07790910643804128,0.07937901456691113,-0.2118629184191025,0.034633558528614904,0.07946438737914502,0.04242557434794233,0.11916746911622776,-0.06824912496519357,-0.0674507716589038,-0.09507249492434901,-0.03095275313804774,0.02604508487019645,0.14414717139378916,-0.057297969134038604,-0.2398106184091209,-0.07079964742532105,-0.03049077987423529,-0.05344826394085361,0.14427590715838073,-0.06099641438074389,-0.15741848496827873,0.13331637055421272,-0.016346565972183123,-0.06303651386030551,-0.14837384909292156,-0.12833275725836057,-0.07663890547944484,0.10874384583882359,0.030436288379776473,0.007577851555576234,-0.025516846030092796,0.09420120786046089,-0.006565460788440905,-0.050208252767049516,0.037702382784225406,-0.032979888879577715,0.009093132282224296,0.12794250980184144,-0.2242320952751642,0.21568934350521304,0.03645761887883252,-0.1643043372024046,0.17271697076869352,-0.0978393892587987,-0.008215308375962432,-0.25973573280765255,0.07977233978545623,0.028205817616907367,-0.0624109083186769,-0.06468431021184735,0.057659145570595094,0.001893580304869363,-0.07704453324748568,-0.06777105572409052,-0.00632278387998169,0.01095299201675519,0.002905445779199274,0.047558245916128825,-0.08605970296620159,-0.06258176486750502,0.05897973885493896,0.0020223856477316372,-0.028070191323507788,0.05224211735416455,-0.05577832673532964,0.02933980786360375,0.04714372982590164,0.014026480678115585,-0.01620937295959232,-0.03511986047905086,0.326884446592665,0.2584587438505171,0.26563794890412074,-0.18041018354427954,0.17042729030507364,0.1819284278125936,-0.11591528002026381,-0.026138714593375967,-0.6377612585214225,-0.050405481758515974,0.19289048836202957,-0.4267795123683111,-0.4267928838318299,-0.35593276847460165,-0.2883132873406029,-0.009431011402061368,-0.41715289976513753
