start,duration,0,1,2,3,4,5,6,7,8,9,10,11,12,13,14,15,16,17,18,19,20,21,22,23,24,25,26,27,28,29,30,31,32,33,34,35,36,37,38,39,40,41,42,43,44,45,46,47,48,49,50,51,52,53,54,55,56,57,58,59,60,61,62,63,64,65,66,67,68,69,70,71,72,73,74,75,76,77,78,79,80,81,82,83,84,85,86,87,88,89,90,91,92,93,94,95,96,97,98,99
53.31325149536133,2.081897735595703,36.079306007692715,36.984498453127216,-21.966436362689866,14.144808066438891,-21.304551258882846,4.714240215747973,13.318398284938443,-38.45662460020172,-7.48692595206256,47.30816931247171,-29.612709143411355,26.339851273804317,23.312240542353983,-109.74973255910473,20.47105154182031,-3.255921395861005,-105.28633088069239,-69.50030991041108,-72.95848078337063,21.39419870999609,13.165866110709516,7.396593012132634,45.94428387155874,-63.25336110997888,-14.209458130254294,-38.574903079560386,6.222005968089334,0.9166022189452963,18.514163117969794,-19.600005278806933,26.680973746227387,-9.86407765023277,0.34844261279776834,-29.30778158385918,8.353299875123486,-12.268421969436762,-20.701829801817112,-34.075972179353364,-47.74450891101179,18.542451427370846,27.725155934255003,23.9029284036294,-3.5072489382197274,-21.613340963163118,-16.13228331632508,-25.875264158776027,-21.413592538974562,-5.920291608789351,13.121080593333003,-17.1899025979151,6.280092295888037,12.343477938384211,-11.329361859881711,22.016021595363497,-18.55240742400192,23.235204288946584,9.443117610037184,-2.3819673623765656,9.433667642518223,-4.367984048209741,12.789169264782783,20.594652143282794,25.114559634062346,-7.729798049570804,2.0685325504587246,10.322053377964188,4.345796189472852,6.36182054889699,-25.148073010854088,-1.1403382526749297,42.157968470356074,43.96192826542231,43.043415474086586,26.475453397464122,14.066052811640592,-1.0268068209746746,51.16180168660395,26.52872279000368,74.34531306016082,-44.18549737437868,35.70280669674967,29.981532126214244,-59.25806832319783,4.643964130046652,-41.30542668867959,-21.384715818435442,-6.679004609871894,-1.6796389362880941,9.33977105908264,-75.70645001182098,-29.45634618619278,24.14830345379641,79.75082245147706,-59.099694903771905,27.2103776613555,-4.140598783513798,-18.592867351793323,-25.16294175110281,21.33111432859873,-7.8537127805937565
55.39514923095703,2.8329010009765625,10.982139151314263,31.857158332032483,-2.660691234515002,-14.37223683026077,-17.626388521817816,-30.598693716880977,27.903958416255737,61.130873373647184,-57.9899021092493,28.22238858467463,-88.51824257058738,2.636551101727407,32.89517964310013,-5.053604937474797,31.873469247317338,-20.2700885851061,-15.686821459355215,41.788264289491394,46.244458077343644,-10.951086423959932,-7.085223908458092,35.23409845266995,28.393201949133832,34.71280479210432,-30.031426964749436,-33.844623959064734,-41.55576109396324,76.66757829101249,91.88734859876412,-69.27387945047779,-15.587223656974475,-29.04010885564538,-25.12293312685068,-2.65916811304479,22.133848807888352,-3.6296992326456308,64.33547861414415,50.19460792637793,-37.385924805031486,35.37413659591696,-16.18368358653597,-4.833844619261283,-16.608306556857688,-0.9696761094048785,12.997393995088217,-25.331754548207034,-7.616164226788542,-19.929315535740585,-3.950668201811763,-21.271920934475517,-11.524244467899294,20.927061981610485,9.444312528252048,-16.73338723063809,12.186221434153676,-1.8783158402674494,4.075873724125813,-13.31747520000776,1.9234490704100793,-13.600601216955138,7.693072776146342,17.14684612287194,3.584934911263045,-2.9394014285122285,-2.054352049010941,-13.278233443127963,1.7000526466262562,24.042659522272288,18.056802027513875,1.3946909908959033,17.22797077423944,1.5478227540314349,25.642616635912376,-7.459576331797321,16.138550478250473,45.66262411163707,29.007421933204625,-29.679118086193885,-32.15876425056882,10.279164120553412,-15.806458106798031,-38.94520648410079,5.214492792891351,-8.317672197306575,-10.51115553639623,83.29954761911313,26.748176154526302,-39.673425885310195,-9.008364265241415,-25.32995146020588,6.491332643161517,8.34883029946406,-14.57258597858111,-26.422882499914376,-17.63940502751681,12.591979130044823,20.09396936164588,3.9567080745809164,45.6498239126011,5.511690798779279
63.0323486328125,2.3618011474609375,-10.703886100980611,18.87937658299424,50.334068831334505,-26.265252487120705,51.244338291860515,36.18210913471995,-21.27103879503289,23.213312779423696,10.803055295515561,-17.564352094679975,-2.1184959403347055,-57.62919362421871,-28.53858574513813,49.274214058635955,-47.25132105374695,10.862783928792027,-22.143520168786793,-2.9429317493310814,-29.67574605509843,46.890617362579555,63.99458019967409,15.668829094448217,-72.18876034812591,10.762080654719357,-55.46855004732485,0.5846359214942272,37.97899887456918,18.249608819821418,-161.1233565263101,-4.954109563365183,55.66694695426958,84.53140497299584,3.855857078583101,-13.816325985596352,67.59120924184302,-80.18769073055934,-4.998686886314934,-22.348421152165265,-31.79499426562638,-16.532021489241043,-15.177318452742172,54.43316955904952,-11.950825554762392,-16.865748926429056,12.835973624452167,-63.34244453603523,50.828548396319654,31.639505207116834,-2.3661418379166705,3.7817953471324444,12.640824233260833,0.3338915085987116,-6.194580939702769,14.9180427850597,-1.5510896813026989,10.52399530817779,-17.016578854007108,15.019627615066364,-2.8036186331428743,20.174702235034832,1.7371599524507406,-8.227053689190694,17.325838297061775,-3.1094378709484825,18.668353261252054,0.10849651704254093,-0.17943632503477033,-13.763111531365167,46.816951995573234,27.98589682543588,-2.664136791578194,25.76439344407611,-11.660080131532501,2.889217111705283,2.56113824868188,-37.016067501536966,15.999872065766674,-5.573375864957551,-27.346937280489232,5.396073510513107,-1.272997764966239,26.288386926926734,-11.127182364344142,-28.957027798196457,43.27494524167511,45.3824770017224,-26.970061089455108,70.89620090645455,17.82327241750383,-49.53861115160616,22.217380802527384,18.619186528135096,-3.86554626728826,68.1932518410691,27.211825356190268,-50.9479390306459,20.711319439954583,-18.31084781562066,-42.783780262823164,15.479542233344574
65.39414978027344,2.1526031494140625,-21.443697632256587,-11.122260014145729,13.59492801376416,-24.89851510975427,-9.847612791885354,-54.17912678228632,-26.708720910287973,41.03713323862665,16.361393073503613,-27.290657882189596,-56.96744008509707,-49.36426081800344,57.0963090043601,-27.587914197548276,20.71540366151816,-50.77105855579958,-1.2272156023688208,55.668296485349785,47.032412843253745,-42.04036231091519,21.477136003884453,50.26652263481691,-31.756183809850583,-8.163894580974722,28.617524138693206,-63.471111776868874,-17.626814781911737,19.288030928338195,62.92632615079977,16.328957996457532,80.47672645392342,-37.11331216527242,-91.33493684840484,13.926115566197165,-5.6790233151340335,7.581908074560378,-30.288618787653498,13.134054987456206,-22.19415347964324,-31.282742818889968,-11.83396579046253,-3.9773952157983703,-9.600270172572976,-18.892994694825667,30.852278460760502,3.116119343745276,-15.560861295686612,4.939509270896519,21.485128781952213,31.486076211168708,1.6131778703471547,-23.561913050817925,-16.377117653285232,13.164989236856888,14.097488946380656,28.072849313293755,-8.083954639491951,-10.046405665853447,6.136167246189691,-2.0456160486450443,8.57374774116976,-2.095616425298381,8.928711930177768,3.8460432480075273,-24.33159672912868,22.143175222740414,6.459077153454706,17.829223212098604,-65.82821519812127,-22.020775616872736,31.130776859081838,15.083933732396098,-11.638477403221206,-2.0634254193156423,-5.77883502356317,-53.941405735821604,-12.120119691320909,8.681069406565625,11.323182006062154,17.785731561861503,-21.199587057360574,-9.426843745474656,-14.21359231241774,-26.33183191461855,-46.76795727133263,-60.816355552366275,0.09455636774922116,-28.8344262763728,24.914647071528897,-31.977711400868724,16.67193723746601,-9.33825105899513,16.058120425659276,-36.06908947402206,35.822086956275186,43.14700573282867,-70.78152555698682,11.66584300140671,-35.99675606601348,29.70344070163023
67.5467529296875,2.4020004272460938,24.841437598020715,1.4540981645919424,66.28702637613205,-21.751923620757047,-75.25456205256921,-73.61334625892115,21.135337571731284,-69.18889367663753,18.615254141754537,-62.66352864542176,-17.762352288290067,44.377911422887955,-65.41141863154279,89.95918271891696,-25.07808063148779,-37.601462953966305,51.83528976938734,-9.686327610888942,-104.10768467945398,-25.491809759939727,112.46443953549336,71.93534413289058,-13.769101189562642,7.009925356096401,-21.200751954722175,24.87799098289629,52.75155480643171,93.47038758627264,-58.09506167352674,-6.648312037095508,-16.964630579658035,-68.26264887458174,3.3899760063382125,-82.32638153185638,12.406983429700087,-17.612422222237733,-38.165606449710495,-23.517159202149287,-16.173979612313563,10.998407395871222,25.31402492270601,18.752179683729956,-22.46094706103982,-2.3929677330933528,-16.00770453142363,-7.3163887126772185,27.211900075339617,13.691887668979726,-13.431808050707216,23.75566277021803,-10.822848109156766,6.6948698154513755,-11.321031777874465,-11.090094837373513,-8.778518738170689,-9.752550746273805,25.939536732130165,-34.24939202917637,18.552023082784252,6.71390319171268,0.895548951584749,-8.18182586879595,9.767540636861511,2.217667766134311,-7.146206485156194,-4.9428228003806,-9.167529094366055,17.579561366918504,-1.7866313794388207,5.699381428319831,11.423091899076134,18.061493932037276,-4.331180256513875,-13.788720696399825,10.969941482413429,5.902754163515091,-15.667675769529495,-28.27575166831066,33.718269928086265,-7.73613428614502,-51.99667179883853,24.617845712715138,30.623265410891452,-39.05979064603903,-11.84072913778674,-3.5813483263314083,-13.082557305751171,-10.35150970157888,59.23943213855518,0.7982973328404643,31.143980537271318,-9.109727678158844,8.888565632944122,-39.58328466126386,12.791632041384021,-13.739727018939616,26.358100182741683,-15.282314196515422,8.578302947215148,33.46795475130868
69.9487533569336,2.3320999145507812,12.780415173147297,-74.89520707715455,-29.272314911122205,3.0467418448930257,77.47616913836777,-37.92337234707033,-44.37689308296139,-10.438506507061238,3.3474085345097326,-27.08248432160042,-17.175617074046738,-2.9822703747979564,-47.96728431656299,-41.01559065908415,2.8059023576816884,-42.63558754980499,-17.5779610419777,-36.79035455517381,10.616962725034668,68.51223083162728,40.3201525727765,23.563120011398862,29.162079005343116,-12.058832544306032,17.31216219551145,-35.86745643831021,-12.904600256555828,-43.71909358536521,20.208470283446047,-3.9159548736571264,-97.56643222620737,-21.037421982559778,6.748291678763479,46.091412120743186,1.9772217385457935,-36.88996229502039,-18.856847968747225,-60.962471686014254,13.261399450363484,-4.450969230180249,-22.798633760605227,-10.140900057641176,6.829025667483123,-12.62824286683276,-10.021995654812562,1.3116681348115735,-31.965810072700766,-9.374971832340043,39.344850315601924,14.759465741610914,-6.400143286454062,20.576513917422677,12.501050490765746,16.84737807912633,-17.141920899954034,4.364766952416453,7.832031803179258,11.79755516321205,-0.9279126423768664,-8.087844112250423,-7.974053858291642,22.08261300003145,-17.018983791415916,-4.678353791430743,-10.981277204424668,8.395307222866421,3.707641205885022,-41.9777168800722,7.277009531318049,-46.53524112521693,19.329228491512914,7.503730906252121,-28.669603645306154,17.58676934331312,2.8802703153163733,-3.30127880437904,0.6237749023196901,-1.5448411331510603,-34.67130166384026,-0.3003920430820386,-6.010602400962093,39.87303306325276,-10.073333060436239,-33.20818965257486,79.7522417773316,17.57337418151961,16.153467887169626,18.143369264342393,20.613768832870445,-13.199035408214899,68.93101482471423,26.0886844379968,18.167897625771833,-28.799711785677175,-40.897822252438964,-10.092857150731387,-3.2067219933596043,43.268587439970226,7.499794392730538,-0.16910114244370789
72.28085327148438,2.5424957275390625,22.599511036017056,6.390705429467568,0.4721857418013995,-30.84502232443535,12.859452099082015,-7.530905024644598,-54.01647171437992,-19.692840880031653,18.200118301932378,-0.018389319518592906,11.34690742990593,-5.036516457511879,10.425483705495989,27.36183114999064,21.578600902669457,-27.666160901911184,72.77990307839315,57.37492154700672,-89.11890262685802,-21.118139507732643,23.779540974874024,12.418658545553768,-0.2380942177779417,-19.441858671759384,129.75274284873265,4.424982834352153,28.93399502741954,5.919365514102742,-61.00499807777673,-8.628825435882007,-38.96225791856972,2.481394364938587,-49.34431550433348,-50.258581347466446,29.52824785680614,21.720094402912473,43.50168195631691,-0.4977868662386946,-8.115018558902191,-20.325762880254437,4.3662554508558316,8.216047584930656,0.8566821136712213,24.94751690557045,3.001118769970244,-19.816733270709776,21.658325693311873,20.476812027111183,16.729421285313308,-38.22499192405091,-12.24702887812743,23.00178008874671,8.848669752361204,-5.323736157250632,-5.2949252975410905,4.159526210183963,10.770435847594179,10.347481018074665,1.0778731318148767,12.682150297501696,7.258086461535391,8.800947813701168,12.914536906468776,22.90523767470834,-5.76955491528553,-24.565836270793156,-7.600170176568489,13.30139969329473,-3.702882115920029,-3.6374539151618377,-11.217651400797411,13.853289222667147,-36.12201166927263,35.8420432580649,-15.7523746529811,10.490767526090526,17.168487207718208,30.499631108153316,41.41442041001606,3.7571050579480127,-14.942067940603383,-4.756436067647794,-1.6650627245510297,57.947779841117864,7.988970477187523,-10.162140010219485,16.459245665959408,14.125985591194922,7.11727237500139,27.900334948283245,-45.44092889291218,-4.137727557457006,1.5607778221263438,-65.21229660005052,54.4714555248107,-31.518875732763842,9.078459847647933,1.6159056943453471,-62.7150214546287,-0.901268712206134
74.82334899902344,2.7224044799804688,-20.98907333343038,38.870924597076716,39.56784434888715,126.00921997393888,-24.992837496374644,-48.7528051545532,-16.070610483540293,-47.95701102597802,-29.143355330539997,-129.2207177112872,-2.097738742198846,37.69089188757323,1.81476118779463,-43.04605145952267,-18.033417762628073,21.57801682730279,-65.11436544040299,-31.58659407757593,-12.592004439746487,-56.91950982801438,59.49933530859682,-48.79323158524952,-33.686802585841015,19.373659621418184,24.01826336070944,-56.90073113219786,-12.572125790785186,49.05623842847628,-31.966208149043723,54.687850112066585,45.33232499063594,-38.49416248582671,100.75379334683927,56.04954934352492,30.465218323419233,-35.97974672196725,12.6437482996649,-16.54443836220979,-5.312215269174334,-16.300836501100736,-6.668219791484688,11.255154835316349,12.522491008108613,-3.2363563313654975,-1.2575038418917095,41.67002224976203,-5.334090827560489,7.693027467896608,4.064610160097553,0.5014440796660999,-11.49060872233035,12.243012071496453,5.941773436305069,-14.14770875156269,-2.079254965105578,-4.1424213105715495,-27.372474352373647,-8.25826565259954,-9.214630321441085,-5.46559713395609,-9.818548687036323,3.9959223468175584,1.099741965743017,-15.3556034152435,-33.541023246640016,18.32607127905079,0.35333246418091574,-2.1069182183303403,-5.98935082417767,-6.6681694792814366,19.781509960521984,-5.535739303022984,32.266360067142514,-13.573827439298407,-6.808769573123469,-9.828122915986397,17.27556185182458,-3.094786692811222,31.862291353650292,0.31364433931790003,-15.945197931651055,7.3259749711422995,7.3045003319343005,7.974486293132401,-11.722943878940844,-1.3400437252984467,2.235287582506352,-12.599865882261433,39.215183120019404,24.672609877198667,37.57985230601548,-27.079421557150784,-24.61570532337252,-23.287702990228976,-14.348938544285174,43.28045788653932,-3.17699679699526,26.040490479569666,-17.355885827179204,29.511539677969385
77.5457534790039,2.2819976806640625,17.31248176641501,14.669333342512006,-13.743027196119908,-21.14371075269885,19.00121045660738,-26.6321524642744,61.82779917460886,57.83492142792184,-11.916914396147718,13.251501497053942,47.19045753249663,16.20460199269908,-13.183274540171649,30.053331523816873,14.636222027464267,37.5565094976339,-4.3532879845373795,37.11415062778471,21.995493272259928,17.985592689506685,-9.605546342317869,-19.823519122151218,-1.2720838303312296,24.91014901390503,32.55179426554026,-79.34869568668663,11.122377606608778,-46.331900123698674,12.076260525671922,-25.46273273210487,-25.063630006105697,33.67323719816383,-10.84131669574095,1.2386596857921575,75.77813296251296,77.58738959984245,-71.13378062871749,-44.236085495769075,-30.227007976958376,30.45727885874477,8.314548736137011,-4.237081457072756,-17.501877985358387,28.168822072752402,14.074121902358396,-13.397144405667746,-31.468187773220514,28.297565701923933,9.766110610288173,-32.55353148904157,16.547921603327286,6.853518760355565,1.7362538239797134,-16.231210381628113,24.686798668771964,14.698320339834858,3.4380566972606514,7.0842670444808995,23.48236804451117,7.449318730395799,11.955973010696674,-5.7605643985027175,11.720688997231273,3.61570897448497,-12.38085757623461,7.453813141728886,-4.216920511194727,20.186320890848286,-19.663003046941814,18.269600700026917,-8.99153926407715,-17.295785871973287,22.281342232394625,13.309873753242838,-36.88289056989903,34.75200593644698,-13.037114343591643,-14.348967940965398,5.737867671195131,-26.161068412419773,-8.077578955323478,-69.97985516932656,-62.85291516783428,-48.922184274255144,63.785156388385495,50.99552521787363,-12.707371709547312,-1.0035398772086639,-20.65898064450812,38.91485405672808,14.434955909769808,15.893046869779194,39.998005613377295,75.70719153663596,-3.225532748802165,10.342895444376609,-31.843635334924205,18.75501451352986,29.730240911071167,75.12099080757926
