start,duration,0,1,2,3,4,5,6,7,8,9,10,11,12,13,14,15,16,17,18,19,20,21,22,23,24,25,26,27,28,29,30,31,32,33,34,35,36,37,38,39,40,41,42,43,44,45,46,47,48,49,50,51,52,53,54,55,56,57,58,59,60,61,62,63,64,65,66,67,68,69,70,71,72,73,74,75,76,77,78,79,80,81,82,83,84,85,86,87,88,89,90,91,92,93,94,95,96,97,98,99
57.95344924926758,0.9608993530273438,-0.002973321642792709,-0.10484543368554951,0.04031631766541589,0.15405722043827175,-0.2408708509767491,-0.006796389193839986,-0.10734666339137186,0.0682657140749805,0.016288427072673466,-0.2754625733639534,0.3518666879751529,-0.21686736672593326,0.14387897623569804,-0.03390748435331745,0.024528863491280833,0.07747180870853522,-0.21408741176715654,-0.11052320016503328,-0.1266975268183608,-0.07509902921979733,0.055959403804298896,0.03329177689611289,0.15634545548694354,-0.06711972837488954,-0.04181789474790009,0.047274001764746006,0.05527660260668339,0.036757678479149326,-0.11468487226160524,0.013509380739581585,-0.02226978112178734,-0.0013222593357120594,-0.040942054823791846,0.022357703524955728,-0.021558736172337875,0.06694988305320827,-0.006791330740253596,0.011199597423992284,-0.055247161017050364,-0.08995582287579922,-0.01664429328947541,0.012701149510444175,-0.04519125065287904,-0.06427475045386118,0.05023594678290505,-0.03925709746200303,0.002955691836230737,-0.009823408274971966,-0.0369193308004393,0.04504501463024439,0.11550406676184397,-0.06905650739213294,0.04850699747921765,0.06402447587758783,0.0428844566377683,-0.08753243919286327,0.08137795335936979,0.06214928088852069,-0.04802365043009395,-0.07549025423020775,0.2188461919539259,-0.011142790986822582,0.01789401472265027,-0.0008874275944229198,-0.010841580205893693,-0.08238414436771216,-0.044210952227158706,0.05258180345084707,0.01505513960859091,-0.060779510379525135,-0.015133421927962055,0.04659210846180716,-0.05373959025566372,0.07490822492853262,0.0033545948595927015,-0.0384140920398769,0.015385486290516746,-0.04191644388259938,0.0607333077148329,0.019481870237987677,0.05321694935607003,-0.026731707601501568,0.058229092097077634,0.03475739082765881,0.016656772891581538,0.024287264143724445,0.0037632756076624264,-0.0068723184828475645,-0.022222230685186153,0.15437561966247298,0.21503916139725515,0.29553620419835264,-0.5412910745755333,-0.17939450730250045,0.08304317430293984,-0.09047252048260175,0.39635711499601367,-0.7648658296156488,0.23896218111500422,-0.0642166212963805
58.91434860229492,0.9612007141113281,-0.033348605312569,-0.08694651991506777,0.049166931031226116,0.4141582377339131,0.08831171558313436,0.1062908236414804,0.434548538107697,0.049054436671971256,0.20410296396417174,-0.025067662869561524,-0.01587938022624963,0.13754688693617645,-0.03509294205624861,0.010302523340283972,-0.20369654715120972,0.08652909741610262,0.3144077803749746,0.030119855229415092,0.05920324598653995,-0.05741292517464608,-0.23830241275545339,-0.035766391352492995,0.07578700142403239,-0.3062596543530056,-0.07882573433350178,0.15036207035570806,-0.10917301119447735,0.08905852151084552,-0.05370592139234726,-0.034038244098531574,0.08155975256952057,0.03491147393157734,0.017941563369367614,0.03005967097116708,-0.04316162658932362,-0.06653353207718797,0.015087308469245992,-0.05092206189831148,0.04828304542689425,-0.06651425493451564,0.013532458906315414,-0.044247962290310805,0.0068055826486781235,-0.0016346785309350807,-0.003007602606692929,-0.005210129238810157,0.01719341484712538,-0.03542673758150501,0.04567853525511809,-0.0069687854272990745,0.03939684763208394,-0.01920407656823167,0.04933807675228482,0.0002792413460340408,-0.01938302279253319,0.10861785972141316,-0.052363888375194144,-0.0029105188108914243,-0.10523752566195434,-0.0892841859885744,-0.070207944689303,-0.0074687098402278366,-0.006134086925487115,0.009095680513758446,-0.021654814808995754,-0.0010419919836600069,0.030023995471376207,-0.010506242032148408,-0.04019587927994514,0.073716404292782,-0.07758550743216991,-0.049767893649277015,-0.07116145119203239,-0.04871060905083581,0.02387059859019537,-0.014259480906651105,0.003058454364431279,0.000538018514974474,-0.07911800173498588,-0.02902026212974386,0.012273420857133717,-0.003568839542965237,0.04987712104255917,0.058427284688150116,0.05010071040025198,-0.06767838817764579,0.006585094845911188,0.11269272515446094,0.1562707305206312,-0.022696174589423183,0.022444077029077195,0.08821613209841542,0.6049290900152717,0.015557665826481756,0.05247942391566336,-0.012498389205906832,-0.02103462126854264,0.04499044134908266,0.221886037010741,-0.1710801498107456
59.87554931640625,0.9817008972167969,-0.15550976296280777,-0.3400869061851258,-0.05852925087286974,-0.024136523842676248,0.20562802309442915,0.141964294244381,-0.46025117202272825,0.17050803475124754,-0.0844524192681884,0.05673270932525253,-0.09149974560902435,0.15086893474710433,0.03957260782202859,-0.13472340878806446,0.06841393723322078,-0.13253997483999047,-0.07743268108226438,0.15172940572987137,0.0673188096669155,-0.21332067045078978,0.18529030563765525,-0.35762468759238364,0.14039121574281943,-0.030901753660957917,-0.15445101756670415,0.05794112034541924,-0.24337157772619042,-0.3415570196192028,-0.055622902077685804,0.04724437430663436,0.05023202997044862,0.08778566443835165,-0.007864676831372444,0.04828730578750103,-0.02112586486942604,0.07519307715115854,-0.03995339847733123,-0.023644581950928462,0.005923903474059491,0.008359262883331872,0.05042712670355233,0.001544471031824503,-0.02399238542244939,-0.03812684673061444,0.05026192934275753,0.05547336111615011,-0.057736397962697694,-0.10484709192830916,0.0504692088477678,-0.0022987783966320757,-0.0163538941006822,0.12255215238951342,-0.08729993186822296,0.037768341887407166,-0.09720262191521056,0.03246956999325338,-0.009665274758351293,0.20109143736026128,0.08924389544010783,-0.010670017437687127,-0.024261312534293977,0.03744480995377527,-0.04806945015270794,0.06691753766360371,0.04825599312200947,-0.039167054057153074,-0.02477718276366798,-0.05199292826938813,-0.041174346341221635,0.04025762936279671,0.04582602539978733,-0.09309790967672221,-0.04032648532073257,-0.0786775386839472,0.0015792749259979375,0.03521596410346829,0.007978207995888024,0.025216560447199762,-0.012953238858538017,0.029403776408220048,0.07406419526731442,0.00335655120138241,-0.033846282161750896,-0.07796405274701165,0.06880681050581335,-0.05981003712167994,-0.03916295277647127,0.07252317694053174,0.15182363640026622,0.2593392346258606,-0.06973006338686553,0.09503482066887803,-0.3971279412458528,-0.3252608654136791,0.3220209288340051,-0.26946624690029813,0.5446400374513913,0.001055711536255853,0.04936148813361464,0.0045994190037312865
60.85725021362305,0.9514007568359375,-0.0751487769107399,0.14500748158058116,0.23983175958895073,-0.2301240409804483,0.2547977004949173,0.2573192296984059,-0.2467050777842656,0.1631365244806853,-0.0073501039018879985,0.16002110725791058,0.25018065525420485,-0.01718794431015814,0.16393136741747016,-0.12476750380923783,0.06276849343211063,0.2017661317472142,0.14326639076631495,-0.4502298717860593,0.3446080680947772,-0.04329006340803265,0.1439987479577416,0.181960062430444,-0.33783979725368857,0.0003096935216057155,-0.1628161438135774,-0.1592536553034046,-0.07311695255292715,-0.09593223279440602,-0.07312175160952324,-0.014270125895026464,0.009449182443910235,0.013421155684696498,0.11715825247005066,-0.14416887489781327,-0.02346489725442013,0.11746797043702883,-0.11099973378504363,0.02270950568947824,-0.010295935024931268,-0.04054048683461772,-0.030077525008052282,0.04114924913698478,-0.013612510160077041,0.09046278949812697,-0.06415951763015153,0.05723721123695388,0.05026099734881611,0.08400075391215323,0.027989923851520507,-0.009411087484110134,0.051826844740309456,0.08520782852001757,-0.044949649834192064,0.046849659576997674,-0.04224065637508455,-0.041441991884048304,-0.0038173972993374,0.015043366315731888,-0.031813247503223126,-0.027391462727988057,-0.040275989495631256,0.11234236783321823,0.03467099581798881,-0.04298481625641973,0.035694137762973505,-0.042115069127189764,-0.02989098180271049,-0.024830525545247516,0.0422613117329682,-0.007899227709840986,-0.01102687228674298,-0.03428203238757054,0.009604773984199011,0.03354120353610157,-0.012193978569206752,-0.02041916243165751,0.030055419282694236,0.0741648171436766,-0.01511823281281548,0.03420313325771752,-0.05276296650999533,0.06971861988625588,-0.001920877530624282,-0.04373727460008417,-0.05312031826369505,-0.007311502007066163,-0.0033501720785537176,-0.1666066664203451,-0.14079079384567017,0.2287452417188377,-0.15722372462828488,0.18495625509878055,0.12934304574464536,-0.056257963347090365,-0.014415181898224445,-0.051563818066966416,0.26425516603712346,0.11237031620513922,0.26816822229042087,0.023151737771855058
61.808650970458984,0.9410972595214844,0.1394510645849525,-0.12527461868375073,0.010066966964521633,-0.08557548529828603,0.4777614378367768,0.2483998679053156,-0.39202829979958936,-0.5062648665991654,0.1954719987656479,0.06588404764370584,0.4024369988355994,0.11511317816266822,0.17771373182835354,-0.019512828451358183,-0.2626378807356868,0.2502706931359548,0.14825456924568858,-0.36795756592611856,0.3204743800084815,-0.42530527854325806,-0.18876918611484725,0.2072128911121566,-0.2715936084186707,0.15157373805646818,0.05651437675320256,-0.012686434301412685,-0.030276823585587198,-0.03654854070249015,0.026447173379192723,-0.029088959818728978,-0.03896528296678596,0.09516722378971496,0.040056407867338176,-0.08281253150375341,0.014936938188291997,-0.02049799457957073,0.0046079096445024205,0.050925710532037066,0.06928137101827328,0.0068467609290455336,-0.041200382972312634,0.0534429519623342,0.07035379368463013,-0.005843117908937148,-0.12942187440927333,-0.0934079946717061,0.12832278623577895,0.020222269920346057,-0.03352865372154204,-0.03750330969905044,-0.07279133186515324,-0.04049367401636738,-0.029411170130933185,-0.06227309783747898,-0.05496338834075459,-0.06979019497948627,-0.04846975067529339,0.03285146577947674,-0.003459689387273132,0.059565656546210564,-0.06714705732994938,0.05181742895434473,-0.03063259027465664,0.013811847770937411,0.0021124879448616097,0.007768509193622342,0.05514834481816819,0.024456437213169764,-0.035844311643870815,0.021692095416304978,0.06597886750536416,-0.04465160753215905,-0.10199484986416986,-0.005146349656327234,-0.02457244805921483,-0.007491255721795674,0.00720000219907424,0.02251618046996372,0.003986757249977047,0.022026704898899754,-0.06849811598146997,0.016804538333564566,0.020677364282318117,-0.07958616778823936,-0.002132683724148425,0.035448627847369206,-0.10153688696462883,0.011989828900535288,-0.020317018891395887,-0.15586020139113774,0.22372134397319055,-0.025538398294607037,-0.11026140149066826,0.15232783132937647,0.19327278412873114,0.06996855625627504,-0.09460904069631165,-0.3098137352905432,0.12903751605138533,0.013134168837671018
62.74974822998047,0.94110107421875,0.14685077692599818,-0.27015392124091997,-0.23424373329333892,-0.15571028415524718,0.19268569117691248,-0.09510971754767295,0.3453765858581066,0.02554183869833783,-0.18431108537889557,-0.3122671582391788,-0.2587259003892651,-0.03493479070033215,0.26659342115329654,-0.14768890605203253,-0.6044315719873607,0.012537530573829484,-0.10228623378633342,-0.274296593171043,0.09379469430553411,0.1673470927526015,0.12673173957342915,0.00029417840802137187,-0.03177342752530065,0.04060931153705312,0.016298619851089866,0.35859930666355605,-0.14785529139872958,0.06880433673104851,-0.038005919626948034,-0.18042433541638045,0.015400898181661097,-0.06801648928871325,0.007196244169353725,0.022591428921154108,0.11726340589840459,-0.06117600573537721,0.029642681574398637,-0.02967993629067856,-0.022001957365194977,0.0006639761822995038,-0.054885999461766616,0.027886837462062213,-0.008158189511766322,0.002250652370765065,0.04005771028892138,0.0585134461770641,-0.033379789815863606,-0.01533498163045221,0.08563345141390534,-0.05498926763256801,0.005318049315190146,0.07303448760036232,0.03619980398772812,-0.06279639769637792,0.000918180427623305,0.09890165373434366,-0.034839977563177645,-0.051952083470851534,-0.05873407845182883,0.013733001524791252,-0.007606018955340466,-0.02265562882715338,0.06062196250468235,-0.11662657645586809,0.054574114403270854,0.0069625890893854,-0.013558027406738307,0.016511502028141875,-0.10935490101173088,0.0039963756202789115,0.03529428701584593,-0.004453731583043984,-0.018365683150359784,-0.007304756845538361,0.01474683571147508,0.015869991627654782,-0.045802904165182644,0.0725914282868046,0.005306860698019905,0.01912600553898603,0.05525209898115466,0.014187229781543742,0.009026357076864333,-0.007307641009779223,0.28686457217940836,0.06389189321763745,0.011834855406090335,-0.03465638467022056,-0.318523722520597,-0.20227747758629552,-0.18095446997432535,0.28421394573074127,-0.09348973681769028,0.16703636029078198,0.017095572934369595,-0.18094607022444856,0.07318547172097224,-0.2825213113668717,-0.30779843280607705,0.171624745334613
63.69084930419922,0.9516983032226562,0.026845418320661285,-0.12327245409516216,0.026346689414300593,-0.04892085172164091,0.2200779679920849,-0.2101828547550105,-0.2950507989153234,-0.063409530917873,0.14381708541444688,0.11837519416924511,0.27412401507372164,-0.24030331823618542,0.1625604755306053,-0.1917673770774003,0.24492776281909132,-0.21761328696640916,0.09851928449497559,-0.06705009333644942,-0.6141082414165404,-0.037320010121496335,0.18241602214202118,0.1656966963770669,-0.057578383723328644,0.09811203318166989,-0.020042654982633558,0.22696493081123373,-0.19763103292903042,0.1470573862248292,-0.061119403234272875,0.029272577684423543,0.00022320647448861516,0.001409053431022417,-0.11960689608485267,0.028970087189057445,0.01424445214879417,0.13812488843642487,-0.026016213485905493,0.03925774832436488,-0.05021202710116336,0.03886601507598907,-0.049737981743138746,0.0005662026203732337,-0.058241951437636615,0.05481385532671705,-0.11795894588343968,0.09381505311860827,-0.025482810121092676,-0.0018327328517731116,-0.04562923996097748,0.12218246480274551,-0.058752363232740426,0.006458516824376483,-0.0883403213598749,-0.005939339491138191,-0.11236352253775887,-0.04411014237823316,0.03078802482763601,0.037902414381446745,-0.06201482912518149,-0.031154449419501563,0.063098455812617,-0.015921818082838542,0.05763619954071822,0.06786428480668869,-0.03847953210678841,-0.03172918401445446,0.005950370699314014,-0.051315983469500656,-0.06370498582914201,0.039908385895245396,-0.035461458363662414,-0.013459555400605696,-0.042112351130345727,-0.0408907978500195,0.07278800466818021,0.06662875358979822,0.010369617940427298,0.05847182525726084,0.02724062162770266,0.04956720346943654,0.018514170164458055,0.12268547491369029,-0.02020909807425403,-0.4298735198294462,0.08788984990211386,0.25018109312212455,-0.0017001807515746076,0.010989880650896719,-0.06329315089379836,0.12444916462028302,0.14061045038761313,0.4002096148130182,-0.25636925812391465,-0.3452772979046653,-0.33606649021871293,-0.026094780696237684,-0.33913290551451275,-0.2265453454214614,-0.528040823548007,0.2227598237213602
64.64254760742188,0.951202392578125,0.17742998783748168,0.2328382462034409,-0.10574402156475082,0.07688272828372007,0.28777279252083243,-0.10383743244798982,0.2765264634695131,0.06394119883772824,0.031731596064545974,0.2318261660943869,-0.28706053344860516,-0.21107390734357268,0.07904246756599315,-0.08079438291413499,-0.027333387476706748,-0.11576340271071674,-0.005068278904766292,0.1168048975620427,-0.056812185441898456,-0.0841560924405909,0.021492375132508356,-0.07812878299596351,0.049924897939285576,0.026337449659087027,-0.05926969278364701,-0.07944765955546436,0.07041336780201987,0.23575187094766195,0.12903706688855993,0.04135693536233865,0.013544905983973945,0.04791753398143788,-0.039146457268489754,0.011965090252432677,-0.037963925638261536,-0.09404397148213739,-0.052625215624691565,-0.06262181719291873,-0.021495485551257736,0.1361850832535595,-0.02155921493576836,-0.09326409181413312,0.03588168557190555,-0.00980845550743404,0.06268024264617074,-0.05842321473864447,-0.05760854539608112,0.008670213058354262,-0.031790428687511335,-0.017081455940625465,-0.0003517657024625642,0.030481880933563216,-0.030241110963623558,0.0771025662567046,0.02198810147295601,0.009292667557749885,-0.022163281724508252,-0.055828058592253434,0.02928932100411187,-0.0483504948712411,0.017500995832430654,-0.018829577873658507,0.002500232817241984,-0.018490763181899624,0.12298720529975334,0.06554572099036135,0.02688036464891395,0.02937106842386404,0.002562363207135024,0.014952048393413594,0.14337722312002407,-0.05094482546230023,0.006014497764032381,0.025838733241877868,0.048160000908721384,-0.023749779305690763,-0.0422009183593245,0.04293513753018646,0.021643318006801235,0.0014995288058157752,-0.04984094863054928,0.010967208465124305,-0.005164268749585255,0.015325738499446045,-0.03263859316913334,0.2384954606662918,-0.06707106830150146,0.0014949557108987488,-0.43281866340047115,0.13266930393513165,0.07930996888732952,0.21940489408711006,-0.048278622712225217,0.14963117965955622,0.06808850622835648,0.15612343811055218,-0.2998233154063899,0.3334070080345788,-0.26279829864423826,-0.5664811099527112
65.59375,0.9813995361328125,-0.5506898230053308,0.05598128399344578,0.000712176800471735,-0.08303333158624143,0.28383763221424,-0.41643120573363696,-0.0714443700225998,0.017215518380230943,-0.10331456942271991,0.03173407367360509,-0.2642521853794899,-0.02564067872007178,-0.41589148032278667,0.040971044243468716,0.08380848981100915,-0.183392947094131,0.38200352291315737,0.26843765295495703,-0.5104275575090198,0.6127206377922935,-0.004299777841962803,0.26077592735613353,-0.18255565312759012,-0.1273631050018796,0.010782238679688236,0.19227298764184705,-0.2501199402774094,0.10330158412271247,-0.12268428099865036,-0.24242697154915582,-0.032311105120286135,0.29566588531641824,0.0601524638217147,-0.07305541763466632,0.1138726384373581,0.04892877239605563,-0.049231158739008435,0.00674651871826767,-0.04020387146032932,-0.03026999513835548,0.006424624625116883,-0.050016147994526076,-0.05428204761991873,-0.05720374209020809,-0.01628416900912791,-0.009363057661582144,-0.04452014093509864,0.11673319579983595,0.010125126675030294,-0.011153721199128837,0.07397288943405161,-0.007962859561562596,0.07239570840698835,0.06628821050296764,0.004184536436158336,-0.021664172056884437,0.012640691687790997,0.041737433363645125,0.0642961859522083,-0.06030542600822303,0.052886933631641,0.04325809164575605,0.013107241277598394,0.05367607805937284,0.045793684866943546,0.07179069645256317,-0.022325511557237318,-0.026977810204817806,-0.015663036751372053,0.013502086764324616,0.07632500943656625,-0.032786855124438755,-0.009382090189548914,-0.04419629930479392,-0.06292738563984243,-0.0029963366585729102,0.00946264285707268,0.008417865096914444,0.047377521559256175,-0.007155470135634463,0.055948667666892646,-0.055520719786467346,0.110624958351797,0.04390201138784945,0.01949843209011145,0.12418928923948859,-0.2994311890765873,-0.045773112334720145,-0.05729876564981318,-0.04225726715300052,-0.7862012092790144,-0.07675991157531548,0.2696336486863359,0.017865826617087965,-0.10501199460481785,0.036107889051021816,0.08676329473419699,-0.12360678084360896,0.5181420047560088,0.033855205746011
66.57514953613281,0.950897216796875,0.00872967350695604,0.24849837486904888,-0.09445033739237159,-0.09814184194871287,-0.0914631340739668,0.21117353523997426,-0.39595994037886506,0.3297221777645394,-0.5532009385917108,0.0711982442335358,-0.13116119848856084,0.2582059914271391,-0.2633899792775543,0.1881575084473683,0.0661840272842057,-0.014732011800826663,-0.3654675261279913,0.13150227462583014,-0.021959403375972922,0.06255291515047105,0.09470502217490388,0.1301065526368323,-0.18024966300685816,-0.1400735328613889,-0.09973468002699935,-0.14255561025407,0.06524236854729312,-0.11835805984211036,0.1544400532412863,0.10874832108729574,0.0675947067466953,-0.06270290620422322,-0.14158818241598234,-0.0030150801516962145,-0.01410592971291088,0.2551653744811399,0.003976130629865848,-0.12630821520763028,0.06735030196860312,-0.04323658802498001,-0.0112793443608442,-0.017642653179467935,0.05255371494159357,-0.0322607372760081,0.05489486992153625,0.06395626784598074,-0.03793938309749413,-0.022691587102094353,-0.09265247510000968,-0.05925993239022639,-0.012326067093729198,-0.00044247527222484304,-0.03366032459594548,-0.06068913366513151,-0.014284985509852403,-0.06687913654411418,-0.005042081002026008,-0.06027419921880006,0.18535346926021004,-0.015239130257505224,-0.053949668314862066,-0.05397612558671408,0.03496813079621683,0.0038397685660773243,-0.026312870899641464,0.03932219770927908,-0.019266381488796544,0.013734913407311707,-0.03180063938351163,0.004957985733037962,-0.057723304055213,0.026895523433846602,-0.051643226715684144,-0.03769389071872491,0.0028880213121393254,0.06522129486644233,-0.018994486591433293,0.010045721035596013,-0.0934549026463718,0.030151028974682664,0.008656854712604167,-0.012225830541274265,0.003671588911857513,0.1565806567630144,-0.03952848013562059,0.0007431994999587133,-0.17700573773911576,-0.0034433424215311714,0.14563657613649017,0.12123795161928745,-0.33510766937222963,-0.2818553767962906,0.42482744123843974,0.0997030598270624,0.035885010867141444,0.1026977919663097,0.0057566240994319055,0.32751940308651245,0.1893962336936511,0.0369973983291238
67.52604675292969,0.9918060302734375,-0.25493479162901594,0.14762461961961065,-0.03337036151266283,-0.2006400608173446,0.05374354689411373,0.144180691867968,0.3123309110553087,-0.24842701281599672,-0.11693291537292826,0.19211960176078505,-0.12680525636916026,0.19694782393350777,0.0705665866357185,0.10160302798287273,-0.15895526331501192,0.06656718427199688,-0.23269478494161955,0.1607720513691213,-0.16011069827770436,-0.036771254174184614,0.05706138101486038,0.09695737054325541,-0.05215126282162486,-0.17196896544868395,0.21969139566232193,-0.18924639098418933,-0.00435115427407117,-0.07673775855081658,0.053541208855088646,-0.07942682755886793,0.13036175832609131,0.003208996235350256,0.05997584129891955,-0.07104556350268681,-0.02244317009202787,0.048389369076221336,-0.04318540608935627,0.09921553526237,0.018086514720903134,0.018857553852334064,0.002288884974118168,-0.02006456058254845,-0.03907571016072774,-0.06627904663562327,-0.06758736709863764,0.025235481679114127,-0.04650329064045264,0.14977560858564323,-0.025630736161972277,-0.08741799302499256,0.021156302835634085,-0.03022334622670861,-0.061743738399906,0.06726820129749463,-0.024023607654684098,0.009175638993732511,-0.04249423561611506,0.05765032225596344,0.015723817685849455,0.05046684946093813,-0.03670953787768728,0.02261940445579961,-0.11314747135373134,-0.01914515765483705,-0.022656108053884315,-0.1276175028234083,0.04957698745208534,-0.09318507039838797,-0.05845257788020078,-0.013048419093184866,-0.0003709916686725636,-0.005790817469940479,-0.05124424762998389,-0.036461870260682795,-0.02677369176682763,-0.005435487441401152,0.001132263679794182,-0.12123702886879444,0.039714025190070196,0.046728777016357595,0.026340982501874187,0.07028204290129739,0.03593673830591985,-0.028799134859638267,-0.010560962864644724,-0.1901386957424503,0.02818272352006026,-0.08504125426701015,-0.21019828475466362,0.015637928287458965,-0.08046988928887262,0.19610461446887897,0.20314763547745676,-0.21842745540483371,-0.019569631735670764,-0.08828425387757946,-0.29669976150650446,-0.03586090129063673,-0.19272035143297295,0.06753646536724604
71.4614486694336,0.9514007568359375,0.19976062656123142,0.24317833466323424,-0.35187581308531546,-0.40702491415247277,-0.10390929994720505,0.3181814426143539,0.11548350941492806,0.10456652243355215,-0.09207424917049467,-0.4175350860758962,0.10078650874548774,-0.011615532626039432,0.2886407310125853,-0.15752621816148382,0.11805804014461525,-0.09428360125244678,0.08063770061519228,-0.15072740344339589,0.13371309405563328,0.026119344127168764,-0.03377117268951102,-0.04108060836296766,-0.022642351416347094,-0.03501202268386418,0.024241554313910493,0.04175040938997732,0.049204169653053347,-0.0121858322907813,0.016853255086221056,0.024961094753308877,-0.0441780121681092,-0.04557476057630144,-0.009170399504093756,-0.0008714411365353828,0.02051631483524859,0.036209077724144084,-0.051226303657693775,-0.018768566864296295,0.014597415891360991,-0.22716946628475485,0.03063298520020262,0.014793509710180867,-0.041187876976906714,0.047456648326735074,0.019503279127108183,-0.06099671764938244,-0.03164059739781279,0.0010213470534967757,-0.013092708638763993,-0.01637454714628642,-0.05997029978929084,0.07653468494967866,-0.019268570041581543,-0.055410428172846825,0.00790931384145191,-0.0762564023433584,-0.015616049596183087,-0.12602263984261802,-0.0438562623226639,-0.025533774650499205,-0.057030547132412554,-0.021435374352012523,0.09009120847677396,0.010860525562708175,0.03795885281826289,0.059832613217620303,-0.014540647295616445,0.036413445819903204,-0.0780867804336199,0.007639139840918473,0.024907990551244534,0.03012486386496419,-0.006046189812785749,0.005352394700920998,-0.04345275310580657,-0.051484125900613964,0.050919089860080036,0.029073635898358846,0.02712660278205656,0.027557597532307035,-0.022945860341278976,-0.0010749005887564027,-0.05235426279931076,0.046483782093852226,0.055498452164713344,0.2417979767978318,0.005241524789115778,-0.15421955175817376,-0.21971523898524975,-0.09302626662943927,-0.029932741059709715,-0.4201622357659746,-0.2559340789133116,0.10460358082435608,0.15079723360924288,-0.02795901891138677,-0.3696297352211963,-0.04852628678083427,-0.3010014305970311,-0.10794014413240102
72.41284942626953,0.9613037109375,-0.12183503107014018,-0.16657555740786986,-0.21767338587594,0.12545810564040644,0.0011222548074359961,0.1702438972597494,0.35711939878778876,-0.07314807058312321,-0.23416104113394337,-0.05881719013926124,-0.004038007483291126,0.04759781485215297,-0.04428771372147114,0.2576408061965847,-0.06626605853528642,-0.26716593445280756,0.07018801082238295,0.00025234578423203105,-0.08110029221805821,0.08803612060406504,0.1872187571570692,-0.24172080122557385,0.03779383973679713,0.07453765272357635,0.12270179826307477,-0.09841211841272454,-0.014634971782317187,0.027078950097407947,0.04870943491235044,-0.07919442173534726,0.0361891584673896,-0.00974636109257219,0.019009671977236544,0.01396841152879319,-0.030997894435194663,-0.01947423513719431,0.054515011581469285,-0.026955571362937983,-0.0012226781517229342,0.05867618969868532,-0.02218613961391004,-0.07444075330650221,-0.009253935015501907,0.015679595543702633,0.020607230954638612,-0.006658055538211673,0.0919446009100926,-0.04561072843653115,0.0681185645559437,0.027864137591081202,-0.04099809138255268,0.021589721123633016,0.008265326746463752,0.07054012630651252,-0.009613559460141995,0.01901973660197325,-0.030277968242801805,0.0853659350842942,-0.0648915129486641,-0.09929138771618504,-0.01745035817507463,-0.01984664309624576,-0.02343670906240525,-0.04304547128579713,0.07868915580190027,-0.020192738634899794,-0.014882966540381307,-0.007056848367720588,0.07455342752907834,-0.07311343570345831,-0.037075584901622514,0.058479976458854825,0.014144156762073864,0.0479762184395916,-0.05782679508303948,-0.07191169378381533,0.06280277672706101,0.05450720555889602,-0.002756252516583661,0.03673628001607771,0.05859134876303047,-0.0323575681023771,-0.026801260813367197,-0.029130703325761245,0.0689408110463737,-0.11319729343300658,-0.03943546049399671,0.29154136247272455,-0.3256516061749557,-0.1308071944506245,-0.15446447412698716,0.12688047234420977,0.43844263413669393,0.42282690081723373,-0.19230054237947455,-0.5583055078160298,0.349045703891901,0.23870624340330682,0.1539843463855243,-0.3382094311911325
73.37415313720703,0.9514999389648438,-0.3045926820373292,0.10414616746326028,0.21515790789990993,-0.2085198259092742,0.10376896762512454,-0.2822895297355238,-0.21570228043279097,-0.274582798001912,0.10028668180727816,0.26329779924404817,-0.011880686028593785,-0.10702488736628245,-0.136424940113731,0.28016806468122124,-0.18675866225914625,0.07220088229688187,0.14015387042911226,0.2016654259154893,-0.10797922943779538,0.1781285406887972,0.15484493313279918,0.015152380316654718,-0.17248117947680744,-0.07263389272902304,-0.05145743923471099,-0.05689835413168257,-0.03086787757098744,-0.049946501841514224,0.007524633665234738,0.057910473884993416,0.08101225991973979,0.014253784610289887,0.05941538205584781,-0.019929575488059525,-0.0034286111210444226,-0.12371691602475635,0.09961997227886485,-0.0724793238110802,0.19024522590615794,-0.028778590584037495,0.0405845633276741,-0.10564447679433331,0.015305285595931752,-0.019067333609640164,0.026909739485557253,0.11104388254076285,-0.007876857090869214,0.08892811532964205,-0.1082139825838787,-0.00199508379549647,-0.026492255892233994,0.035368776295250266,-0.003350449037398411,-0.020829575938573885,-0.01398633938051728,-0.12351893771933395,0.05733213096198966,-0.07543744981486199,0.04466588779259851,0.04453303241787058,-0.04225197875626799,-0.06659025958901232,-0.03715280793512024,-0.029524359800267637,0.024278265141438663,-0.06386943113538118,-0.08874664388729961,0.02455738233582397,-0.03161104563161066,-0.048250416818823284,0.06109688210928067,-0.03876710925568244,-0.030371286981907608,0.05007138375222597,-0.031281592984964274,-0.010122566844099415,-0.04578358408430856,0.04802133235392989,-0.09346041207580182,-0.023867356522220412,0.05551922025466015,-0.010415254293150107,0.0027702388155852464,0.03911412650625645,0.1657923636091571,0.11806474575230035,-0.28838039921332376,0.14540863947930177,-0.3438220886926455,-0.13317505217780948,0.11208016802356208,0.25166222248175985,-0.14224754281010843,-0.416868788724449,0.12585983724124575,0.21839820679770405,0.1228402475231306,0.09362128254083696,-0.5543478183834956,-0.31493399231324326
74.32565307617188,0.9312973022460938,-0.3413113943102036,0.03111004670402668,0.05470699703220867,-0.10811938915400582,0.1294789328908258,-0.023897346344393607,0.2329874236041523,0.49253223823024866,-0.21826028768411396,-0.043681638794394816,-0.005302832484493661,-0.23087473003709288,-0.30809688479058567,-0.4570738500981575,0.36506054219977185,-0.004441150559242185,0.09284982524592372,0.2899944901065164,-0.14184346306266804,-0.010720796137454773,-0.014096295910249588,-0.0012865503998827216,0.40544413627654363,0.13041529810016014,-0.19639386694717773,-0.11382026959922159,0.1230402857482031,0.030829914574857745,0.27834338740983355,-0.1978157545026397,-0.022303766313579408,-0.04759158300579074,-0.04699992258940369,-0.027843732211749624,-0.1095624250159828,-0.0016129753316206244,0.032109564717618465,0.009543054814557575,-0.009358837699859946,-0.04535840827536458,-0.01739538273198482,0.005567168689826816,0.03429231484619978,-0.02077888226154487,0.027705793845989105,-0.028248640134917125,-0.04804410264429168,-0.04971666305583063,-0.03895274761037693,-0.0232062860429058,0.15260649374882246,0.009625886633433875,0.03452420796226257,-0.06271513527072266,0.08912769888955319,-0.06894840764931529,-0.01915167183865574,0.017159580600492684,0.12298063175056653,-0.0350651926455179,-0.014721870460421876,0.01499212625584459,-0.026128568244082453,-0.0114961814090088,-0.03317492597197158,0.0028914640656012435,-0.02433294454783148,0.0459021878407507,0.019688922769006773,0.0042004492594635585,-0.04406005861872035,-0.03481323304504477,0.010928870116234751,0.013403862080730244,0.004968509328464829,-0.019259221626781356,-0.014302480115951905,0.07108563891568459,-0.0361767238080804,-0.024517263324185086,0.04641674728015612,0.000842713963622968,-0.023557834031759692,-0.38592285515665764,-0.13695016077407993,0.047984778914244505,-0.3334978354676065,-0.00956498119718335,0.10121391303366,-0.4676341433646601,0.18456345820781803,-0.5748022499092129,-0.27302216189176376,0.007863910549194712,0.4590021212257808,0.5727677450812765,-0.1277776800679268,0.13591706439233261,-0.10092637592090056,-0.1418645580936594
75.25695037841797,0.9612960815429688,-0.4761409011848966,0.09698683545301474,0.5664710522417538,-0.09950835660317267,-0.22762839015629296,0.20749383223117152,-0.0003864851190884533,0.13152023635836302,0.24011754315560171,-0.23650729095812476,-0.2238422544098417,-0.3410941750817975,-0.16730780409879906,-0.22011594735900042,-0.17908750981587518,0.024721469327811565,-0.46817480543033396,-0.596480634541041,-0.0027801110414942265,-0.0921548572503959,0.09261302406016,0.03850242502020228,0.07736896143590587,-0.14660765945538415,-0.04980561267785341,-0.09609117953502071,-0.02152178869213246,0.004310239727035158,0.010751451102713742,-0.026491232866291285,0.054881923124600135,-0.0053891044154182055,0.06838726337333075,-0.025273277406277973,0.05866880450533362,-0.058059194292525464,0.024993866761176292,0.03343084186682881,0.020351497521668586,-0.01309136844762725,0.003941632432008013,-0.02806532308489831,-0.046417028036625195,0.005772057498834079,0.036833203391809344,-0.047039523940454485,-0.10966971095895137,-0.004622390739220373,-0.01964983104634175,-0.005761619542525859,-0.03853223822569853,-0.05030193958875522,0.006888527783065564,-0.06544438467264731,0.00470894211449078,0.017454540361617987,0.03369892506881766,0.08877629406946719,0.0032640598738808493,0.04427652815730306,0.1345172940878805,-0.0498190580137683,-0.01893678463318442,-0.007284323614071258,0.028514193675940974,-0.0052114273447980575,0.008174342049609843,-0.0004908445045782466,0.1475464223821029,0.06628017556761312,0.011179543495487596,-0.03841285686456068,-0.0016987115357312056,0.0025955432621894265,0.012497099708034795,0.033796254357195105,0.01464150369620029,-0.07180863874017733,0.024647152589037144,-0.01474996039462234,0.03506139192906467,0.038580328381979764,-0.07243648228350366,-0.06349167999817507,0.06307158440684836,0.008839989888115588,0.200856638919461,0.1160376765129144,0.09832583531091128,-0.1301966902803923,-0.08064563664161219,-0.26135589798644243,-0.1491437242339551,0.2588463080921435,-0.06212485566369825,0.3086121019585187,-0.1810222765341425,0.3730437507623493,0.13714307166041317,-0.29272139568522143
76.21824645996094,0.9811019897460938,-0.2969852316469277,0.11952701611210438,0.39335764110624377,-0.5783016845544385,-0.35963013600043425,-0.13352276633717003,-0.0544389872223108,-0.6595073938513217,0.06451022703835124,0.050862238240899436,0.2108503433316925,-0.14279551136490184,-0.29096619111578353,-0.06434074292210429,-0.020793415068523436,-0.033434479210046275,-0.03353671702282344,0.04848561257235276,0.4655256952954985,-0.04711432938069735,-0.07305725412257384,-0.16508728471394146,0.03900107074749594,-0.06223395674472655,0.023036073797158038,0.11025402627095482,0.03224376164655152,0.020927306134967814,-0.16541969004686422,0.02627506568871698,-0.08689110111730308,-0.05380457103459564,0.08262702040192627,0.020592289108681636,-0.16844906071667612,0.1359662382267196,-0.06663246886650225,0.11802963191635105,-0.01504455284908521,0.019204230163023098,0.09965985935017496,-0.0023353637987332926,-0.024229375096107387,0.012206934111736767,-0.018757544914987403,-0.050374803924800475,0.03659663762740417,-0.04848699217396363,-0.024190500198204415,0.07746611826973474,0.014655990403672547,0.024502997623778396,-0.04663072931306909,0.04645031608150389,-0.027175279916143436,0.16850157463051454,0.08760064073051116,-0.08016748583228575,-0.06983371594706038,-0.021898837921891175,0.01585151045730209,-0.028350751474572493,-0.011102269158969131,-0.025290261156429582,0.046107350068693875,0.052062587843541064,-0.058851571317335906,0.012871041107435468,-0.03533565075636613,-0.043563102238871707,-0.07483143777085934,0.058096781030756994,-0.03956513610634588,-0.03961920006443912,-0.10416981352914612,-0.007741850007016422,0.011456394021585874,0.0848499203798248,0.014691988338455092,-0.03262265745451104,-0.014223640450097249,0.016117603963170916,0.02043155288373917,-0.017128449966870535,0.08129837654087649,0.008956009002221599,-0.029319077930849074,0.14957099314527728,-0.1901485439163466,0.07611975923062682,-0.04231516803298763,-0.05804399099869933,-0.5945844449752521,0.732520693654377,-0.07014212408808229,-0.024235502470417964,-0.04940495809182629,-0.21387568912818447,0.3348821101420141,0.07611698317365945
77.19934844970703,0.9213027954101562,0.19738583354074668,0.01682528138519221,0.20758299446387213,-0.006814913995984061,0.18191218972594494,0.09719346945279986,0.2441167179669067,0.01122961758732658,0.16951239877537744,0.018481252422039206,-0.08857610059201476,-0.14628010026077543,-0.23367650926998063,0.05343408414841881,0.19436970064223433,-0.06718356991657196,-0.03565154562695808,0.1578951186138219,-0.11508904643107527,0.11724676550407433,0.35629550877104355,0.07842262405761836,-0.03694277112565453,0.0848958910570756,-0.03263324133211749,0.11806816449836441,0.05125543112451972,0.08829831096962018,-0.004877919766232688,-0.03259150484182288,-0.04362826983232439,0.10056894628237839,-0.05474146214032226,-0.006674327277011649,-0.044155089096296216,-0.08676860923613662,-0.057245330589421745,-0.08535689386987824,0.03654705675998959,0.0066609358385745655,0.05062549599098224,0.010455667352714157,0.0022207943568806534,0.007130311434046332,-0.010820975828802147,-0.028643293138214378,-0.006478517948006092,-0.016736825793581142,0.013912766057900705,0.004398383007411848,-0.009164665395957528,0.09164724132840284,0.01380671693061069,-0.021764710714928755,0.010895441489987157,-0.1156975649608473,-0.0433643603547188,0.053566700420238894,-0.10547142688382458,0.014110946792954895,0.09448555908215837,-0.018137493533328622,-0.08448342562037564,0.006900699952567926,-0.08737748933913238,0.03916251270495852,-0.046963803343795525,0.0012141215743304264,-0.0026569216856067116,-0.059667946938457304,-0.03223729466602257,0.0026400718690152425,0.01847909965677788,-0.0778237470752536,-0.014216060993731796,0.009686368143672772,-0.07119597716558144,0.05768939233590547,-0.041504244596816633,0.04963170204701383,-0.03191808051490245,-0.026051263943251166,0.022924443788699254,-0.022105461190322313,0.23343891712255432,0.02862366837018624,0.1328824156819043,-0.11483583671574617,0.3772800235928507,-0.10039746727991335,0.048703019586787105,-0.09583458198258162,-1.6508990765628841,0.29290000459048676,-0.22135194217894472,0.04714571373278146,-0.3651941572391373,-0.08801607449733852,0.19749704585150288,0.24216932472353564
78.12065124511719,1.0109024047851562,0.12183221090985485,0.02961548461553846,0.05936100445893908,0.29477362723113415,0.23503716100697536,-0.08323238174016356,0.036880449993144604,-0.05170976275339423,0.08658683281947402,0.11997887511398968,-0.07924089126635125,-0.05414779623322607,0.2223252175277795,0.014247708715278352,-0.14029506610343923,-0.0011982949946422183,0.07038595619723004,0.131903033834483,0.6404205892139887,0.5790593828700817,0.04441157860238585,0.16563076560465864,0.0889428916246776,-0.24541870193385829,-0.03925547363083527,-0.09465226093909762,0.19534447453522075,0.1693133453860353,0.0713596614551955,-0.16205137236446643,-0.20352981327240793,-0.15680248402423722,-0.05655638037342482,4.9973902304158505e-05,-0.10426906084880179,0.03404248960284781,0.07438062704960967,-0.10232927425978061,-0.03887133923290836,0.05017089114424521,-0.0012883507740835609,0.06048035314717084,-0.045169088465425465,-0.05322261774857402,-0.08900558745920932,0.045472028241822685,0.009618687878978387,0.07078748170009654,0.019589605141884636,0.00343652930865074,0.04424541356585635,0.04287291207050451,0.011104074245201427,-0.1073445619855675,0.027695137089797435,0.07305667796133537,-0.0043348745987738455,0.016893162962231766,-0.06960278968754187,0.032448431927633345,0.03028266556254583,-0.019012786956280937,0.01074577082366142,0.15965965083398834,0.10151435644079748,-0.03725186678122963,0.022189791054135367,0.09422066925529632,-0.03970965989312812,-0.0411284225442697,-0.02822933718719757,-0.08680648920083009,-0.017007805736058968,-0.013816226825089867,-0.012304419561392907,-0.014671357922878521,0.04946320178057289,-0.0007691295757016044,0.03961092227940796,0.028849545297870947,-0.025491103894319366,0.0590025704843693,-0.07357345769691312,0.034696923093515714,0.0012486737388196275,-0.06455043680456088,0.01403327219516597,-0.006168714960985772,0.03414310495209329,0.11668218337468012,-0.3081640904284306,-0.09320225526225015,-0.33249666144441253,-0.05082667882079612,-0.013908297348956159,0.27007990576844765,0.0006368002556015398,-0.008170026809393674,0.32420402760101547,0.069684349494823
79.13155364990234,0.9818954467773438,0.17541989890993126,-0.11458175894437837,0.19156448666435597,-0.1932422264030043,-0.00959761539681915,-0.04245072457058929,0.08962490658902356,-0.22435833973645936,0.03715289108555114,0.4255435381857385,0.07838632053317895,0.018878426577233907,0.23979373172712568,-0.06567169928309896,0.0359515629190386,-0.09615623558461736,-0.4175003377224685,-0.163396274747529,0.1799214007443651,-0.3222029751153682,0.26971683930251306,-0.043834637456127756,-0.13860536367870274,0.05725237085948912,0.2124696802656244,-0.08552227533796859,-0.021220937225052888,-0.09114770823213354,-0.12466415577672757,-0.0435586034578741,0.02403106222183453,-0.07750849711637135,0.2298981338264372,0.08300926543280486,-0.1577110190996584,0.02989861950037859,-0.054620731091160855,0.061372868931357606,-0.050264169391791,-0.039915501349286044,0.004517381315636546,-0.0798459782500925,0.0008877751363981997,-0.042457703078191106,0.05980618525614861,0.018051647990786446,-0.0023965572987468473,-0.005391986309583865,0.0034444723232377877,0.009904260258216177,-0.03283793322695299,0.03246224948683967,-0.07075077734092328,-0.04386843018048077,0.04695084570717143,0.0093438515798651,-0.05504522212688272,-0.04780806983328918,0.002758087195362177,0.05060048504735499,0.04482880252795972,0.06678827987060851,-0.08034929975239415,0.01312560244239077,-0.04012798295665084,0.04547593873443806,-0.06427351170513167,-0.01231664498378759,0.0457153517244672,-0.06132822273539854,0.01225959234559658,0.04050606821849215,0.012266524742573571,-0.0016771388820643607,-0.027300876816554527,-0.009425209326757724,-0.011187291878728828,0.008676035019713655,-0.051488742945857,0.008616461138955292,-0.0921910655062223,0.08138549916319342,0.017776404324096023,-0.1508074464071788,-0.04547001629218114,0.13615761979240648,0.1338388569052821,0.0938004217894965,0.029053669803832876,0.08747114197193705,-0.002945126888871939,-0.046572986239409336,0.1218737333729471,0.029742674226592283,-0.4669159241556629,0.013637712278596283,-0.2354956003097998,0.0018899966520348286,-0.05645608943471546,0.08466735849568746
80.11344909667969,0.9811019897460938,0.05804545099994882,-0.032185939843113937,-0.017000120933372637,0.3723738190803718,-0.3466067038981639,0.02327577340366202,-0.0025480524405684934,0.12040514421174761,0.021300713012288655,-0.08086903333200052,0.12347594323807867,-0.1056061327675892,-0.23227815110525357,0.18330708664092582,-0.281348611644907,0.13193992564254323,-0.03344235996906037,0.028497554587377297,-0.16824461315823805,-0.05037159051662765,0.18349954685585745,0.013092768367943108,0.06547387559174093,-0.0883578778876795,-0.017972944942704346,-0.12171485681953384,-0.14620817458970042,0.03275280561425427,0.01190139845675688,-0.0687070956859098,0.07681542199441756,-0.00602537433741223,-0.03626859496412902,0.028539224312443063,0.039913509588329274,-0.00032359316313843034,-0.09447860439121705,0.04357504463802565,-0.03511315861064859,-0.06402904085008292,0.03995714255973188,-0.023872869017605373,0.0065118531363806105,-0.03618976219918222,0.018679926256543525,-0.05988476481134545,-0.01601620141683567,-0.020005389500045836,-0.013549561494185222,0.051767987900476625,0.04425326395631465,0.03651337377891614,0.11935880832363874,0.11319959970539144,0.007783224134083185,-0.13088877407064586,-0.037907576590828496,-0.0249790843153275,-0.04050905076613254,-0.04580332929357759,-0.03502713760280664,-0.024765975643054203,-0.005774347181326951,0.002138114844247709,0.09556909318334811,-0.018601789631725492,0.01532295432025834,-0.009991072369110145,-0.04055321028767269,-0.061014848544939645,-0.006723050070183367,-0.043538946352816826,-0.0024742930595666552,0.014742715307511374,-0.00847751333866304,-0.0059411185327770165,0.045818369589150205,-0.03461017176607109,0.020798200015655223,-0.025165937024179776,0.03310197445606523,0.023983587657307355,-0.013017471280553597,-0.02133645910544326,-0.16363895998314648,-0.15436656018221953,0.014913958973960095,-0.0238421764793145,-0.18485780135153587,-0.11431198151491963,0.2114869310614228,-0.012183514794214353,0.16587373066583744,-0.14449295366700732,-0.1655119980038642,0.008492950942070226,-0.1551673242519801,-0.19663004592646124,-0.15317352080370564,-0.21331735979462063
81.09455108642578,1.0013961791992188,-0.06564889629419171,0.06752513034781915,-0.23581172759253885,0.10259167310962838,-0.3422619265538696,-0.5766110294081933,0.08214576765674593,0.11390676477424841,-0.34465692650562274,0.4020594777370092,0.2545753237602551,-0.17214081164586634,0.3688799734968673,0.010206665706726521,0.2887733480524367,-0.0448108332527269,-0.021878476056195452,0.35985916114209,0.19884218162454234,-0.47917330864401975,-0.11079270217225419,0.1988699957535584,0.14609254378446962,-0.14252701988495725,0.0888751245026925,0.22720895446123796,0.026931220756119707,0.05074559916814491,-0.11074083653247348,0.0771078258251988,0.07025187519273457,0.037535827099949876,-0.053422231071424485,0.01527092685380044,0.11143846760840095,-0.0036820455252211948,0.01859221483676811,0.02194138812402961,-0.0077415941949310115,0.024523869710228692,0.004007520621893632,0.012957080209302585,0.03800907511889739,-0.13033464546178325,-0.03510961233041545,-0.024466338586187096,0.02834505854716935,-0.02267848826916092,0.011750417984318572,0.0216103699307399,0.0036771203903750434,0.0439793329371824,0.008785386506718064,-0.002684523585619037,0.01619413965576171,-0.047215833995834434,0.03035077378227189,0.0053686360783875425,-0.03429212750067737,-0.022031978342461275,0.06537177177161428,-0.01690747506616766,0.0037124772103024955,0.00990190353405791,0.0345780097439601,0.06869218177174209,0.05576994637256316,0.07273654013470883,-0.007143169592857859,0.06836894840710152,-0.011304780872574263,-0.015922567672425447,0.04250777844884345,0.05469551337718987,0.013617890188695636,0.031212735428930067,0.0728310199398738,-0.008071561517694907,-0.0301796054245457,0.012604412764469521,-0.017619011719975534,-0.05322850257275718,0.06030061044931026,-0.04534216364793126,0.03784631364441675,-0.03589771539566606,0.1277998325912725,0.5013761224722327,0.014950901560478368,-0.03462028401886466,0.035220349207030155,0.23209017195458853,0.3979310994274061,-0.09188853699664869,0.34694887266782176,0.03872999522317894,-0.18710982787108915,-0.19863531656225378,-0.05139463681226452,-0.07452362125929152
82.095947265625,1.0015029907226562,-0.08594631887293143,-0.291438537278893,0.41193470004074184,0.12504150930566807,-0.5606335769506497,0.16328497215233856,0.32510089101051565,-0.06841279488521441,0.24573688705787466,0.08189756358720836,0.044876421029644634,-0.24040571172364386,0.0392129896408928,-0.03942144472372778,0.0746546179965902,-0.6553897097355157,0.03663225979167704,0.1426100918527082,-0.10712565804280293,0.09000630159039,0.03464031650325851,0.09661059054830272,0.10702429252242748,0.037478233078875434,0.004940299909947644,-0.2840933973729738,0.11702137249389444,-0.16169438275460205,0.12676056231444208,0.1560755268166152,-0.1157064028638091,-0.008638238244344803,-0.025557074459144978,-0.020772981653678444,-0.04161252411243915,0.042521033321552965,-0.007932915269919977,-0.012523618563303423,-0.08611358070811265,0.05835482282931822,0.004622024701781807,-0.05233704254475045,-0.0241168918960096,-0.03905033711622164,0.02102853094920142,0.05412394608603459,-0.0036349695444649666,0.05548081300507972,-0.007546067310746807,0.1290471528571942,0.0961760071207376,0.033710275578868173,-0.013935666839979984,-0.03838321688452155,-0.05965958266879419,0.02919263578078632,0.012282945121268637,0.14197584564807192,-0.0621909514713187,-0.030644300702551114,0.027304135668470814,0.01813163615046191,0.049254897866172494,0.0421759022407792,-0.03709689737027926,0.05957576339148212,0.020856925807630426,-0.027674253103656662,-0.003321644613072425,0.026102625351956333,0.06841629017907064,0.01865511465071267,-0.06426272009608433,-0.008380845949113147,-0.029468012266509528,-0.008937274194002406,-0.0477391020409794,-0.0016611463583306955,-0.017922512966583773,-0.02151306148934448,-0.011003074278205146,0.04290346281734063,0.030137998538139518,-0.006683908685028673,-0.0004088374324926453,0.02757288071852873,0.08549869083150824,-0.3066202524226741,-0.11433259357724841,-0.18953533018504393,0.04266591896078734,-0.05522969132916244,0.1848342492419725,0.24051351449227248,-0.03530998346872356,0.15577355164326812,0.1911480843792957,0.37402278653250254,0.16622716453631123,0.36215740614673053
86.13155364990234,1.0012969970703125,0.16429773717774038,0.09753029256019422,0.18450404890018152,0.0469236014824026,-0.0768392504400028,0.026697596598010687,-0.35013234793437076,-0.06743107946450873,0.08841726088018427,-0.0015564184076647324,-0.07345911539934008,0.20381490295259794,-0.3170368412813114,0.3690739329788679,-0.12203492245251442,-0.044763503171420305,-0.0639910065557111,-0.018920355771937562,0.039464533271180366,0.16027465198599597,0.24451015687825073,-0.020710109382675635,-0.03639919943295619,-0.04981578088015946,0.01879831611723023,-0.006418389210425897,-0.05517096244559043,-0.005346466251340332,0.0020912357285313293,-0.03650034411268662,-0.05030214134075458,-0.06115696763131344,-0.062917304856812,0.07157918604525423,0.05754018714113251,-0.07146552834332263,-0.03332796927959118,0.043899050612586074,0.02691246572216272,0.07329216241958025,-0.04167595775953701,-0.05722342145657465,-0.0031061627004627195,-0.0027143368948077127,-0.023897408601237465,-0.029468182277166563,0.026090257656002987,0.0028722051102475937,-0.01943794173373048,-0.01471051624399116,-0.014215283343645,0.09634808265231722,-0.0512073843638548,-0.03289109870327832,-0.04106693416298082,-0.056893118017897225,0.17206854389102902,0.1255757624696804,-0.023182192601910068,-0.00018099446088225973,-0.06549768753731605,0.0007276365904607188,0.022216536101724582,0.044434674408155225,0.08680833320474586,-0.01782514979623532,-0.023669808853725088,-0.033073471778492014,0.03644163925815347,0.008741728684981959,-0.054714243653002745,0.005043293643150963,0.005824444204742294,0.015227527982031246,-0.0007294815882347451,0.028602101438714233,0.06527128082536911,-0.015501012149726589,-0.018517829947083245,0.047959859909984255,-0.011930452455459591,-0.05109174194898455,0.05213873142394386,0.05148943475839083,0.047571486877104004,-0.1096828939866542,-0.03297381705905205,-0.2291453853589908,-0.31426379637492885,0.1822225891927969,-0.17270181426384612,-0.0345899052789201,-0.49574118157376496,0.21705849553687273,-0.3954030426224383,-0.6140044905927444,-0.1701795471666591,-0.07265682498824345,-0.2923578134102477,-0.09289165644845812
87.13285064697266,0.9813995361328125,-0.11525104519526985,-0.26008348156602684,0.2670889730232699,0.08781557604488185,0.052907758009758755,-0.10754748255636526,0.14313666883143872,-0.3657504591483677,0.15365323512983808,-0.15437517569888676,-0.07334406870472637,0.1960451499784075,0.10241475240213097,-0.18543373069502178,-0.04801932248690919,-0.11019338242729272,-0.20691361969329167,0.19935655614826744,0.09824421073521372,-0.004108068813475155,0.04830451320464285,0.04082143978621923,0.040940719495768635,0.043424474041465974,-0.031189003597988808,0.06339384472787357,0.16482230949279786,0.03644786877892085,0.029592094086229533,-0.084775731516482,0.00860281170353165,-0.030730584414816443,-0.0022519856165337283,-0.07787413918694822,-0.07795887522353265,0.007774209967438163,-0.014403183598595961,-0.028200488460808755,0.004505617026729796,-0.12303576421996651,-0.003324471601248744,0.056812628381281344,0.04600765394407111,-0.05280100655224272,-0.005165512716245775,0.03287745859739162,-0.018692182172081153,0.005593875161407659,-0.08580982229563308,-0.035719701167096427,-0.03697979029592644,0.007241955777179607,-0.05575016827347318,0.13602604124705753,-0.029475456219135457,0.006835495078309026,0.005070591350325194,0.02077313589196768,0.06369752035215322,0.015090391157850602,-0.010481906139198058,-0.005728695473308946,-0.026422806527540733,-0.08329854586646643,-0.0022377800874564787,0.0052399165991720755,-0.07726419765758832,0.004479742094750543,-0.025173695936170415,0.01642381566999951,-0.02962374506736918,-0.07569996892065145,0.033505620219172805,0.018340595712321984,0.06465271955877686,-0.06378135264414143,0.0729056615997098,0.0537192025829759,0.006846964808934,0.005624501850988058,0.012212216686093125,-0.028898944492961088,-0.04309831496414258,0.04839135179684264,-0.04166939574731425,0.15115693605257308,0.22036988567278848,0.19413048188385654,-0.029585619854004652,0.012297158510845946,-0.25968236538901057,0.06943835905035584,-0.13962962188328154,0.039396155249091055,0.372389230210311,-0.05616058476285666,-0.08563768512723222,0.001703651903074782,0.02737968713362679,0.13277351864864356
88.11425018310547,0.971099853515625,0.12611977859471868,-0.10646764935096702,0.11232929084135669,0.021065005206666907,-0.09398700824501652,0.12324925176564654,0.05076848426041777,-0.10690367472318252,0.21499240629001656,0.14357387543786188,0.09558013257003624,-0.13018468261083796,0.5356100010834434,0.048007210845526074,0.1910982855117624,-0.19497123736542427,0.10533640034983634,0.0009348489817872022,0.017939321212973647,-0.0024990708951260487,0.12478825296330799,0.01642594737483033,-0.15512445815362064,0.10596749427086595,0.11873635453212464,0.04900288742931016,-0.015331411177296155,-0.009308665548812739,-0.036027283395456355,0.048701779207048816,-0.02392975629459401,-0.0018371948878441796,-0.03724128613458681,0.019985706468084043,0.0298647813365856,-0.06268006970616848,0.08534914035218216,0.06299288851476238,0.055803760593765975,0.012467101990205369,0.0037605960908310347,0.08964321030061237,-0.005952280271946071,-0.04149599879077977,-0.03399268791943242,-0.045548246262683875,0.05967960653740191,0.0020315505602633566,0.1069570780390981,-0.023874924937463536,-0.0829722310660723,0.050107832620972265,0.04315241257908607,0.13381304210094414,0.05410652656640169,0.026977477427293183,0.06734419454389162,-0.11932158787532818,0.010802592662729933,-0.05430461328054555,0.00259311690616279,0.054040468999207364,-0.045720691922276006,-0.055025423724614345,0.0514187169165351,0.03964367918085469,-0.012137724845307778,0.003187482712603629,0.042314159442223165,-0.02619441486345447,-0.04575844678115321,0.019003696936012622,-0.011393224621278612,-0.021436894360097266,-0.02028408826403686,-0.04421457287279042,0.06823850559986448,0.006136813212027174,-0.029622427722065588,0.07551096620800807,0.025772939619151686,0.031931359153382396,0.029498036787705767,-0.04147073235686602,0.1555588228627751,0.07487192356231111,0.07650669690676215,0.018647831016380928,-0.3435244126316208,0.5435957433422739,-0.01505840437921896,0.6147829441792624,0.14844858212598042,0.06384848374670271,-0.17658630000427827,-0.04929838226644204,0.46261062934121944,-0.423542365345149,-0.06086418440155451,-0.05062851657086395
89.0853500366211,0.9814987182617188,-0.04570145821181284,-0.02326400829059466,0.1860398540625539,0.10168797199555785,0.005583975081893636,-0.22533421416482052,0.05071783455394306,0.12880146842813878,0.035971234367918666,0.1405910082200193,-0.016080169302543537,-0.13960520171824453,0.006450680264235287,-0.07020277295251703,-0.04854867879117042,0.14520319841915144,0.06293244365672339,-0.033709657241420395,0.04112893081353206,-0.10464255696505935,-0.054456940257725975,0.11823056116592603,-0.08374993058053853,-0.2081426360586351,-0.08812068121348798,0.14818503409926995,-0.09222118368103543,-0.17053790416069597,0.03167934117546478,0.07199982988435999,0.017578768243180665,0.02927230161973944,0.30750799586068767,0.06290449236016411,-0.11379430156314213,-0.0618222007890404,-0.02989812932441438,0.08743710221062682,0.16794788466060775,-0.004564290871540708,-0.023661113495136443,0.016910399245892337,-0.02579399707090505,-0.12141182878152768,-0.02933969140785999,0.02631120677312476,-0.014379720549000162,0.008951316737301318,-0.0053385840004587515,0.016312898714139334,0.026239402559700455,-0.060043288660010935,0.04224764900165638,0.04830509267326051,-0.04469145788416814,-0.10281242421292285,0.014261072190991776,-0.014244356952929457,-0.07134664116990487,-0.0700403398651109,-0.06253048531500349,-0.007861968254655708,-0.010717974282994426,0.00998547604329951,0.04277957602129751,-0.04688430352076216,-0.028058786065830975,-0.010538554962743099,0.025012423758337492,0.06779699746102705,-0.030980546035359182,-0.04586320560374735,-0.017397750260687753,0.02673238027634776,-0.09538411388506451,0.008896563852627933,0.015607526564205339,-0.04153593296415185,0.019826852389144986,-0.04227975406781302,-0.018184837618885494,0.0225451041393061,0.009804858566392294,0.14144832427898965,0.07054375510662572,0.1519525458443676,-0.0314609365499765,-0.07393321285609558,0.021479718931330674,0.4456390273831515,-0.026517188990777478,-0.49121053863526604,0.2603216729858743,-0.07792539425934689,0.3163757010063856,-0.05551713177809225,-0.0680671302656323,0.1952922083932605,-0.14136183829117382,0.25053504790436243
90.06684875488281,0.9711990356445312,0.18796693591649577,-0.07525500955238816,0.03328228546761733,-0.13374115547351892,-0.05899505650651862,-0.11437140977445379,0.007944851717705134,-0.01901452469461444,0.33279257784123983,0.08525687712511676,-0.014047370721204475,0.08016647064388041,-0.05776698636012311,0.3291948398959517,-0.03888217570105247,0.14856369997607913,-0.05603039971768948,0.1083975480293724,-0.14848873049604186,-0.13446209882521326,-0.011093851082377058,-0.0292248410547418,-0.05334535216630952,-0.00036621658111045396,-0.05793078650205731,-0.009447237579480985,-0.00407760803977256,0.1716246277373364,0.04227855402762591,-0.027653319044442,0.1053590330518133,-0.04956797574772806,-0.22573801488687173,0.04436032978265497,-0.004725433682901681,0.12258104714731208,0.01787627396083194,0.04082683040634147,-0.011951895685917192,0.01332255481709147,0.06215955620435508,0.030773487023195243,0.00047042861002818265,-0.02839973934104905,-0.008380468697253696,0.013512933040503793,0.031139393926464243,0.010396085231982181,-0.012488670436632723,0.003908638209245554,-0.02599276645722178,-0.005805987942301668,0.024480629487780608,-0.040432583119783025,0.09019257301510822,-0.10721254867750717,0.10311379079414956,0.07309505378699281,-0.009442961106959604,0.1752589336938321,0.07194837815788675,0.0464567996172526,0.06805141512235843,0.06031786634098215,0.028571903143447548,0.030617933197187773,0.08311365603223984,-0.041089662615257955,0.0441178876130297,0.01688720643141778,-0.05038858258669808,-0.010336331977210386,0.05324440887854806,-0.0006826795578351458,0.006855231492333922,-0.07912690861019223,-0.06424920184298628,0.0673476618086607,0.006833230230955673,-0.06334596287025085,-0.051864791093479655,-0.006016124397741645,0.024272983543119075,5.256396131146299e-05,0.1149605061454949,0.32901692765622925,-0.04841428414064297,0.18739588113182237,0.3003970575414863,0.059798335865154324,-0.17940611486851166,-0.14483587176620524,0.22254082700863964,0.010664364225741397,-0.04609354291757579,0.2751449792742683,0.626603358240115,0.03697715815960803,-0.02523241986842259,-0.2219281404985373
91.03804779052734,0.9709014892578125,-0.22289435024328774,-0.19301361576974382,-0.0811421818821085,-0.08633701104417027,-0.21324080537406317,0.22870131032354044,-0.06140136646760044,0.013149963120986097,0.30753273322547453,-0.1421331079554445,0.24109463250846844,-0.04697108170423477,-0.042813416465907556,-0.25016324980631166,-0.007862459239058955,-0.12574914442348675,-0.002477963589935574,-0.1376295662790206,-0.13020895168883403,-0.05191226059728897,0.06805966398013742,-0.05523662186577695,-0.007972180328957829,-0.01744306136079625,-0.05617846493143637,0.10255995442255722,0.013346730620236696,0.021440778173870384,-0.04143737019112477,-0.15428827491915964,0.07108329097947054,-0.0006122420481763508,0.012119470695259375,0.029842897929383994,0.0750509532711099,-0.039751532767539406,0.014570559303490029,0.03320817083089313,-0.037829670785069915,0.03648111281628389,0.08693373681193262,-0.02292660804816198,0.057709242348231375,0.04990106767874195,0.08676209690777131,-0.057166307708787334,0.10278155241212386,-0.04484306376668964,-0.0329673500269155,0.02589109856023697,-0.01672315699547173,0.08378828260030109,-0.09155330152478491,-0.10250107192738417,0.0005116279605184987,0.09155813691467198,-0.06643223341802566,-0.09598870097307455,0.061267221571294564,0.007740634764603179,-0.004588182074926339,0.06790827881447371,-0.024956910451538784,0.09311482228218856,-0.04075625279181774,-0.027372068450479764,-0.03729830972352826,0.024838374690043272,0.01999025363277098,0.02459698191754717,0.025310497032891212,-0.061684191889087164,0.015341317341507784,0.029523339071510352,-0.059080958570787,-0.3775591603399456,-0.046406073163637394,-0.00902296581573111,0.04160506508172977,0.03838612637963634,-0.026075865346224393,-0.015356927615171854,0.07913458739588382,0.11335059493486141,-0.12021407827753319,0.22474453269224606,0.0015761087294815027,-0.06795680441707823,0.4440843564595677,-0.22837207183765396,0.15463047207280756,-1.2208327222148019,-0.190153364940138,0.3296620847563298,0.04331247330876722,0.1645640162682594,-0.32974252856733055,0.1567754029863293,0.3435036339188937,0.06638476916197904
92.00894927978516,0.99169921875,0.03482069434174217,-0.03956751383136482,0.04666544717254575,0.10254332096761427,-0.24240662925102627,-0.13423864733950489,0.362213783535668,0.19163669601722427,0.0209930475417075,-0.5251884601713821,0.032874156173754554,0.1416583839248586,-0.12990608756210958,-0.023088774031850313,0.057725755612172164,-0.032479283995615615,0.28143465266703827,0.2801547467169015,-0.19761785335450457,0.1779511187029604,-0.20454587412365077,-0.04575781962811865,0.07174489552409262,0.13035446949926438,0.15907310820176873,0.5141121908866326,-0.041282899082556765,-0.18777449126813567,-0.4988260356973908,0.02178516276552394,0.19406931384466386,0.07880008397150252,0.036997207050771364,0.04016729302876424,0.12443766571049703,0.05734902107562716,-0.09733390285771297,-0.1284590646278421,0.1094422054472706,-0.08833382211630122,-0.07554444411495832,-0.06125982344755024,-0.01822870888491609,0.02604489638874231,2.1552512395023316e-05,0.00988086801592309,0.04907990337532281,-0.011501584424923383,0.01026552752892868,0.030910016969866127,-0.03593687723255514,0.007225809867839843,-0.000869611543441895,-0.08477318065319683,-0.021629404493008188,-0.022876200362621533,-0.012900050188058917,0.02420519741705504,-0.01776684483213835,0.002368913323053165,-0.03495811510932266,0.0036808191651138186,-0.016819091899431607,-0.03218351051124049,-0.004445224546332194,-0.06652603419276558,-0.031715496666415786,0.008643812357472807,0.034603264928388486,0.0698762504561357,0.024133061298826412,0.022098478224483867,0.019946731674838458,-0.029542962446601,0.060193302823438814,0.03714180831833698,0.03904446097674403,-0.047761042017033226,0.006795808654244677,-0.01429597964428199,-0.012652581817217824,0.06513653178565769,-0.05692791061122163,-0.11806336804717255,-0.18646976670087584,-0.006848619907593447,0.03342657753088805,-0.7177072964881134,-0.35239690899706366,-0.1289106645370797,-0.0034952470653802983,-0.7096906302438817,0.1534910667167982,-0.6058544588992416,0.1721825124616382,-0.2533422943774061,0.251082642916245,-0.2737555762673033,0.12676885383433,-0.10360830431067204
93.00064849853516,0.9613037109375,-0.02633566809976215,-0.1276024521687132,-0.08351523276796065,-0.08564488807148854,0.3685927207922488,-0.18062664880529572,-0.16763030993340647,0.23568793097683205,0.5159419542245955,-0.10724431882253242,0.09229962945189657,-0.06062431038596354,0.06028384512647632,0.1973076853563953,0.17943354027077654,0.12646818868649318,0.27138465752289725,0.005452264257005596,0.14538526568288723,0.0267851534410581,-0.06622617970466077,0.008482943691068556,0.20798927743740353,0.05585996978201267,-0.05429314101421411,-0.1495310999819689,-0.10667656558890018,0.04814357748993929,0.060778640649265914,-0.05620430255439059,-0.002407796013437824,-0.22095265074607312,-0.06594266947054982,0.006792771395368122,-0.0467621917524713,0.02095289711339465,0.019820234159294056,-0.008148412998775497,0.06930405226927493,0.03478490137908887,-0.03426969337992712,0.02961903596100082,-0.00371304625255403,-0.027315591657688307,-0.02378283740040551,0.045592563747674605,0.0684052255861745,0.03308754397860608,-0.030403608481683622,-0.02411019093346295,-0.052926922009282035,0.07662266644750727,-0.07429254872773322,0.03683150985867564,-0.011306688073202086,0.04776752433781358,0.0711767253823507,0.03986605675457145,-0.031586982621184055,-0.004305075193625475,0.04533076067201687,0.07263877195863079,0.0044021470496802394,0.016195121043504162,0.017854435641284576,-0.08147531728326676,-0.029032771579146008,0.01703749824489891,-0.01339232104585461,0.007405890730089381,-0.05373549862113915,-0.0178026830971505,-0.04224418627569622,-0.0296923384389249,-0.053600180899923286,0.06704125291953311,-0.08291080951284562,-0.025815719623886634,-0.007469665545800811,0.01873491503461292,0.045283906492699665,0.011848919376718803,-0.049998975138698665,-0.04993740772492085,-0.09159737513047787,-0.1414077748868628,-0.12414680049539838,-0.3907290547326492,-0.0320021531326795,0.03787557306486322,0.19673671681207308,0.010216047612627694,0.32108861579398235,-0.2777866006096125,-0.2580943757129076,-0.16097745030171048,-0.04015431327716868,-0.041639357958867466,0.31152885488304805,-0.12804747811245584
93.96195220947266,0.961395263671875,-0.17323223343987604,0.14328391656581435,0.16496625723698455,-0.09550706375813937,0.010121899121172055,-0.2677774796443306,0.28840862298006753,0.2699546393295485,-0.13843084622382934,0.12329948210912975,0.07661752376647868,-0.0275981767199572,-0.061988902073590715,0.10189766717758078,0.025944821652080965,0.4133185753542598,0.19088381243549632,-0.07529497201112058,-0.37468324267751957,0.21674244924373598,0.11778247803860048,0.12003599460566791,-0.038262435888495996,0.10192336626600003,0.009120403043241281,0.1014777714880013,0.10071989715052473,-0.022501131299182187,-0.04509092770249998,0.04505849236858555,0.05272999973759766,-0.03686699376928064,0.00644070296868687,0.05647812206456731,-0.020665617436666228,-0.11487300999568856,0.036832467383418964,0.01789784537327592,0.028356983791504142,0.013327562453104472,0.0644433078404714,-0.003103544133910615,0.001653696023402069,0.006286670708418759,-0.031670509200602395,0.03766330900373613,0.02689073025114252,-0.02908744383077066,0.003746921616015945,-0.04074305051797685,0.039557192966037616,-0.0105798446050195,-0.022702188134184884,-0.09307759772182059,0.10111104605532079,-0.015251812588587536,0.12607651499329314,-0.056169864292068244,0.0022301987072426213,0.0343599963162624,-0.03601716061178924,0.00457863778847481,0.06783665411884872,-0.014079689817960126,-0.08412276607703716,-0.038027904925022,0.02125588898036401,0.014601191210076189,0.015661597643415272,-0.011959151306479579,-0.06835269832941643,0.007144784905055488,-0.07232736718938819,0.012547323644892644,0.04907582074971708,-0.020765815797653717,-0.005539702814825909,0.006962794092644598,-0.010276691654678718,0.04840856537548067,-0.023950302028941214,-0.00792172953534009,-0.03514199516018216,0.10585279206644857,0.14536403245490068,0.29783055160989896,-0.12385139249720936,0.09363596188259098,0.07916754198757686,-0.1527452348025942,0.16829973598113118,-0.3432220846826201,-0.19657715133177714,0.17125279724641074,-0.021888689107726105,0.2355205603192118,-0.07647285900293065,0.18180216821972184,0.1357203491972082,0.0008374186113486309
94.92334747314453,1.0009002685546875,-0.016418315594777196,-0.07512831607958484,-0.013558770618910806,-0.04702747338263009,-0.23029516537982317,-0.23751217636183444,0.17876004933052353,0.1970427217653148,0.15324785983624606,0.1353013588315667,-0.1573240790963369,-0.017896068991723288,-0.10557936504026641,-0.07499405088599842,0.030342809664128494,0.025476639972941358,-0.13851331748176496,-0.2295538546906025,0.021745292581124745,-0.04722053882619187,-0.015875728478686305,0.13092599661189575,-0.04642911138769212,0.01012827415466691,-0.04032928591059384,0.20879357315234365,0.2731511743168863,-0.08202320763696272,0.03847856143726357,0.10052284137911141,0.3040597230626346,0.10538552687159795,-0.01035404032413679,0.0224600295421135,-0.02699329399485216,0.3394909416906383,0.16501732105563066,-0.0032062708890490538,0.15660206672603677,0.1923435824973546,-0.29221060636574764,0.12383133854330199,-0.10391565010657632,-0.10908170998707434,0.04502394740151235,-0.061267052397548226,-0.09105662915283497,0.02622161016526732,0.028021701597730365,0.08677888140059471,-0.100873671693007,-0.0053016532521333,0.06615236728187993,-0.11360189926956642,-0.028387816024205682,0.009770228464764663,0.13482006081963072,-0.04545515845180436,0.06139031943185194,0.14764001035018337,0.030422488187849775,-0.009531544264842082,0.0318712596172465,-0.014737184555687762,-0.024085897051552924,0.0952917343725864,0.03670359153485489,0.00012078016935351875,0.03068174468183369,0.05606782278225508,-0.010493106299001619,-0.0003910719576129644,0.06410478634905428,-0.009440000866688355,-0.037346855216043764,0.06440603055821602,0.007032503620060787,-0.005619003723123657,0.040407507760364926,0.01005049815880349,-0.004903021279599803,0.044189315368960445,0.01625473226284964,-0.23404568194106495,-0.045682798901790916,-0.15057739838570158,-0.015274991159702624,0.1474196708081295,0.092290851482567,0.03206911005677755,-0.019906364096991896,-0.20773501332434852,-0.08914963142616891,0.053691077503803655,-0.022047154841481755,0.12424533702326425,-0.25382730950373045,-0.07394686069700944,-0.1565919259751543,0.03914465616376692
95.92424774169922,1.0315017700195312,-0.16614993950694712,0.12962113139178982,0.10259258027672641,-0.0870825712692508,-0.1434218870948153,0.13367895912379318,0.09183791748083818,-0.03651630210240808,-0.07525226124120271,-0.1545630306495014,0.02065845730037827,-0.015018231170648627,-0.28637774524490595,0.3577327386012729,0.05941783079270433,0.20812518969010585,0.11008008075124674,-0.04798852473884954,-0.04989651540040021,0.12888082357958838,0.007651809144790009,0.07756234053896333,0.03769867673654212,0.2175008148506903,0.04084793950311138,-0.0015774796542872278,-0.028100446532365334,-0.001992147863111495,-0.015736240139154457,-0.10724175944922286,0.054219396861718394,-0.11803919106636644,-0.03845398226414554,0.056540537570802296,0.07661472690522389,0.010885377692894084,0.05734860527778313,-0.052734391342231304,-0.0394643763786838,0.009454410245259197,-0.03966368432022803,0.015786108851220247,-0.01610102376544513,-0.02191546163344031,-0.07461119565260886,0.0010951021364640472,0.020890166714587842,-0.010705484593896603,0.008166636461592259,0.003267895028906046,-0.022772225668327976,0.017710549266288723,-0.01824974006868097,0.003366960348248571,0.04909615549608951,-0.0019152064361973155,-0.06073751925689595,0.055744085276755555,0.050462141008513,-0.03943503545970547,0.024968969893019284,0.016085920782001804,0.040382584345951794,0.060016885245570334,0.0032671982774752847,0.07558202839642136,0.010696334253846446,-0.01962167913811683,0.03028743847799755,0.03044591732563936,0.04752178722994978,-0.017763404449246466,-0.03590874976688406,-0.006970418390187388,-0.024132290736693485,0.012112687440202495,0.0041513029369234945,0.05013077224398238,0.009725823045255188,-0.02825423798439861,-0.051565477061679965,0.0007267253084444168,0.009834101233727308,-0.03893458536347851,-0.12354313613362482,-0.022915152680706027,0.051241252006389744,-0.2859758835519161,-0.474972577308682,0.1551338004955508,-0.19121422699214963,0.05435488520490053,-0.12019945778056854,-0.04132105648721445,-0.18605017291073658,0.047167350346804915,-0.2896880701522771,0.20218066568988405,-0.03811597743236153,0.11381960684434972
96.95574951171875,1.031402587890625,0.04938678226573416,0.1449124153361298,0.053292452831095835,-0.05497313355109534,0.10855886010246803,0.1701121935660793,0.06836401470292536,0.22188084632272337,0.1464756438607072,-0.28155648580192155,-0.11040221407046037,-0.22047767631844362,0.13036181308268785,-0.08926729667170484,0.04792974924227171,0.06165752638863664,0.10656791987765304,-0.23818013343730265,-0.24369772715431123,0.33679230778568503,-0.1725414695642754,0.07213760183945588,-0.1320992832700184,0.055618635247414804,-0.010019449354318977,-0.039203347276616125,-0.03293897021810224,-0.07346802801619876,0.005117330603025902,0.05883902676447034,0.02205899321404292,0.01615286384144122,-0.06382997318510417,-0.05030349717644634,-0.019367385933396902,0.0037627731690695054,-0.03783193987272569,-0.051350427792408504,0.03701688271847643,0.0697188358953825,-0.01807813360667635,0.04790446499930561,0.1039810247072904,-0.007993397555589185,0.0035564534944127583,-0.009625396096490602,0.10223976220204829,0.025915842940454185,-0.03129702644433568,0.05316325801624314,-0.04829113943527373,0.040512948579161476,0.038020255595825156,0.08242420200742824,0.0008278332318408447,0.05349705003375801,0.04753839255951828,0.02609358680726248,-0.0624594947495404,0.031447766244609675,0.0497955205672208,-0.0025344311247803794,-0.09278817323730976,-0.05779298073253279,-0.020916718826548178,0.07825264951350001,0.06255761381026677,0.005477193422868984,-0.032311856324866176,0.11000834690581215,-0.026893470243772238,-0.00613451709368993,-0.011515871613862527,0.04861782934809154,0.05858894008104665,0.030989203733327583,0.0672434040219686,-0.056053480954106887,0.04419594573865328,0.015394393800587259,0.007014811198483113,-0.06447676079024173,-0.04491048762214453,0.012331854130044805,0.00874432011583667,-0.08332362967603572,0.013478160476071699,0.042715554519877304,0.008295439574674702,0.001918266339312333,-0.010609843916035908,0.23637529926102685,-0.053704037977635816,-0.033329670717861956,0.06313950957883323,0.13108560753469545,-0.20841778178424514,-0.011237241998399858,-0.03527145279087827,-0.02062311970752967
97.98715209960938,0.981201171875,-0.0195981571384162,0.22341722290855187,0.06197218153056529,-0.3385863282651927,-0.3203974017599077,-0.24014707200466445,0.3685635369029116,-0.002340153794358993,0.0014180049097138048,-0.03706294667873178,0.5502005422119418,-0.04174396223350747,0.06980024529344984,0.48053054601240786,0.059655535509052005,-0.12426143456584826,0.01533033383204898,-0.5425879576040548,-0.41052219772526555,-0.2554681313028514,0.1891217444417383,0.23050752055505402,0.0635534422541844,0.04225849670620348,0.036892698679104476,0.3830740890624624,-0.14723038553840542,-0.08636036237837909,-0.08825448808463746,-0.09723135830988988,0.06866580136199725,0.06014288595443576,0.02835044990464272,-0.04771364977983468,-0.0360357726706066,-0.0016597089631645496,-0.027695910413118058,0.05646960481877661,-0.037841242250846396,0.01604824725030144,0.019880972890597426,-0.0030863541516343955,0.029685552822025785,0.00932306098350061,-0.023838754914333897,0.03137297082848222,-0.019726291981906154,-0.08446069038122225,-0.006041679430112872,0.015976142017662315,-0.08797091726864895,-0.030187704789453255,0.0051373507899486045,0.01322543941258138,-0.011252974684102426,0.024822256500286133,-0.01948048859317203,0.06948859137303745,-0.008108552876781576,0.01703880466934915,-0.08855647697302953,-0.08342792255202182,-0.030866600335219194,0.12387702710264341,0.0319480764178674,0.02303912624606721,-0.008868060094505584,0.0026334191674833693,-0.07855613667594782,-0.03388969513443173,0.0329019166011701,0.03230990302994581,-0.04881227093316629,-0.022985908972068952,0.0021834909511218516,-0.02642729862486775,0.016429052320836725,0.03992452353472979,0.015941508051863097,0.06030015602420369,-0.0041407667479468,-0.010608407065462792,0.030877661278531417,0.04896872223190921,0.030481719764299135,0.058531021785169925,0.057440695641466456,-0.044516000504889075,-0.0010031222933362394,0.12707900225038987,-0.08243992837956379,-0.03277579270704317,-0.018118431994977854,-0.007050940207908161,0.06034054289397107,-0.14886912747785733,0.0745268241529392,0.18285707981216975,-0.17423137373621875,0.06915025834547517
98.96835327148438,1.0112991333007812,-0.21533934500411,0.18829025930737198,0.20844490013488004,-0.21554033051834237,0.06266514010972453,0.056949885250896476,0.4756165870647865,-0.0924704268201815,0.030921054015956555,0.1231641841061504,0.6539181034475599,0.20307108879198085,0.03816399811906793,0.06133421720168615,-0.04187405461528465,-0.012229496969749634,-0.219057853220604,-0.10269930577059477,-0.3099904407942984,0.2032215364699157,0.01354834207975554,-0.010032490169082703,0.011226637138553897,0.16347659350605126,0.02308262424999641,-0.000502596286441212,0.07389216420056217,-0.024025009559355423,0.08528586001922564,-0.12399035587765136,-0.07434033323405452,0.050626359592413434,0.06594100434844805,-0.03393482398895628,-0.01437657722230206,0.0013813519383839828,-0.05682988912909041,-0.04855144616749421,0.047516103867120525,-0.024490619755014095,0.019605523940628252,0.03033836751972545,-0.017651171291758402,0.008903793301985402,-0.004346663032306889,0.005808300744474545,0.019295654633367597,0.014026847456569333,-0.06072806081590063,0.03239258719226202,-0.015973618604341662,0.043347962875609394,-0.03446042291248358,-0.10074971202980454,0.14321816475400745,-0.0386636981343216,-0.06784746366251412,0.06492256584790244,-0.04043293445995322,-0.04825636432738896,0.05049780025092202,0.039474712635043985,0.008007377634217886,-0.009390605348277868,0.062135705361609866,-0.054348822142767275,0.020172746190887773,-0.07061454849415975,-0.030307841604108945,0.05611160602101825,0.03675273857796802,-0.040457835420174254,-0.004439367013306794,0.006257234392361304,0.0031314572924435596,-0.0026892367043154716,-0.03893787355712651,0.017192721153011,0.010450272847121342,0.02422819121660841,0.01247432299439737,-0.012714845587851163,0.051622115332387586,-0.0008361831700903835,0.029783351107546506,0.049214077457307784,-0.02555611516166532,0.20504793418329012,-0.0146981899209274,-0.13783472540651082,-0.08590333827668326,-0.608055105767442,0.05969746849062554,0.07073413316668133,-0.18923322836860418,0.13107313329819367,-0.06688674973206156,0.4621424884486173,-0.0854690495837829,-0.07559128291443865
99.97965240478516,0.9816970825195312,-0.21604848205217758,0.15696320798189747,-0.1569903350417369,-0.1584388055404474,0.1712893991326941,0.019634281722373234,0.06964725122646476,0.14586739878408833,0.38995288630709557,0.8949044457344033,0.02397025738898184,0.4790110606388728,-0.11271379094650485,-0.21253300401676145,-0.508231578374794,0.2991088780848483,-0.07023179274489823,0.20183336528146295,-0.09149352353133863,0.09097507802501166,0.15033299026676844,0.06751022382645662,-0.08572965772348981,-0.01612243615249484,-0.07611758942043911,0.14812875201374293,0.1593242343548698,-0.049205951058523406,-0.0043333367407890535,0.0327890417251481,0.05232175997428672,-0.005514127066620642,0.03819760721957809,0.018839133304455524,-0.024897668998518058,-0.07285026743992999,-0.002601855162634427,-0.04816630319249214,-0.03267350950060435,0.02530249934774459,0.05077168728687901,-0.040268184324973616,-0.05604185643539149,0.012897575815033537,0.04163581194310216,-0.04570408349806608,0.022338807293061955,0.016395045910769485,-0.007490663220401652,0.015996882152248596,-0.06106713420137658,-0.004129658427962258,-0.025379973417495375,0.03182523082147967,-0.03719174870576947,0.015539942395684889,-0.07443968400897262,-0.004818051318196147,-0.03308977827961654,-0.0160148899665932,-0.13682032749967837,0.06161879907538243,-0.06508916184420606,0.056644358401764176,-0.025838373839976236,-0.02866437706971346,-0.0714799475494055,-0.07446165544685099,0.017378040433072946,-0.014767452462924009,0.03333290695827073,-0.01943593404531159,0.05331960315862251,-0.002505578171902327,-0.002129335386081118,0.025916838689800673,0.012197103303598921,-0.0074587483373555405,-0.03502467865602545,-0.002693200130562189,-0.02562274221891322,0.04433091221920755,-0.031074485257610175,0.04426612883387196,-0.12266805498497346,0.028388999540494852,0.046090934351997556,0.11405544382451792,0.28500671846528197,-0.12995549736117212,0.18876651676137404,-0.34662093727151394,-0.7474648210142858,0.011391251762490368,-0.026206795140372174,-0.008226217991634302,-0.04792385041820097,-0.07765833449925215,0.0767342046636862,0.049609157922499356
100.96134948730469,1.0317001342773438,-0.001681162427069244,-0.14349611927895303,0.14933813767831156,0.09680689785428,0.02875037594182431,0.024639539675992164,-0.06041480992359054,-0.00804335752052064,-0.3176149507870345,-0.018794381819814528,-0.23652954935306875,-0.3013834712424076,0.22030933662389685,-0.06737762647146825,0.12381831708520444,0.15933970193343616,-0.0029055410857520836,0.07401058625030536,0.3827853771039667,0.07253362395956925,0.1091143825191669,0.075902652082542,0.09562361584316327,0.029988431318755046,-0.012114384868954676,-0.1108883873439534,0.06553514016583328,0.0993188157088416,-0.029347475238507018,0.031059304657587314,0.03437730478699342,-0.019065964345582345,-0.0685369032495136,0.08720741079906298,0.03285388203455899,0.06127508017712729,0.038547629633702944,0.05552343189866013,0.001281684421732177,0.008110247405875876,0.023567523991057743,0.07054769815487374,-0.04207792307040263,-0.07039644273340359,0.01358490816285747,-0.061135323325476616,0.020845622499521602,-0.04925886001643286,-0.020128479987932525,0.027229156670063336,0.0518887131280027,-0.016947092266466332,-0.060599800003830515,-0.06198621391681688,0.007470721782999773,-0.021901764119954543,-0.08177516471694946,-0.11108727767630694,-0.001656559146020946,0.005915073025442877,-0.0006075477720037109,0.045845304111116175,-0.013785121450906834,-0.0010477235993932021,-0.007764449701164348,0.0731679649757848,-0.006804002216676106,0.03779023514021376,-0.01091116662835729,0.007899988039067132,0.05987345488485407,-0.008011924768044295,0.04827665328566169,0.026979832123189988,0.05924612292164709,0.05164931888366235,-0.007080471653218271,0.0016395832012884026,0.05049089822567523,-0.056089316128323824,-0.015911436667426806,0.04891438280078775,0.012452651784419051,-0.03075929184538111,0.027238780179502733,0.04504264462643828,-0.13011199528179127,0.060498355189945716,-0.2000141705068981,-0.19019166079615715,0.17661084810467176,-0.04921226407800505,-0.01433840216505153,0.3479446555943157,0.3443559690755433,-0.22079313999091874,0.23291700452748615,0.038699047732487925,-0.08251309942781092,0.008210159236016923
101.99304962158203,1.0011978149414062,-0.14243266099999213,-0.06940548518043958,-0.1407668989226033,-0.17300122383376854,-0.20588306980922097,0.1689247523621801,-0.1939926695185315,-0.06715810807265754,0.06620548684588007,0.0905884163866571,0.10923009557040031,-0.08594663405698064,0.3072105334375149,0.09759394608223933,-0.02328776567599369,-0.1880470817656612,0.06301570713721524,-0.10372596860706888,-0.06416059553725426,-0.12300865519859935,-0.010204982871666197,-0.16929891949880857,0.07926894882990926,0.0395150442433572,0.12454614488484092,-0.009646832538728983,0.03969610329159798,0.09605267820034896,0.07923064272875928,0.03553894345895828,-0.04757768881753381,0.07716843206474709,0.012920274734119774,-0.0851199752147868,0.04270961491774017,-0.020015506578375156,-0.06811366101238753,-0.04534396721253045,0.039994658237471684,-0.0024882961606890494,-0.04381522807535929,-0.033535338123519984,-0.05466778986616135,0.02825071830891082,0.04324739697981609,-0.07916519559528935,0.023507236602835577,-0.05925986158364502,-0.05092500269130694,0.038925006024810006,0.010986931432896807,-0.006514662116846178,-0.05275664722891899,0.17633164118837136,0.1922729677869383,-0.10753334801441533,0.19505729974851044,0.19359357225759427,0.15091940747058152,-0.0656236849769028,-0.03363270562704895,0.06855449998027784,-0.02133836554251659,-0.01408586441165717,0.05769180063771335,0.030964300830436463,-0.01427775389390986,-0.04000725494845252,0.0016424367834574015,0.014518726720622412,-0.05186514179416809,0.03224771397144105,-0.04684487771765684,-0.04480107853411791,0.013974584496236947,-0.028626442929104073,0.04459531300839136,0.03894196789240964,0.004549790023301306,-0.03845201690229296,-0.031439261056218346,0.021621210258840895,0.004056498789727091,-0.008374139498040577,0.027373913957253464,0.036528760594514015,-0.08543702871945356,0.12388740949677379,-0.07669658059001944,-0.05206774491149534,-0.15536697885519923,0.08173169817401311,-0.12631508917679135,0.11402242108304261,-0.051698509221617,-0.24471019218823353,0.20234305719591505,0.1514257492932809,-0.22911875416899302,-0.02232313290677564
102.99424743652344,1.0214996337890625,-0.006038820900320124,0.12760280198781324,-0.04698082039859843,-0.13374501571147385,-0.10787157155152569,0.2979495725316999,0.14842017608098226,0.21426868367335133,0.1222301837574932,-0.16648495347282105,0.32179867718884075,-0.185803279062649,-0.4610807006047601,0.0842297572403435,-0.1833931731797527,-0.14269908912201312,-0.10440332733198401,-0.05503439500812066,-0.04362706613388241,0.12872115397293682,0.23670475238886704,0.0933300216996864,-0.02235550864775099,-0.09720352188900977,-0.0637937242668912,0.011765300467096585,-0.09243657850706936,-0.00575402704754692,-0.428452564284769,-0.14554264981115958,-0.002285524887552486,-0.03072726755026061,-0.039262013189788,-0.08664604233414779,0.022874103637258017,0.05964454201063015,0.038018956333153844,0.09549129592766357,-0.0004920786949632206,-0.016293442906590665,0.01491725094787791,-0.028702990998011765,0.04981506060456279,-0.046940985245978825,0.04156334687585261,-0.0036395981939918755,-0.05392706995223499,-0.015899391219914683,-0.009329675635553446,-0.025131859892736856,-0.0012756283627207705,0.046845489578480566,-0.04750144112918224,-0.06457847228699191,0.09263224502262778,0.1074889092433983,-0.014100264931908293,0.04830102669257438,-0.031183662210577466,0.05149732366932651,0.004955056113478903,-0.07593919260186884,0.07087484292440258,0.012553556247384022,0.07479489565281325,-0.04586565878128711,0.06489918357474878,0.003224419018489054,-0.01758372313349609,-0.01461716936873855,-0.040368369223751414,0.010787415232050764,0.02126057960371087,0.006112869672022176,0.00023876298916824547,-0.05257709312160029,0.08242027408558059,-0.11048699022115126,0.0011427803867210245,-0.04341838313755553,-0.006021498259623413,0.029377510394426723,0.03713603201652937,-0.07851978193144905,-0.03207903664406719,-0.02934889348074985,0.02146769121055186,-0.1306379145172108,-0.12114615432879945,-0.045542779199310324,0.170190250059217,-0.16913783230985077,-0.08160582457926217,0.17428164552317849,0.3550396204251421,0.43799130734938435,-0.40023827213597596,-0.0034583384123151872,0.03667555812366254,-0.05236633340322627
104.0157470703125,0.9712066650390625,-0.055202487287559276,-0.11757615796555287,-0.30039493925656224,-0.046165412424140365,0.1049393596794244,0.058478357215982275,-0.19447521590666272,-0.10632646023082755,-0.08975986828304178,-0.27305393042992904,0.09331075513720954,-0.2726997780827623,-0.10874100382577771,-0.27707387535406697,-0.07829003993639407,0.30603697181256106,0.1893607149021911,-0.2881286955359085,0.0066149026270498415,-0.52465184970476,0.02270406381585689,-0.2062166773196886,0.3189780216533873,-0.21539194485649904,0.23158272279355693,-0.04432223976792665,0.16071394660291038,-0.17666125206287953,-0.2549643827827187,-0.09322932230579871,-0.01422661532895758,-0.007719876007654697,-0.014967682729615822,0.04689469233949714,-0.02367912981808999,0.0020624600215506115,-0.0647347546857824,0.05608529173171982,0.03350630283536161,-0.06557401086674326,-0.03344664687834395,-0.027415989426259217,-0.00395114091807762,-0.038332078955741894,-0.04910996497691724,0.010984903995527453,-0.07461766491415224,0.05593612578654101,0.004501852944260687,-0.011381440336178023,0.014157590244063429,0.022402713793438913,-0.017024454265836705,-0.0005373731498385532,-0.03330637229081849,0.04520560239411739,-0.36212353552919524,-0.0892048127573627,0.10428313167436898,0.06088722535265562,0.031163171610774913,-0.04135636016304474,-0.02219024151183032,0.13156782677918594,-0.10640432573920573,0.038951454649621915,0.12167369871269872,0.06627956259820256,-0.05315262186824475,-0.04031438140274572,-0.015402739499681645,0.02046358193984199,-0.0014325901386855328,-0.0437370909142813,-0.018503593358128456,0.08602612119733592,-0.020923711355824895,0.02128239194272167,-0.010609660559122332,0.02917994243812999,0.022733848511000403,-0.034772321194381624,-0.01074944969408944,0.1500865084262857,-0.07045238030937842,0.01987359426717404,0.051007166863905155,-0.17564455390855807,0.06661443031375085,0.192617975976339,0.018222021734121546,-0.277421308873493,-0.22390322919531552,-0.3645089193417214,0.29385585235058836,0.13610551352371786,-0.050670222639896144,-0.16787632161839533,-0.3022243761593251,-0.3752460296996388
104.98695373535156,0.9810943603515625,-0.2565211361389702,0.17550166929106362,0.08912069113868241,-0.2679844061568296,-0.3422231024653252,0.1324484670968738,0.23633290238347465,-0.1665279879542082,0.21650322251082055,-0.1669917056503842,1.1038290411490774,-0.19045795259855355,0.2392951381947331,0.04624709390907933,-0.03527721708023206,-0.2333815768754005,-0.16899660948198025,-0.31172505575745457,0.15885757155195165,0.03445756972362342,0.11756342033896634,0.12784925645696896,-0.12565394421892684,-0.07762630583285524,0.13052099567812997,-0.07881969732771746,-0.003958435161654419,-0.009382308631938282,-0.02915376892529563,-0.007496487007613441,0.02868718412503631,0.045384786225672324,-0.0008668547583180783,0.0512106904542086,-0.03817976032168466,0.001762613749210576,-0.02805211509652759,-0.0492452007467596,0.005595471995260406,0.022901000839259805,-0.03772759260661815,0.06658626031249834,-0.03485226057708315,0.055905032765705534,-0.02332442161729306,0.0381041358589679,0.0022258318662449874,0.08666392937502916,-0.007727620880041851,0.03286169725163255,-0.056864315302396946,-0.02230756037066229,-0.021804790861053747,0.018282541377632723,0.025008815987999637,-0.00208207732530132,-0.00023074818965415677,-0.20566026118082972,0.05503852925653622,0.026930921952747558,0.03213069333296961,-0.03497378270556663,0.0005710426701988295,-0.009246996358680525,-0.01913780500322244,0.07322902070302047,0.00416318489028408,0.11195624395607384,-0.1225061667339992,0.021730140463332187,-0.07006386831175139,0.014337935568469531,0.001120574779909287,-0.005761289889666068,0.04503491388780234,-0.019111223470588412,0.051864581156879155,-0.06478699104272073,0.13765303892923011,0.12585286806207588,-0.03775327287371055,-0.04346721934535914,-0.024230527247156835,-0.04734758642430518,0.18097261233710585,0.07534528080080109,0.2862688711369509,0.16405220036671447,0.1861925164208756,0.013419930223245736,-0.06056826827328333,0.05115558392407486,0.16711078036954452,0.34273459971647546,-0.2812333081751769,-0.6442723650115508,0.20487466772099677,-0.14953824440948438,0.0957851560807127,-0.0022021047733008503
105.96804809570312,0.9715042114257812,0.11559030122853745,-0.18956711199798565,-0.05742922565060872,0.16225178469545556,-0.032278072537379826,0.016884807610790295,0.06299990481646836,0.24079665748974755,0.16960336781416865,-0.1495861247294396,-0.04455035307845161,-0.05863325432357951,0.008333867795033577,-0.296595468522343,0.13527299166335074,0.19864015471079222,-0.013425461434380188,-0.06889586559018337,-0.0539343006089147,-0.17736370591482178,0.14823011416312504,-0.019817745299715212,-0.03186648925502416,-0.04599230364872969,-0.01641179154687685,-0.15916494612690402,-0.05099860119927962,-0.053952607489361884,0.0322144669551218,0.04004171105301531,-0.04353067199863806,0.04614846973565571,0.035819908962404695,-0.0031034911585993623,-0.09047782322779271,-0.040176281138234016,-0.05234413309158842,-0.031089372550505572,0.025885557953774795,0.036276875042149714,-0.06035526021287709,0.02254297636969816,-0.051228267794794495,0.0028069768743215493,0.004584983028831542,-0.04537367749263058,-0.010133342015518385,-0.0495969928910003,0.04626437066116898,0.018442185509126664,-0.04195459677969467,-0.020103215846629954,0.03276073568979987,-0.0549699965842233,-0.011164048042512073,0.10305085021554648,0.0481054035778503,0.020190261365088998,0.0029215303299696812,-0.06592562664056159,0.024306913193152202,0.0321217421652094,0.11320626732694156,-0.020989511477747295,-0.0008010454191438785,0.023006584499177737,0.06459833727724729,0.019114649181629573,0.0034667199350824963,-0.02098381916151385,-0.01673124353405071,0.00021229534438933035,-0.010203967469161562,-0.046027920650696726,0.0333790360289324,-0.09421756841092858,0.11603851074135244,0.007282530906922432,-0.002672875201735432,-0.04874164181425407,0.059828718627612604,0.05289270542213148,0.08704176432621924,-0.0006977914482627773,0.010602067432640265,0.003567956331751059,-0.5372606062883535,0.11174306270900937,0.4273794132361013,-0.19135712610216615,-0.1524737626892127,-0.024829768374636352,0.12589085363004449,0.4621418205572798,-0.5533588276766843,-0.1127667851948076,0.31375178389893543,-0.30619540433188136,-0.188748794736473,0.025637345906685358
106.9395523071289,0.9610977172851562,0.010119834465177346,-0.28810269308044967,-0.22769099316007926,-0.08706691065999353,-0.2788841788858564,0.08838353698840043,0.09297314558353002,0.2252686087224538,0.2200628775030684,-0.4038670323173344,0.21352625375089362,0.0434774664641895,-0.11242986413960396,-0.110928612495267,-0.23377887320407575,0.07736770356436251,-0.09644116025648436,0.11161084817658741,-0.016901946010594672,0.29732261842955965,0.1203945256332241,0.13466804035870053,-0.040883858434633324,0.32120462261758737,-0.14958020624861,-0.08595830070138671,0.053967419893987,-0.024263617680224742,-0.03265055137251434,0.08059305045507896,-0.3254957584538185,-0.11878123723013176,0.017628651425468787,-0.041891804236718816,-0.043494193727819166,-0.019850723119271434,0.0024883168393745186,-0.12716359149275747,-0.051912440257420644,0.0494615019606224,0.0448103907672919,-0.08545012396817088,0.04088204650497484,-0.004477239626369985,0.06269987864138232,-0.0029402679333997844,-0.02200326020691118,0.07715105951137026,0.025272996805124143,-0.0600809506708632,-0.030951307354340256,0.09543922942167525,-0.060020050328290636,0.10179466458393799,-0.025821216826713293,0.07863186885690202,-0.1313806620523405,-0.09633202560590909,-0.022703685739953187,-0.004539082569596162,-0.02550730500942377,-0.06283981712976838,-0.05378919571834501,0.04235413296642856,0.06386778720669525,-0.04255832867586013,0.026477610044207196,-0.005391703464584696,0.11006595956490416,0.07913916006690451,-0.01050978337161816,-0.048743076340383384,-0.008240686344987896,-0.0794555415409366,0.004315004762683615,0.0011467047549543266,-0.012835686663326164,-0.016264977476174034,0.10862938060179923,0.004347689772086001,-0.07344797126305415,0.06279646897762681,-0.07456808418793187,-0.13124068374953857,-0.14181575029664067,-0.3785159249483079,-0.15149791275629287,-0.5781262530832493,-0.1376179446020986,-0.21345567694499173,0.05519774383929327,0.061920196544520134,-0.2515790417981757,0.21838645503431733,-0.010217861757979844,0.1776552808972087,0.056111805596519175,0.09246367481108017,0.06414557377853204,0.16385946934798984
107.90065002441406,0.971099853515625,0.15460401341504107,0.030559672974998293,-0.15841086452738168,0.16268609068989895,-0.34984664793741604,-0.039899343415645876,-0.10992161408327238,0.16028350740397745,-0.09347846974466335,0.1996472430274851,0.03852114666197018,-0.15661627866132272,-0.060572734133775896,0.00727852317488116,-0.10259186183335656,0.04382261231883186,-0.08084352970230249,0.14985589342423494,0.14832352278225322,0.0986418667563768,0.24570756701059207,0.044793474598955926,0.0783398608142277,-0.06572155971816036,0.030719469509434834,-0.06417625288547434,0.08917735014592007,0.1050807734290029,0.012549674228478285,-0.0010571746886574723,-0.0008839354113247648,0.015255897875097263,0.07759383651146015,-0.08225667193389831,0.029470461261045,0.0061924106383366775,0.03817363720024659,-0.04449162123540708,0.04100864225113864,-0.012956263551506326,-0.04449563825096679,-0.007736004770141287,-0.05088339007871608,0.0253671587154864,-0.02849324393073448,-0.05559398408807147,-0.047607746169356265,-0.03396216130173918,0.032340033378939016,-0.0960989646823214,0.02310295411372446,-0.01820014483680585,0.02170050396345836,0.03791438059230202,-0.021823441354127546,0.07081479125020476,0.045614020121069486,0.028019265863153765,-0.035901131715379286,0.01689579791941618,-0.05397470397178373,-0.01689715989820383,-0.01081089655320031,-0.13017840610123624,-0.0047258153906848815,0.003005413635194798,-0.04805605943429374,0.004585596056333057,-0.058475840896953964,-0.02939533763734838,-0.10769250415175886,-0.030789766127283107,0.029743436816453004,-0.013766297183483725,-0.02839293650829995,-0.013658406500833139,-0.002535566359380635,0.04079238802181363,-0.05945813989849171,0.021017274360693436,-0.006082726214179049,-0.045464893813925565,0.022016165951612557,0.005828499775460724,-0.17365724211695444,0.009378996474648594,0.17353655794527567,-0.03292019341781584,-0.14786724464661197,-0.17483239177692106,0.3059622533026461,0.49794665588059367,-0.42875709811733553,0.7299099165140885,0.4136977749774207,0.06355677642246367,0.27939110158355096,-0.48028990974978886,0.1563395258699071,-0.045227122020438604
108.87174987792969,0.9718017578125,-0.05270199335860169,0.00918029126574249,0.09439103759703912,-0.48574942032714696,-0.05781430956704993,0.04182469419412577,0.0965266028217162,-0.12996770031126795,-0.15545340151696385,0.06493378103311198,-0.34296956598325024,-0.06413467944537116,0.30037636333015455,-0.2868142648805255,-0.18467123890853035,-0.04336710808343949,-0.21844866410448674,-0.05552411913724655,-0.32125461141076167,0.10133698396142099,0.12164624353037076,-0.090122888318528,-0.1164118155324532,-0.008544387697756662,-0.05805162113432227,0.009958165118743152,0.0647878961645849,0.0297441276049393,0.11022724030679812,0.002792681511379843,0.014061794150106973,-0.030657717896319388,-0.016099235788357064,0.03820070731332021,-0.007814624589546834,-0.005696762264539702,0.10647182709979615,0.06781555084474833,-0.00237957977944296,-0.07911735960547457,0.06666483590288208,0.13868830697417606,0.02693651013150837,0.16360341170757983,0.09394801432815178,-0.08635915201628044,0.05251938767256005,-0.03526835217032162,0.11681681556774567,0.01936456666463481,-0.05167451722564488,-0.008166941593682212,0.015690946937940473,0.0442374197270095,0.022948442664017445,0.025122928734691213,0.17823396604184968,-0.015687568443029532,0.06780603996207478,-0.11759915094937219,-0.015444532501538127,-0.02537676998372004,-0.04113336373592874,-0.07409097346831062,-0.04960693914739864,-0.05354209243861353,-0.08843585943104282,0.0694945147940587,-0.06179750297956706,-0.0009675376451819141,-0.022439300244389608,0.05523791763079186,0.024358995149017983,0.0033326518726964228,-0.04612965680716827,-0.011268918105191131,-0.03580485757597314,-0.12578283824456968,-0.013008813352024072,-0.023885099925999787,0.0982496355199397,-0.0376788964120037,0.04793840754222789,-0.019110039964809533,0.12718818591299197,0.10708479173950157,-0.02892254654839394,0.09869285372720998,0.03601370360734894,0.09999899322003152,0.2395959174463295,0.10309698288211784,-0.6764170493048414,-0.5634158549761307,-0.003113515838604315,0.5280739934785446,0.012934896359380735,-0.14719199002074507,-0.015740047307139453,-0.21885861306328513
109.84355163574219,0.9710006713867188,-0.19447636843161434,0.04607364335616029,-0.12628096890697482,0.07114279094060104,0.03595678128132005,0.20600451467127667,-0.14851153049446308,-0.3267673658182713,-0.04253180526006879,0.28714789719870587,0.09974950656597067,0.2647446342557733,0.41432850598306803,0.0075505493766471615,0.2553987399328569,0.1538998782361048,-0.3764663229434502,-0.33312789368039375,-0.34011649168120817,-0.042712202237722714,0.0798979157079309,0.017300798821360937,0.22054162667351024,-0.12408241620776704,-0.13414153308928797,-0.13875270141531035,-0.03730026182654264,0.0023428960366376986,0.0026459281614873214,-0.03862752007990132,0.0217259750588103,0.009900819175513274,0.05557274694219634,0.00704061698824629,-0.019440290182029175,-0.047702333625960894,0.02437388799669676,-0.014652598868585553,-0.026933610994024467,0.028720572024148225,0.024586090169071814,-0.014805905026094586,-0.06033714277838681,0.05558551853930753,0.032602311076106436,0.02139771659182075,-0.01505960184427806,-0.053530961816116066,0.054231813480943455,-0.023850738359742787,0.023739561951769947,0.04105136428252984,-0.022844761915259037,-0.10716188098768617,-0.07351180647543251,-0.021592189084075585,0.04335320124963391,0.0012066499715708001,0.015895137531331212,0.023780407688781716,-0.02991657756737017,0.034313579001639234,0.04321871208819904,-0.019858117411375463,-0.005771625501919692,-0.0025325845034423118,-0.036274874087534055,0.007778368503462174,-0.05706960203259991,0.03312830635897157,-0.0447069830051878,-0.03201024658333491,-0.0030134347685630333,-0.04064603477224879,-0.0763557337950545,0.029989862035244015,-0.04790913950019014,-0.01761334279701728,0.005884002336310923,-0.03023285345909093,0.059479500637436414,0.058025050605154685,0.010392195528593294,0.27827558559205456,-0.1233381129867607,-0.06545620489320374,-0.09982176744726746,0.15572477856789052,-0.05042780665177705,-0.024422899238838704,0.8392082487629564,-0.32926780257287913,-0.013558034188769857,-0.0728957772309454,-0.08577773448730418,0.1252713499739436,-0.102000833625783,0.25397173674048246,0.13200056456486717,-0.22609025711727077
110.8145523071289,0.97149658203125,-0.25899985352611044,-0.12346143749870019,0.08309889340996664,-0.06386368129670787,-0.6903765771126236,-0.08727620082942662,-0.019416722744083362,-0.3855609522653149,0.27330856970963974,-0.200200144597593,-0.3380716483574511,-0.3060299310093146,-0.017493085313200235,-0.08344315429636234,-0.09329736148859755,-0.010564077719646806,0.06694202911196505,0.06509865611329814,-0.1573930502888835,-0.0883382270994035,-0.008744207324984266,0.05369282168945246,-0.09630025709882559,-0.025782914942746586,-0.03524743767572984,-0.0015409046080991549,-0.007906646887031764,0.09604274655447455,-0.049080646170441174,0.053866917143021394,-0.07572422002213075,0.033826633612830656,-0.04532506924972745,0.003774000059919319,0.036159453902964045,-0.0336752042855316,-0.006679978917075236,-0.04520074124575754,0.041078919956464593,0.06953225507392959,0.029210049478403943,0.02489578361413365,0.006092513881725145,0.14409983634586035,0.0724622776139209,0.047465399559198866,0.04492778945803906,-0.025030449415435894,-0.00045901520156603915,-0.06349317792778969,-0.021286191895879873,-0.06569638642313935,-0.13356075713283783,0.036278641617354786,0.00930604580046626,-0.07388796154927217,0.16605887329961316,0.06445664316447851,0.004354433939721555,-0.03256152450213682,0.03212018841587518,0.11325237232500883,0.06862496648049636,0.017235075171678733,-0.0036070232123727886,0.023159177862858517,-0.052284891784102214,-0.044177502115719275,0.03798642334926953,0.042645407436041775,0.03231247052270565,-0.024898306611901802,0.061389051002721656,-0.01772992861550231,-0.018208595055298656,0.03891415605315201,-0.00459565256041005,0.0009342012617070778,0.017398550880664616,-0.006215799142217456,-0.02991299937196784,-0.01599941479799324,0.06819272644783973,-0.057881656508153606,0.006409031715101408,-0.0038619287700823127,0.08028231646714312,0.07816650329493854,-0.25388995050669216,0.15832527912606428,-0.12709585997107425,0.3246525071237527,0.10045383130987347,-0.3418019069321513,0.19891785411134952,-0.24276379558415906,0.14416857329777485,-0.2551248820301726,-0.0606616258391961,0.3049713922594741
111.78604888916016,1.0215988159179688,0.42633529068659864,-0.05099697847823105,-0.12136341668585039,-0.09737210255178594,0.1825817547975107,0.01257423303421858,0.2191562061915359,0.37295993352284235,-0.0804815013015717,-0.1021181721261298,-0.2063504280568819,-0.16501382185016733,0.5133049364959896,-0.4363906750970074,0.7685201316006968,0.14018736436842721,0.22812734768851997,0.07768992724827217,0.271573745385793,-0.5592726138458973,-0.05937027081353534,-0.36693605425667825,0.09144387314606342,-0.03115106356321964,0.00455966180925825,0.008064325760134721,-0.022732999720003727,-0.04080783288631157,0.07858697470225832,0.06605694676679519,-0.03492104867290824,0.011208174226212345,0.015590886056537745,-0.03666676621701385,0.02044822728210549,-0.05752110322133939,-0.019002609978130063,0.00221655580735275,-0.03382771323203693,0.04474217464100122,0.015723956587860057,-0.041223972009270846,0.029691421219461545,-0.0023538301995506116,-0.018776317991088684,-0.048568783343543254,-0.03248838422775283,0.0012945094472862969,-0.0089947203608206,-0.007876344987350774,0.029027575661138505,0.02176875551488295,0.1271305655906019,0.07323245931939157,0.17994439535065884,-0.17381441035991232,0.0867780812699935,-0.04099072314995702,-0.15394857983617938,-0.07230989253070505,-0.00266181912522613,0.03709267055240063,-0.016703998258437172,0.014002383295792944,-0.06037615526991065,0.03256813283613864,0.0452909951924854,0.0004594285130547984,-0.060803089481401174,-0.03822835933846831,0.07849090271774162,-0.0836487142516086,-0.010933198064838712,0.05844193730258457,-0.04480445768780945,-0.07644957641576264,-0.035252887530521415,-0.02896682721656583,0.05422241524816587,0.03204613560204146,-0.04707768326529022,0.053418064133106874,0.010876901070273944,0.039399417697316017,0.06355970337707183,-0.07137050879139942,-0.15629649690863265,0.14073138842034447,-0.14216850554047955,-0.0776711712069896,0.22634199490623116,0.2541247497413791,0.17335129569144936,0.22327772657411127,-0.5448145118466928,-0.1412025213899469,-0.012829010618202207,-0.2581611807073457,-0.12654469408415822,0.4278657260619168
112.80764770507812,0.9610061645507812,0.4097997736873043,-0.025502997425482076,0.08787132494032285,0.561915485213763,0.42249428914110876,-0.17029118287537454,-0.03853301194533084,-0.1895691679998732,0.29740441717760374,0.08670205228523707,-0.185155371675017,-0.14102358327307546,-0.017149169937214902,0.15419765575222183,-0.14455485395989917,-0.13259822570985674,0.037876850146566395,0.2007543206337506,-0.00026977816850871916,0.157060918073114,-0.1420774079289014,-0.06852067744445865,0.19318067561058752,0.14585836720885043,0.13832858896292308,0.13315886721613812,-0.057728286082120564,-0.12783662681926422,-0.18309531626515113,-0.12878144648025736,0.027003753516998533,-0.07502972436663637,0.05634726011079512,-0.015536891965081364,0.08095092054160084,0.009805958291198569,0.003267731645934322,-0.0007517068578397875,0.10651922107696453,-0.07612808815941945,-0.06300481785245757,0.003294881411576427,-0.11068996288091204,0.09555086810646396,-0.0858886255550246,0.17408520190180024,0.07464288437265743,-0.014488192370559354,-0.05512610125295771,0.02945492589471295,0.34093883995731594,0.008740428289239877,0.10859978739361202,0.043890934582989316,0.18532341992265672,-0.011065465842659876,-0.0389904921277328,-0.004060678382564274,-0.08156218615630118,0.02888136221515493,-0.05888399688335009,0.013934712129894078,-0.041208510527032644,0.030821122305752284,0.04186597387752402,-0.026079130361093873,-0.06237247241710562,-0.020866381612391988,-0.011258767597446534,0.017654732102301923,-0.0029226773799393073,0.03995028675051863,0.05829270295809956,0.017194102154702517,0.07272156949204994,-0.004739759359642183,0.01448302516606964,0.01001505785895073,-0.013324454702258029,-0.04775648980301499,0.11914792332064233,-0.08416074666048276,0.04374752406025926,-0.05018671210724041,-0.010601993482206924,-0.011143016158770018,0.01809195823084525,0.06045151231256153,-0.2217874881324452,-0.01981588133702069,0.1111291417098707,0.37553748407045745,-0.42105649776104126,0.13132474694954832,0.09832605520751504,0.2842177804617084,-0.04015375842609738,0.21569198616344842,-0.05742836943317065,-0.10526949555429012
113.7686538696289,1.0215988159179688,0.193281559897104,-0.6142453316528665,0.24990902168741402,-0.0373752822722593,0.1175160683580388,-0.011428403378354272,-0.017146752540766176,-0.08927127711857026,-0.04587426186716469,-0.7684684680804773,-0.5133949277441585,-0.1105674248761162,-0.21992091080946535,-0.6059199492695242,0.2472976582281058,-0.023557317288267446,-0.08520782046539262,0.14342155727995223,0.07043457434239386,-0.1002057925964089,0.10077940800848338,-0.06717982627868013,-0.15147326642179018,-0.07596668994973574,0.12486810748705598,0.01249202729249993,0.07332409237179084,0.07208045447780488,0.009343590561555138,-0.017215427575332128,0.025701775809850065,-0.05014294837026694,-0.019050787429524443,0.02556686458588808,0.028605796869840282,0.0316116999552471,-0.006709630331916891,0.03249438587652169,0.05105668017339543,0.05241386677309487,0.02501967699119461,-0.020914317383971884,-0.04004520907090147,-0.04016639141181772,0.029966817201344587,0.012266011377946797,-0.043779438292269796,0.12267067496990651,0.170024835629269,-0.0322413939001279,0.0016105969873713233,-0.05977609708904731,0.09269759237591184,0.05136436936025078,0.0004708383376460033,0.010773676612717978,0.12111938996356184,-0.050563727822061685,0.01859961713891667,-0.011050206796251674,0.07317834991679972,-0.026114329040101466,-0.005285202283475731,-0.01507586834644658,-0.08947102215494984,-0.02589525277430546,-0.06720246747801717,0.010287881814487884,-0.043411095166314875,0.0003743938383743775,0.0397131019487775,-0.01967123582990967,-0.012274225739665042,-0.018774505127009573,-0.020782788147709272,-0.005149357316266031,0.022183793391328158,0.03020034455141804,0.06482699813261068,-0.007890689269012416,-0.08142601382429755,0.016815039725964664,-0.04628483708408488,0.010284558638493686,-0.03146590873924349,-0.02853713742871323,-0.00798316564744202,0.00284363165227692,0.14287134408459412,-0.17100264750056762,0.27855832586299345,0.06067723392257034,-0.24019952901502564,0.4086583317563511,0.1108181212987265,0.059863085853091004,-0.5672945904950454,0.153575269130436,-0.006973532821537698,-0.1206105719490167
114.79025268554688,0.9809951782226562,-0.13241141855163593,-0.011340784229881704,0.021732027147982478,-0.19061828997059768,0.047652675784077614,-0.017596370193164866,0.003247924102074015,0.01684527640939124,0.01666695180144467,0.0004327535631789253,0.009271839564344566,0.5481298568331721,-0.053263564570432506,0.09079843329874196,-0.06946910086137878,-0.014419654108501267,-0.09675719348254694,-0.027983653490351174,0.4787183217833359,-0.12618726418147466,-0.49651275335548245,0.1980747532972119,-0.029441018556840753,0.04854194871224432,-0.09679777920439682,0.03528212402767872,-0.17963711858820985,0.11029867936153206,0.09365425274358924,0.03337426922031839,-0.03175399864093301,0.035512462361540896,0.02656841182877535,-0.044325787828703445,-0.024938307984308447,-0.00758078485288417,0.061997749137107115,-0.034737964145506624,-0.04358205887272529,0.01321088857470171,0.06476642463130937,0.1044610327897184,-0.005763081402887393,-0.07408643618772069,-0.05104425064238394,0.01859062906233533,-0.008380088488536806,-0.045991491755124236,-0.0059113444996414894,-0.04139228515031624,-0.0029342728035452355,0.04321687496281181,0.0013146696165550276,0.04123414914377814,0.034249225003518506,0.0002878470676584127,0.07251159027715505,-0.02427585599728089,0.004705267129374802,-0.1248649871903231,0.020934479067684402,-0.03841643480210993,0.015931791518597308,0.020619550314777517,-0.017772388634412287,-0.051925104274506445,-0.09589546053044577,0.03480189791753938,-0.049061026470514406,0.02238060939517074,0.03228039528198015,0.015877729278865937,-0.058764787229003586,0.00485180080742469,-0.028577900868060377,0.05152539171350984,0.06864241974750412,-0.02812325294530589,-0.007499697065940761,0.010345579957422267,0.011398892611378829,0.04024858286390173,0.030995981298058282,-0.15214996754424898,-0.15900412320879748,0.29271243670003655,-0.0525263847656053,-0.06196010401716233,0.047416932763826435,-0.04830636507996963,-0.3198058249268997,-0.38743564942320124,-0.5376609697065752,0.03185580156460669,0.10345796650855082,-0.10596772233382948,-0.04307094087568554,0.3767554200566166,-0.006199869497110919,-0.07977982291760181
115.77124786376953,0.9813995361328125,-0.1008969916075465,-0.21492423965562812,-0.04582280965312507,-0.00908930068250666,0.4627862471036387,0.016794256315541142,-0.043085588111276406,0.0781867795556099,0.04701167647963039,-0.08897962588466043,0.21718343391334002,-0.20297470863869033,0.5223208594029402,-0.11488213034906028,-0.29766364729555106,0.08479366808826061,0.19449306503292094,-0.11207889260030875,-0.16055920940131327,-0.04992381634936298,0.013908095751576888,-0.03313295697382856,0.05460171040026755,-0.037102554472767786,0.03408527809782959,0.042218481657981824,0.06501692432696943,0.07961056623423288,0.025739572091644996,0.05501815885067446,-0.0302174989590815,-0.033139085030812365,-0.017421508406541455,-0.003996988190962719,-0.005437094246560486,0.03467539914980361,-0.003243573093601307,-0.030468468204995935,-0.008280550748662557,-0.07644789543955201,0.019025717232796325,0.004264088443818104,-0.05126401880065439,0.07407982619914188,0.0023858259369912167,-0.042957762384361296,0.018975963125658663,0.0049071530066659465,-0.10858217372499383,-0.03310536562104452,-0.03399695204302817,0.11397262095323094,0.04950497477327818,0.06093719527941388,0.04366916951791486,0.00015546732628460638,-0.09477923232804064,-0.01899778837928231,-0.08316924370218602,0.05496444082124367,0.04595356414860121,0.050124847668910184,-0.06373400430559888,0.0027588466768447865,0.015972510063350796,-0.0975792140112019,-0.049532612155159236,-0.016633297038592922,0.06340997136844648,0.002965098952809642,0.04620036089980556,-0.03695595960293747,-0.026877939539008733,0.04681006040727932,0.017657604623055823,-0.0034442504864852777,-0.0031851351046008605,-0.020647783514795338,0.062200694040329504,-0.04562099820421422,0.014377283100306202,0.02479540553745943,-0.01423127299345796,0.0006444728577757429,-0.01267310110198204,-0.10359924953192141,0.025919080325321833,-0.2601289374692941,0.06433060097400041,0.1144894872488726,-0.09152247678695571,-0.07622382408194905,-0.7116957484580138,0.03747369650718621,-0.05105594547260604,0.07999945137663138,0.23689365003996662,-0.09763489195302857,0.1409514065109354,-0.31847188027701956
116.75264739990234,0.9912033081054688,-0.3067088014558573,-0.20819413530985004,0.3018495760406675,0.03441852204257418,-0.20657332499051836,0.06629255287626844,0.3935665205030513,0.08249045058277472,0.2572512133034027,0.16318987584444125,-0.18261381848788183,0.4472522144378156,0.10761823045502672,0.17935003143736214,-0.1656702669971791,0.11074304572631331,-0.02088206350397816,-0.10499107819441511,0.22060416260486948,0.041459125102384725,0.08428028544470936,0.05271867409254436,0.00658458344743129,0.024387112194320992,-0.08379323126020284,-0.07115738121596199,-0.04582735780182329,0.02380340609817207,0.01301597131332291,0.029309816690654543,-0.09481258807707808,0.03718681549926509,0.03711386534677515,0.0499416031419819,-0.001581763329203192,0.023734295222598432,-0.03530338108030057,0.07326904718028437,-0.018814478452577124,0.01821781536529341,0.08070464180725426,0.027699531013893323,-0.039328028321574386,-0.05444107403515603,-0.02781643922483466,-0.04635227872628145,-0.07625800080380943,0.03946014277385978,-0.07259663138183726,0.004375664360508942,0.03602940718220217,-0.030880190237487497,0.060522798147083,0.036751381931013356,-0.030689341250851685,0.019507838831089978,-0.07894981200235078,0.06849465209319992,0.03055696854005921,-0.031044734958906153,-0.054826784861575384,0.013458646192604479,-0.08138926324077782,-0.04843426347545221,0.045669274991726114,0.045388894898387794,0.0555026510280683,0.03566344472981451,0.052699679053180196,0.008716337353578102,-0.022714304020638308,0.06326038030983738,0.01849920450821371,0.07572770955036283,-0.029755670510275258,-0.029710191651477272,0.004486633530163705,0.0007076991472403011,0.050283840128410036,-0.013935708315587629,-0.012441503132062312,-0.01753177720739226,-0.03839213772822074,-0.04919385826596678,0.11330612827471215,-0.005535197365147749,0.22464092849363232,0.26049832105182424,0.050024527317439865,-0.23278883345151738,0.30496950636859427,-0.13251563116181203,-0.3349395677814252,0.15335999601833014,0.1675727137652343,-0.0809109362717126,0.04037027541714804,-0.05840864900034614,0.34482453710414535,-0.37669750349052716
117.74385070800781,0.99169921875,-0.20714992575479246,0.1519800873183349,0.14157899806185834,0.2957163205605817,0.2810154142073731,0.040934374089467776,0.17212395860965857,0.1218827515355794,0.03926129600954344,-0.030453933145688394,0.21595553560150668,-0.23506916606034195,0.16515238427785509,0.055418342452432885,0.0937987187367302,-0.002554722022478126,0.08514721854813424,0.03404687212838375,-0.12362010210279818,0.091638510068864,-0.04116536604699058,-0.08916240908679779,-0.03247579515617392,-0.05378913703407699,-0.05849072999912883,-0.021005154281208152,-0.0323941170409154,-0.01301056815828018,-0.008651444113688766,0.02536296160822478,-0.015776354600342997,-0.03045281377263599,-0.04916451765337399,-0.05117635416723141,0.02594836413789726,0.0374498151275252,-0.03249563042385852,0.03879583865668751,0.026897294288134956,-0.014890425757642746,0.02014629256114021,0.03362311691762738,0.019623314968601452,0.05340959820001606,-0.07342571673071566,0.018188759530336083,0.03773740973224277,0.0632282058829253,0.07782064592861258,-0.01309950653419935,-0.005877924734919289,-0.06387618033307624,-0.02543668907002428,0.05280135747003851,-0.1005399943723321,0.07638813312133375,0.162047945870457,0.028165039423489385,0.1039389460913524,0.02019893480546972,0.0683098928050632,-7.010600448737702e-05,-0.011391984835862625,0.009890222146273374,-0.08035029580047792,0.012675803860577168,0.005637393914648334,-0.015152912800399668,-0.02847029689166272,-0.009006609100324792,0.01957924655393295,0.06773274695545153,0.06774152882052757,0.07369634547347324,-0.05739197055836409,-0.02442172776142608,0.016918086809198755,0.01880206364493754,-0.03567059752682746,0.009285930393648965,-0.044989906223252475,-0.004329025181576964,0.02383046855360494,0.04619208555321009,-0.0020082091980146936,-0.05607346679119783,-0.020278809192258156,-0.7037969163872833,-0.13515223867997903,0.2795214808682447,-0.15564823201763872,0.7177139621311541,0.2758763348652043,0.29828134073822016,0.6248506471540676,0.0871101155022981,0.11846420474942874,0.07262865363377734,0.005275863592060608,0.2554454160474696
