start,duration,0,1,2,3,4,5,6,7,8,9,10,11,12,13,14,15,16,17,18,19,20,21,22,23,24,25,26,27,28,29,30,31,32,33,34,35,36,37,38,39,40,41,42,43,44,45,46,47,48,49,50,51,52,53,54,55,56,57,58,59,60,61,62,63,64,65,66,67,68,69,70,71,72,73,74,75,76,77,78,79,80,81,82,83,84,85,86,87,88,89,90,91,92,93,94,95,96,97,98,99
26.6153507232666,0.8386001586914062,-0.4338078156791539,0.4922976006263779,0.21395644307664885,-0.07316711616461422,0.9110498365803177,-0.026040040928253183,0.6586884453632852,-0.43980123986790354,0.15521926928066337,0.12381898960938847,-0.04360909048678528,0.4164214170833568,-0.021284044833540156,0.15469807381540487,-0.015571113345153579,-0.03836876066624683,-0.03408219648236693,0.04124186512305286,-0.10069568798353623,0.07513446665205345,-0.034392447555771574,-0.20327033718240103,0.2539891212130315,-0.28883270486793067,0.229995939401612,-0.14103279316686318,-0.0176718288718265,-0.0766417821483288,0.9259749932745271,-0.22794001220606971,1.0278832169598933,0.0734417652271404,0.09502161553482774,-0.060481440018651,0.19958628896765,-0.23397057307230779,0.16396292148122954,0.3168129726904509,-0.006540044780560411,0.10983611653157467,-0.07930639151995568,-0.07465072699212107,-0.0004650638979254089,-0.1964015184778391,-0.23382772376919578,-0.3503917042099882,-0.19224913862761991,0.4358617880761287,-0.12944543148962662,0.01858522055652383,-0.03857595784476331,0.10301927611211896,-0.33711741958320673,0.3363486197552456,-0.13461400943047552,0.03740248844347327,-0.0650696286070818,0.06345562111975166,-0.15565392730055216,0.10263024056828808,-0.03068304269638413,0.12158640231143349,-0.07258750113956147,-0.009240762014045067,0.031982851783329866,0.08405598396271188,-0.009664619978754372,-0.06056324682801948,-0.032458894472456166,0.02814819489691365,0.035708822452100726,0.10241183552828323,-0.06460856560113545,0.09357088901087475,-0.03662613449235136,0.1317377955089367,-0.19116387525465264,0.030883216896070695,-0.054566288665327194,-0.03403747437828726,-0.06530919166981061,-0.42510902582035937,0.00015853449671855702,0.4044906460618355,0.39427030467592994,0.4601041449325563,0.14465345287967213,-0.2080631121647436,0.28913320283138133,0.1484526043899258,0.23172006883054713,-0.01854043943165851,0.7171424687746786,-0.3012236157126654,0.05958512181606104,1.356597828035263,-0.5688553720544393,-0.8368692090100722,0.35078970468527715,0.6377493277043251
27.453950881958008,0.8296985626220703,1.0066623988323933,0.25855955183901386,-0.2612430096680762,0.3959508965621585,-0.15129442084031403,1.429932519808558,-0.2700373441609429,-0.15450536911701884,-0.0710105531985751,-0.09764519306473363,-0.08892047684070548,0.19426811709184671,-0.06586206009341102,-0.40902074506497793,0.11959766639484695,0.03428198739104171,-0.026592658120609652,0.02771318990126853,-0.024002579085628757,0.12073243471349838,-0.5341517678873788,0.485862982039762,-0.491254260141838,0.2925331016681475,-0.136048904556496,0.23932806057036982,-0.0713085297635544,0.05770215234380042,0.002758128646053181,0.027134299109360452,-0.15778800915074137,0.024992023252429885,0.012206127692068025,0.00954535751221922,0.05988483711413622,0.14146763596463807,-0.060931471592719666,-0.07336290538251132,-0.06910654498353067,0.08114084666916414,0.03192474784098123,0.03079816521793816,-0.028988616976699293,0.14256144739764234,-0.0703697683177521,0.13121525268928314,-0.08715139909537904,-0.1978130272298268,-0.03892142267527139,0.06719105325530224,0.10712730725649018,-0.09802019490733875,0.0011766245684300958,-0.09721532069141917,-0.053006002060236174,-0.05201561115510121,-0.12289533523287773,0.035394371091197696,-0.058196609248791324,-0.031219903010452053,0.07741821679980183,-0.045596495305003745,-0.05886119786514851,-0.016147553922718043,0.10479842184854879,0.06980061574100091,-0.031081460160896437,0.07438812618172372,-0.014083280393875136,-0.025576524600641592,-0.05397100600726874,0.05151973610417891,0.06282492146668334,-0.024889374322229485,-0.0018513222485825724,-0.04184272364865277,-0.08640787642441174,-0.015419282301283916,0.04903538771705351,-0.051863725852093895,0.015302577938970108,0.0618456950810472,-0.317285589636778,-0.04837724921282123,-0.036941723291753215,-0.36636923616434147,-1.0844647538979246,1.0164066888313603,-0.27229360588276025,-0.4890968371707666,1.163080538515308,0.015833498100406365,0.6796797914813151,-0.04695177517641358,-0.4262574618618494,-0.23382404807597432,-0.6970520351710543,-0.252476692924853,-0.09561721799168446,0.31146059408693294
28.283649444580078,0.8383007049560547,0.2983942537437634,-0.45331772376927015,0.6507179926169314,-0.8195056021551773,0.6626205144411002,-1.373096015582554,-0.1099978045188907,0.06841685877389804,0.06466155138839619,-0.2078721184901088,0.03424269204193594,0.02491904413307302,-0.1264693163070872,-0.3063893089499098,-0.07437817024949113,-0.08359704810026147,0.09425263869670625,0.03447248814164587,0.013347486745402379,-0.08591555460641637,-0.029862024443774726,-0.09876933996069234,0.10285349673685568,-0.01826324819974018,0.10346452231985898,-0.010353211326378522,0.01979087137204012,0.035347340337273325,0.08887077058421053,0.00852602984733261,-0.058468833597989336,-0.06734710021099632,-0.0941806812589154,0.06253588395342734,-0.009518360756631608,-0.013200540594967138,-0.08464748552623041,-0.008791048669517203,-0.014079519285711547,0.04511688719893428,0.0334888460669345,0.0031577399077226155,0.06451246602720989,-0.08273402700915103,0.16117748988077166,-0.014923876671496791,0.2776020750994834,-0.21425853768570804,0.0886917000232428,-0.0868967415333961,0.04557542485935322,0.11795019700257643,-0.0028613829018955417,0.019324293150557267,-0.08497256218572541,-0.18993312315591943,0.06433004010415726,-0.10989825966341726,0.10823555141053855,0.016144771226277825,-0.038044763195074535,0.0020352771009253686,-0.034436173217474976,-0.014865654926213518,0.04452968847083643,0.10675569564711332,0.08068028349838634,-0.050555094731247203,0.11555516898680344,-0.18255502920350067,0.0870353573219226,0.03245831449444497,0.002096624961522547,0.024905777363467635,-0.014631151313779782,-0.11936117051317421,0.0009687852090236693,0.050799241048201785,-0.040792404910544325,0.031561380692826387,0.03379833827026577,0.12500742575632545,-0.03593106251814547,0.10206971210738919,0.17227590414252064,0.02994828763242477,-0.1523924840271967,-0.22488690033425834,0.002102403887450019,0.08776636602545557,0.343683342774313,0.2719291991372228,0.6860250167439484,-0.02236823459083047,-0.3292638737067225,-2.384138740279653,0.45789289121223214,-0.3229841653318326,-0.392931133955704,0.3271280270364504
29.121950149536133,0.9288997650146484,0.08284670623997006,0.11397193044186216,-0.23220377757536603,0.10366462521356994,-0.0004947119392975236,0.13300719659450025,-0.30859600657850966,0.033175972044530995,0.05713701661709875,0.14214648179568112,-0.044567171834424116,0.12220169767796583,-0.27960657946320083,0.2084654896682227,-0.2386063464446307,0.11475085510522348,0.04284832863626658,0.008593246937513788,-0.020422983871641584,0.03622011293517293,-0.0015503377836424731,-0.014645165288617146,0.05305203690723665,-0.2588992056007674,0.3010914764293033,-0.22215101247860786,0.29183608348949097,0.06824461191840919,0.10326938826194842,-0.4723960462619875,0.2411162839573345,-0.24667695074369916,0.11571581250903151,-0.1700947164916309,-0.26544310185180275,-0.3554980053939094,-0.26226862218618385,0.20145094992255927,-0.2647020746250554,-0.030337197462286667,0.1044922857551822,0.014560330770070122,0.16859920488157876,-0.12443506957829847,-0.20654810132753965,-0.27854571662754934,0.16867376240921828,-0.5783826736337893,-0.7012671414972497,-0.07943220079218963,0.09662988520814152,-0.1210283537931077,0.15155431459730334,-0.15343289816208877,-0.335968694689417,-0.2147225028039701,0.03203705050378628,-0.04271933443931151,0.05981415546041968,-0.040989102539029564,0.021280740300568195,-0.018521968801394065,-0.06321032235972424,0.014849689562407854,0.020379897339673603,-0.016302197962226067,0.2956243693507988,-0.5613083797041041,0.765769963452719,-0.6546168101643113,0.2567389604162238,-0.40261538339529257,0.13867078412026979,-0.3563526149172154,-0.11590375938452241,-0.644920725958105,1.0078286789571376,-0.30986459988119897,-1.0758413388618135,-0.4183090160659194,-0.45049654133406786,0.09072683094477127,0.3862868592861197,0.2345225409522983,-0.1469545332952463,0.15944806050664037,-0.18356093996417994,0.3376179630857065,0.24994428523574266,0.1968090257461339,-0.35580311763223205,0.01805482200930409,-0.0061533972281926225,0.06806932804880889,0.32907184703089964,-0.3712277423178647,1.7198830735272919,0.11961206164439413,0.3670055095946265,-0.24789681970770747
30.05084991455078,0.9288005828857422,-0.3390878663974129,1.1798741496152956,0.21461899244227456,0.11888696240859474,1.7099717974776212,-0.5359831457517855,0.41660543138898104,-0.023561902179600414,-0.5587003749993718,0.3888380745528026,-0.09845318560148836,0.13923343141468494,-0.12011036288958493,0.09917810695544443,0.015887192320241487,-0.10840003236788869,-0.468700910688548,0.33671408962815713,-0.2352669074407617,0.050116928351972234,-0.27550685686441867,0.7680926145365395,-0.34946296365951235,-0.041840236493864466,-0.3027705670093276,0.059696855043230454,-0.3654858812882711,-0.6095982528976778,0.9566878321176667,-0.2586309799305883,0.25495328071422707,-0.15437933984694857,0.23121544949281073,-1.381974928261763,0.09635644180768874,-0.0698735475655642,0.20070677789137414,-0.1868009546815759,0.20843080802848704,-0.4042746988654845,0.12866746521404027,0.2472643207280365,0.1397287843285723,-0.23318088675747856,0.8405307418053021,-0.10304133864114946,0.11673300361882002,-0.02277685264794511,-0.03222805683664349,0.015793018793706384,-0.009392875763871045,-0.30301597729409946,-0.14547279053269546,-0.16548443027143167,-0.43740895271845986,-1.0990200273970467,0.3017534762271966,-0.016897665586574837,0.07075402396102574,-0.0753535107133255,-0.10907918883549625,-0.19254136286438528,0.19457629476731808,0.006861354247754085,-0.051512356841571134,0.12799236239796177,-0.0409021357990724,0.11664651976871487,-0.061001894489498,0.0021562174418006206,-0.12749450079640703,-0.09396935474243417,-0.011607494149383897,0.07834820799752806,-0.1514343298595601,0.11800547992365237,0.04247202570141323,-0.14912258292137506,0.03477364424392096,0.05047907726751573,-0.1780770377816812,0.04387240859529897,0.02997609182098356,-0.11252031673411611,-0.14578314592014804,0.3228966416255207,0.044312336159177304,0.1870728565090491,0.23936253879206054,0.2280075013260853,0.16222882639479186,-0.04623552706323048,0.07199493927685992,-0.42350515951455997,-0.23615430967134407,-0.2570195263316274,-0.5769817279682175,1.006874200812622,-2.229866605331489,0.5970993195157173
30.979650497436523,0.8390998840332031,0.4369027115473616,-0.08665269138983138,-0.15903734330540564,0.1733656847046376,0.19176018333630523,0.33607201996803465,0.48003719283031704,1.3608118076006508,-0.2053700380307006,0.7958312721203735,-0.7611778182288735,1.0716620361932299,0.17620771957349163,0.05359561695764101,0.0006203544911816822,-0.6975650936434936,-0.10616755677474703,-0.3779850474596186,0.167527578538608,-0.15706708206760384,-0.037903598727797846,0.45950224823094055,0.7386536204631196,-0.5424636590842687,0.06842457266061523,0.0810663711425175,-0.15722351097489315,0.014975784070725308,-0.09180865729584653,0.017753501931887905,0.45080850252334986,0.12090071430669003,-0.08668552153845133,-0.20411044416666577,0.005595573524696426,0.05278864902806203,-0.01761172209201155,0.024744902600681618,-0.029065502822438888,-0.004079808408858531,0.02568961555604874,0.0851950048629071,0.07101616466702368,0.012567370119454864,0.021217399749958638,-0.07177540841755689,-0.342975267068749,0.027832607996136335,-0.06883810835588226,-0.1727621667585152,0.048357451708784076,-0.07219495028711434,-0.14728830106719,0.10498725427898033,0.00922586152816228,-0.03553204966344985,-0.006355501532312978,-0.1158393620643435,0.0847610427356431,-0.06846962288458117,0.18203076996329856,-0.030347942578170556,0.21684788600484012,-0.14835551030718042,-0.026566005732348075,0.05213050536618996,0.012976963871433454,-0.06827498206170816,-0.07592496643832106,-0.021966846124001037,-0.05553646419517969,0.008430176844622833,0.01923199854818434,-0.08212680897857405,-0.004094189392985006,0.007440617684040489,0.0009225650157972875,0.009808816392410921,-0.06685619972730154,0.03575565924515738,-0.015101729115917319,0.027539940191348734,-0.04682794417043069,0.003938217458208003,0.009479143421517205,0.004283880784345153,0.24185933901087703,-0.08582922344124029,-0.8094949968447628,-0.4129848809536334,1.0270952687471764,0.04438557538380927,-0.25284499753862716,0.5617727265430779,2.0952415447832142,-0.008099773401587552,0.1649879446514365,0.18711408069662125,-0.4874721272843166,-0.6096205317794439
31.818750381469727,0.8295001983642578,-0.341805893236216,-1.5950686312266493,0.21173374801383701,-0.9789124430828429,0.9716053571864876,-0.17322866938480483,-0.6693048923732066,-0.10773489186499441,0.17022454686533853,-0.13610002252236314,-1.402527537509319,-1.8501350499752003,-0.24997072716776453,-0.49603449179880105,0.10190347338294445,0.026911633931184693,0.05024751826702352,-0.012838177179600008,0.1359457783787019,0.01861750016379361,-0.21044517387062744,0.3024054526310378,-1.1846673196201443,-1.2861688173967865,-0.8070604244649031,1.707500737182424,0.37122623634620044,0.1452573713911964,-0.017199004243604463,0.1963973909999864,0.027420282863936482,-0.274988326100803,-0.8615954303980436,0.14808947354613725,0.12352728084775645,-0.2735784136800552,1.757803891128245,0.3283177829192072,0.0831704088757398,-0.14255112618853133,-0.0008545521313239276,-0.009191052144485094,0.010941873636875073,-0.028107111308044278,0.023433180358421235,-0.025896883682085946,0.04214096642458622,-0.6522402772433533,0.03674067925590975,-0.061803504781271924,-0.09625733464437294,0.0829726613791424,-0.05142256404282414,0.16243965417720585,0.014769582998390941,0.18695480455350208,0.07110150445418979,0.036296200058673476,-0.04667924701077414,-0.040685304310955336,0.2191475341858443,-0.1408073512193548,0.05071449169443445,-0.13393512730203205,0.05077437180041756,-0.01607744849052921,-0.0697156151728304,0.022232558915677745,0.09225577552522737,-0.012394722360366452,0.009676374921248666,0.10653036810613978,0.04289827411757391,-0.06804784010468286,-0.0028500629002273514,0.005836502916636522,0.019214785547437167,0.07473338203336825,0.13099753961885863,-0.05713397068812565,-0.03234882498630772,0.1540652163081343,0.046213042131488836,0.03416549977916278,-0.17523880347068055,0.5484582641305856,-0.17498685330188754,-0.10366447044825164,-0.2569040983549566,-0.21640060181208365,-0.43768805429651764,-0.2500944232228576,-0.01715880116467384,1.0369123399821565,-1.6386900194129406,-0.48213769028342346,-1.7846914872058042,0.7199714678279057,0.005423913664624365,-1.8089613607278852
32.648250579833984,0.8485984802246094,-1.3687558058252605,0.2282594697068836,0.29407330267838294,-0.2814113264301028,0.6524742909173092,-1.340391522196697,0.6426866559706452,-1.0734571342001182,0.6235517146631158,-0.21997856078071515,0.21110435096674343,-0.27720683703883314,0.11573508378782613,-0.17228212830295578,0.2758898326217838,-0.03272540310718405,-0.0339304493147938,-0.009839694921068239,-0.03378862148206602,0.0016125963634092012,0.026534162021203858,0.2689854475578047,0.08619046730450373,-0.004777039386040341,0.2106090546964997,-0.22391550662731638,0.38642332530554263,-0.016975546385840187,0.7479179898529245,-0.7811343882240104,0.2883207623554894,0.2238075126417868,0.04308988205450197,-0.3235011255631471,0.10767685319967372,-0.03690210391033357,0.12720044802920388,0.05846154111666025,-0.09403134960769546,-0.009721370166333464,0.03311182920643968,-0.0205541378078214,-0.014027771311163041,0.14813126864259277,-0.07062528968847855,0.09208595369495799,0.022992325853954484,-0.2576910288180721,0.007396940387304082,-0.41726299189571925,0.017736635339071643,-0.08247953076923677,0.08806199686317263,-0.11551008213039628,-0.0010064114000254486,0.019541030791500817,-0.10707111477910088,-0.00043466301350945924,0.13739948832792992,-0.0025317351172044144,-0.053355998517249245,0.06788273140086834,0.005634209122991327,0.11371055020323347,-0.09204043070265824,0.01449859218640448,0.05761905658268976,-0.04281920204502645,-0.049077772313767865,-0.06108699949315173,-0.015437830353630534,0.013219481289730592,-0.029893716905071373,-0.03839616165123225,0.052905381232858546,-0.005015765902080848,0.004091138615505587,0.010141465825209493,0.011553823219490274,0.016135930318613767,0.05250142707834646,0.008101271523743164,0.43165307557480076,-0.024581616382157997,-0.2721762662546174,0.06997209523409206,-0.2935572183195481,-0.2400422052425572,0.3645098969900575,0.7295653038945723,0.45885308691438104,0.3691627840630959,0.5997785160232756,-0.5222678274079486,0.3995694503759703,1.321926240805764,-0.05677970045029299,1.3203450604481166,0.12339248470019294,0.48960881955098356
33.496849060058594,0.88909912109375,0.5426625966609833,-0.0914210943927174,0.03485705997993129,-0.2779502820831274,1.556334622838654,-0.007916486192177316,0.014525575577324923,-0.07647756581493736,0.007598382755193367,-0.2639830421975355,0.14893751233202152,-0.07829761414097346,0.8030360632986482,0.01784988322624899,0.191412153941242,-0.04831309211768185,-0.004137703857220827,0.025827333654327905,0.08977912103540814,-0.4853485586113319,0.01863819822138532,-0.20090214225878125,-0.18462404930072301,0.06153649781324375,0.23499441441910135,-0.6678294603404421,0.1413223444650017,-0.05940131821019371,-0.12947034591639667,-0.003682391640167898,0.2658138581594007,0.2322609401088973,0.2937701156480184,0.11136114408097111,-0.06597961221518217,0.29673359577512703,-0.18940698846147586,0.0969841150134468,-0.05738521027762058,-0.06236060245979069,-0.010289525249518289,0.013533630636028138,0.05456441566785813,0.033572527506676164,-0.07434445866712427,-0.01787997766640041,-0.10518212505413292,-0.027303196771225037,-0.28246794710478496,0.26671076226058826,-0.07033897322505306,-0.015042259918628231,-0.11679481801818935,0.08044952408211387,-0.020069445157069786,0.13239627296648768,0.024415197397014844,0.013739592615569328,-0.009534792896176926,-0.018063775750248607,0.02388445470890247,-0.021985397212535392,-0.009458242973578269,0.057394487524279864,0.05304045260987254,0.008898059849843905,-0.08041324407239912,0.019985178541566964,0.013879879104904336,-0.009883990714932907,0.06800164177822497,0.009141246009240782,-0.006379795121586046,-0.031148389070372474,-0.023532643359044016,0.21780221080848128,0.2879072308841778,-0.0976481383360861,-0.04120277711324873,-0.07873680187847575,-0.009925295368654963,-0.012987334195739214,-0.034890675276406234,-0.008235947772144127,-0.05774674280899434,0.11711825133646474,0.27867781140387654,0.14068880052964852,-0.35101319794347213,-0.05202379717964014,-0.08233580590277101,-1.502104776162713,0.19369539244827216,1.6240750538607995,-0.38054455087685707,0.07351247982765736,-0.5542054502523988,0.1571394047739385,0.4033482992867892,-0.13710328381475292
34.385948181152344,0.9687004089355469,-0.29295015474721287,0.37473883569670574,-0.28151905678884465,-0.23112894018372188,-0.15671116438798494,-0.8458357170520403,-0.022510692694134554,0.17424610059687395,-0.11324527519106566,-0.11930062434480676,0.034031158058773055,-0.03273572208771171,-0.15364951235952878,0.054217188119014305,-0.03604165078332523,-0.265758025195968,0.041170351403100845,-0.06650742059339944,0.05767807387702439,-0.08574615782796433,-0.01717487334228374,0.11650950826750466,-0.3646659546881579,0.6394567067340482,-0.058678671645227234,0.21189277882336383,0.25454233808098325,-0.021948805456528494,0.005754952123303441,0.0013561179236002859,0.05425349037311656,-0.003185487229943908,0.05203159712851302,-0.020203410015223147,0.004657014691231604,-0.04419433675874851,-0.0035168317599504973,-0.06896832847906494,-0.019017678881530345,0.009158130687571025,0.06278691418087864,0.03439199744467849,-0.04327283993401361,0.0899230487669672,0.0513607397193889,0.027036051333901523,-0.10996152668113962,0.016143329841595822,0.11042302708316301,0.1163658605437943,0.06533857086747474,-0.018487926181292483,-0.07113304471933574,0.11773133596181659,0.23274919864513904,0.022182204486095966,0.18640249331497702,-0.09680434629485839,0.11327588000108761,0.0005851559557041031,-0.019858858594201265,-0.012484563192207594,-0.029748033516863587,-0.014612352873883901,-0.015634220528155236,0.01530478169407642,0.11888033437051646,-0.18189051178650426,-0.045855047766958854,-0.09851443503421362,0.0641013271227233,-0.24401599119354245,-0.23389953910424122,-0.17647098552376747,-0.18452625441666723,0.234172183075963,0.14644465370001036,-0.2308156307657598,-0.847856744582866,0.03631167050566016,-0.24752689510848908,-0.12326872413469263,0.072685390062598,0.18432781637894582,0.28813714679147856,0.13090928702687343,-0.22385036572627853,1.0257269128929463,0.34038786454755754,0.37232703189802785,-0.06365611849416997,-0.1623626079879763,-0.12491646146221258,0.24190645661628427,-0.317434391371722,0.5592801246794425,0.2568890891383573,-0.40051173027084586,-0.01033213821875352,0.38430767689655015
35.35464859008789,0.9592018127441406,0.21359319551566402,0.31085703145712296,-0.4543720117378791,-0.3358968599528068,1.7309292733842894,-0.8361308948626258,0.09916000425648533,-0.04175114647881052,0.09285432151639847,-0.3457469362236221,0.12459386784633765,0.09767200639828366,0.11489939921938647,-0.07845908337065197,-0.18845049479733034,0.10272651118087817,-0.6609759809518784,0.02006042097318987,-0.10966852598633545,0.32609673827747543,-0.09822700386039215,0.5938401468865633,0.34263859763923904,-0.002723076292739525,-0.1329133405570856,-0.9340392333342575,0.3200331214991635,-0.07692567814425645,0.11293776533007957,0.07548323391482488,-0.22244182227636783,-0.66906036306181,0.1691748127965581,0.15839800233484483,-0.12920090017487246,-0.030627638210116288,-0.10524057057654487,-0.034239099836367776,0.09054575435429553,0.058846625717338286,0.002712587738231284,0.16595812478025243,0.7479350781388412,0.09728639880479893,-0.058556172567902444,0.23259932165862304,0.03662287076952958,0.05770699835421493,0.09651017913183486,-0.05539090656897455,0.07927846967994505,-0.024877671625868476,0.1425768364773598,0.11891024120149048,-0.05335166458924274,0.29401934924922674,-0.2860174874565731,-0.1359289012629226,0.2816537338562054,-0.016556054761094702,-0.09292356051692542,-0.018518434198718847,0.017689836121868852,0.00712710720973942,-0.06375859307595358,0.03259620181161592,0.019391664111301686,-0.0775201028582561,0.06697412487055304,0.07646215875505363,0.015068858368684296,-0.012488030227464541,0.0670315423371459,-0.0240985399699555,0.0018774367988495175,0.1257432829228435,-0.02303251832858496,-0.0506167524773847,0.06942945549659585,-0.03759713358598607,0.13839031726878454,-0.03374501075993395,0.07793991752084943,-0.04873153153323188,0.0018666126431371383,0.02987178664989377,-0.08946154059700982,-0.05445674350898913,0.01027185252675051,0.05609347993642297,-0.05089235741052894,-0.7348096461122836,-2.0172548326219637,0.21134321432069114,-0.224937651849978,-0.4100923483814623,-0.5790692616255756,0.09043839822000718,0.27816598618368227,0.22238932933266783
36.31385040283203,0.8588981628417969,0.18796074987625166,-0.017090585563399565,-0.15415510678334166,0.40529407876442936,1.1789320372811614,-0.9806232763405089,-1.967998900583312,1.8207966924762375,-1.329187963737714,-0.7789120561247229,-1.5816215764081556,1.5352049173578601,-1.2207126367063814,-1.1207579599754804,-0.6191720572052869,0.38219686439842143,-0.07934389872696115,0.6101014377393444,1.327961575584122,-0.25048689889218845,0.04703203329548884,0.08868620671093518,0.033802681900385635,-0.2979323737095942,0.161377941304003,-0.08164010437161623,0.013405507795388384,0.12687366019412719,0.10459731612633742,-0.3786980855430293,-0.2529073634635163,0.3191365746286889,-0.040587714325801647,0.5951269533158661,0.08392005356884151,0.1595379577138416,-0.19363455390663162,-0.1124873550839087,0.0552258694149773,0.2368782568319483,0.00032965606232407407,0.3376144287246342,0.16648059512347008,-0.16512110878111674,0.006646169564666327,-0.01423338538746756,-0.1431041607912772,-0.01920159198622756,-0.20070955259007034,-1.0312810146520839,-0.8082217146516368,0.3526512730444254,-0.08515605865721869,0.028190461394572614,-0.024093285083883316,0.23794702071167126,-0.4613831880329543,0.08513706045715716,0.06367290945457602,-0.10359131719390191,-0.09875615174970627,-0.0007084869464464849,-0.05706145947590728,0.09314331990955645,-0.06514488997161354,0.16304204112846676,0.1166025932437062,-0.025046776725755372,0.044585912948859746,-0.07523297184163402,0.02997186929579934,-0.02213821600754728,-0.020860489688066915,-0.022815823359619524,0.01191784585628762,-0.0016612926169901985,0.010435859730337295,-0.0811245871204203,-0.006582617153603153,0.0050552372099874916,0.012005434666795975,-0.028050806774623408,0.027171428787084357,0.013002767035842931,0.022380150686859786,0.16510291296956733,-0.03140259463694198,0.5279698475835798,0.526040306293493,-0.302240348313728,0.8804771194952673,0.3614405036916327,-0.7368315208607141,1.9672762834486903,0.26546231852715596,-1.9038385664166688,1.1971761869659896,1.1395752669631578,0.4435979889467707,-1.3284574349304101
37.17274856567383,0.8385009765625,-1.4371822565558052,0.37805818509639233,0.18774650607869775,-1.1787933941353672,-0.1941687698614283,0.8261535626809899,-1.323029090798835,0.2626900536904426,0.002155934166269663,-0.12680966362201104,0.4109807335832934,-1.2605409397167033,-1.1009773010774309,0.10616027340275454,0.04060439093487764,-0.2967826527789028,0.4623436210658566,0.004787311397399566,1.4162688289746546,-0.22669441444970426,-0.33569665443143953,1.0550542216886722,0.06679614297673661,0.25295334528479985,0.39915364525123237,0.7428851128260351,0.328391282300593,-0.6001604753965225,-0.029958692732154756,0.2298329972320197,0.4835573866939338,-1.0141742631182578,1.57660864533932,0.4575671711040936,-0.0184025805531145,-0.04099080966614212,0.06166000315152855,-0.5749271669771149,0.052880696037056786,-0.029459576622128003,0.027270447341499648,0.06250483784056733,0.08760425903310749,-0.07330141784692133,0.08931193547394285,-0.16771957807411214,0.21788333566440934,0.07003567542563778,-0.39334559453961765,-0.03627860079510178,-0.082677138243577,-0.03649731885876883,0.004066667756176267,0.027738740568214158,0.06398836509156662,0.09782799218697691,-0.12816225871262357,-0.056149916520422116,-0.11211131454816671,-0.05253652312006288,0.004123584432536013,-0.006150940657184203,0.01558488836775064,0.11422862059932083,-0.014034701745033386,0.03805562099740821,-0.06632316966276937,0.013663710597038779,0.04811741650074396,-0.02206868954035266,0.016453683624247005,0.067479682270047,-0.09081400718743834,0.03727472009527205,-0.021219998804847276,0.00639929730818142,0.03205679671155294,-0.036830418885615786,-0.03822938682790347,-0.02793558040097171,-0.0235207278865448,0.029257526284110363,0.16862231606485084,0.053165902634633715,0.16855565403677214,-0.26820523886710956,1.5589743796429516,-0.010005625029173681,-0.3396339680606632,-0.6593818163318003,1.0293012992474715,0.5420521020057144,-0.07409294272863953,-0.5253995570164609,-1.8863681518114777,1.215692486121456,-0.8459721802684641,0.6577425558907417,0.07420258845490503,0.17448395065521383
38.01124954223633,0.8694992065429688,0.05490391370330505,-0.20528939360508489,-0.9346728848243121,-0.9111866448634326,0.1007740231268282,0.017561362964170074,-0.09154032891071975,-0.10362883329688986,-0.028288867506218562,0.06448831239020096,-0.08580769960531662,0.029569820804925716,-0.00539387007510804,-0.1348874708944872,0.22724273430964986,-0.0741167536283567,0.007913579857648671,-0.07121553769933635,-0.03770046502768504,0.18689612951605927,-0.6350530607378237,0.14145410574475942,0.2987845348079638,-0.20160265129608584,0.3439107660670987,0.23486996621755624,0.034219369048159594,0.06235929182006316,-0.01614127453486685,0.09735780983655248,-0.09944930977172355,-0.06208549598722592,-0.03164792218988545,-0.033869373186902106,0.040723923373048,-0.04612260901713371,-0.11935900733352045,-0.34890076847324725,0.0945652776935015,0.010104963378347223,-0.020008500747667538,-0.05282302528999676,0.04261391716383142,-0.16207180968670215,-0.10510060810679434,-0.05220805195393744,-0.22966259653721435,0.022367869339743007,0.055074702036456494,0.048523594681621,-0.07002110335093713,-0.021936230617037977,0.022069014057846028,0.00275767560900601,-0.14421168018879632,0.06016590358772118,0.012665115475583459,-0.10848849097070826,-0.03937408246383412,-0.02839531602332823,0.11665542688410847,0.030118979284952965,0.05112416231184313,0.0478162799361923,-0.027492317173341448,0.042878631834845395,-0.04935976848518052,-0.045602743592761945,0.050461490974707784,0.07062530963896498,-0.07250652263263205,0.08906421038387838,-0.08270460538024743,0.015660700159795555,0.009046401612166745,0.007187636200902836,-0.014341478417135949,-0.02389039363655187,-0.013593196998436773,0.035118115481803214,-0.13327679183251823,0.007804804631489412,0.07612036407791112,0.14513209994456924,0.2517474040930114,0.18118907841541376,0.8581317494408172,0.1296365553459005,0.1311083049832358,0.23176603044190255,-1.1425160423515124,-0.02627164407528458,-0.5521526243922111,-0.11572480803212483,1.552821826820614,1.4163395588468393,-0.1080994599503397,0.015692538228303615,0.2652054375089979,0.34176087519694875
38.8807487487793,0.8888015747070312,0.2668531235692565,0.036787264308946466,-0.28388428844185176,0.11550627625608331,0.29278787953239616,-1.0140171027911795,0.13123716182585246,-0.27291163532431123,0.10969473564728281,0.04181646168554422,0.020633170151195406,-0.10910718311810078,-0.18281042993255503,0.09363837169054776,0.03191168437284957,0.07195545861564256,-0.08763904435092282,0.1044005840324057,-0.05216792807140004,-0.0018677204543591786,0.03905032711376561,-0.009856971444366642,0.005478025151909573,-0.06590430890628123,-0.01013011950188684,0.11423890118737981,0.008224485484348697,-0.003233667379302768,0.040068949484681544,-0.012403786157973301,0.02720913196735831,0.07699902695636493,-0.015909601040679823,-0.09139045137274093,-0.001651352589577243,-0.03529069859973452,0.0471170442906419,-0.01755145940793549,-0.004997943882460054,-0.018623899291973577,-0.014201158957686467,0.02237739996107541,-0.022449429543248415,0.04688895718843356,-0.04207814652555165,-0.04570588426891661,0.21393875021894115,0.047052104968156754,0.12926510188306362,-0.02760343366308329,-0.1250167153899087,0.09736726361203313,-0.03872405473849013,0.11937512348444676,-0.001731692008827228,-0.050511640185014604,-0.09577264905179832,0.13619160955851298,0.00044906573663561146,-0.044093802593755525,0.0282976817002488,-0.003292681427281427,-0.039534292059023535,-0.0021634646661825435,0.003063907668760444,-0.020177544537955505,0.09692009108172137,-0.004681915355329322,0.021193636099044563,0.029841125570167618,-0.047360813516767034,0.030058601651544812,0.009586985135377738,-0.04740653484098471,-0.02539036189574121,-0.016286534101618125,0.0712146990630931,-0.05355303036733025,0.110141306823821,0.036930065212310834,-0.0666126589063463,-0.05264261265820787,-0.09232593442380736,-0.1731710248749594,-0.22712658291687385,-0.07715767194926113,-0.38849730984582775,-0.04833072544280145,-0.2561660442160377,0.06456907132391754,0.3121079891023183,-1.3993337661840508,-1.465275551673223,-0.2123032249360212,-0.13742980150422923,0.09107753729167675,0.137977095189016,0.9462066324564726,0.38598961593242154,0.30066146122896903
39.76955032348633,1.9080009460449219,0.24702558195382057,-0.3602529375651465,0.015470260216787296,-0.39889332056889937,0.18192261687926747,0.12181366475913877,0.15320342055748443,-0.20110225980264843,-0.2606760476468286,0.17408561364905317,0.001091251186423543,0.10558026268659448,0.08969100200881042,-0.14525334824627423,0.1107820736639273,0.018297553005724457,-0.011876698518986538,0.031246386834508588,-0.07418138354168442,-0.03120343529861687,-0.060648265021389064,-0.031864660952000246,0.004269826104507237,0.2572078178649474,0.48674491677162146,0.3695606266578723,-0.021643061682709457,0.04907598630396947,0.057525159145292,-0.7506263171161677,0.4133112424429536,0.04551109540929782,-0.15782881368040855,0.06684206580382032,-0.3143374788350196,-0.5425029161699932,0.7126173946144869,-0.16337024327177263,0.043129594933700964,-0.020464546206806183,0.035506392430409574,0.05223143156427465,-0.03775084470104115,0.040554282373573405,0.060809505209137235,0.08365275136613268,0.047804677672976276,-0.08161889882254901,0.005847793020783185,0.1888634497655295,-0.003423106422819523,-0.07811703030774023,-0.01539916919519864,-0.036232476835042104,0.2015716837891891,-0.006375505396987131,0.2500444544755841,-0.21226105468510367,0.13360880678802986,-0.08508019740135261,0.021741759382985282,-2.2219448357952733e-05,0.046878435010034324,0.033679404579834274,0.04473256765871528,-0.01624411888677357,-0.03547698845735383,0.04942051937958306,-0.07189771476360456,-0.4321079898650436,0.10550953837116374,-0.013020677828810168,0.023414358877948002,-0.03149317900597563,0.2323804108239316,0.011966211460825282,-0.11428657762873473,0.02001084981639694,0.15032643525715597,0.2098758845383662,0.14550832985083792,0.16080693135590032,-0.052899355686615135,-0.1149209790864277,0.007837363371002633,-0.26055341992643044,-0.27359468513800983,0.04114077233648972,0.731421928113316,-0.7731748525307981,0.07803969340390739,-0.7042032357882415,-0.8688904304723113,-0.035924760743414205,-0.3127965227341796,0.3952303957924347,0.47762779689240464,0.2857791587647253,0.32771091357636795,0.2820242338876756
43.40534973144531,0.8586006164550781,-1.6779753267546174,0.6427793259498908,-0.18779853524224405,0.000383432103491023,-0.5291331487530573,-0.8103711005353145,0.25094900033632817,-0.35154093307171147,0.29727827563771053,0.08257132091906844,0.18181441005885596,-0.11419269410635263,-0.2633698619159688,0.3941393434609489,0.015904721508705075,0.12146322115619347,-0.06949878081584637,0.006135865095605976,-0.029400990415379524,-0.02371953508969591,0.09016025016809616,0.14908495756523288,0.08426080531303434,-0.3567580414111241,0.49833204213143456,-0.49010820048465875,-0.1444532050966322,0.37315077115381173,-0.4535106163512023,0.12877855321008555,0.09597572601534739,0.12465886306532836,-0.1701741360708212,0.28957073964113494,-0.08205899435912035,0.17868329150064968,-0.03831389573255713,0.08774899676090418,0.11242994500078929,-0.2748501069738159,0.14521674847779725,0.02286477991390499,0.2427256142446994,-0.4147693265477315,0.23499881549827997,0.23766859347362615,-0.19638244732005636,-0.003855229140575872,0.04200265493467438,0.05625271144045556,-0.056343306933500925,0.05053869929608744,-0.004606496713598204,0.08009036517076677,-0.14013017061365735,0.09188712135855505,-0.10971052609833652,0.11347542807159769,-0.0750277574627106,0.03855156169010842,-0.0030882631481626444,-0.030130527921400172,-0.10500412678535642,0.04443227970181612,-0.018790472832259222,0.011614114785513111,-0.02524055051364754,-0.02295307395411457,0.04338423770825903,0.02553546431633058,0.01806251028104629,0.017881435278533614,0.04370252118363941,0.05512492154720784,-0.0034752150749435343,0.01875109360829819,-0.0018182321950741948,-0.03565151612613605,0.004304315904335835,-0.15408545650691968,-0.1400400747107304,0.09614295507481244,0.030484487912336843,-0.15177901358087323,0.11445976600904721,-0.04578379447889068,-0.4054100754123659,-0.57431591038407,-0.6094954645522539,0.3562551011118737,0.6314285529490057,0.04690653775234811,-0.16186043242338244,0.6899589861996476,0.2373874545993205,1.66681306173101,0.5767365655663006,1.5498227525748764,-0.19805091835158917,0.3205380877276631
44.26395034790039,0.8694992065429688,0.2581497952846642,-0.40386613557392903,0.0694891725583949,0.2821633030690723,0.2286577126606023,-0.07166290186373964,0.13103801840147344,-0.07443619723757879,-0.19388081649322464,0.08342000217675427,-0.005733201279445993,0.0454140021913894,0.015487137161396936,-0.025357082521358904,0.06857135212113169,0.13581713939929588,0.017495191296292165,-0.07309668833021601,-0.07150851627651607,0.014760156270541964,-0.0361270473693958,0.05450669399311601,-0.2357769325734352,0.17375700115404588,1.057837984768454,-0.6647183543320316,-0.19593150016993757,0.03721102127581564,0.027063127119668528,-0.14144123793707414,0.10361976993680837,0.15252582449405297,-0.030508035769050087,-0.017297425915836526,0.011526818780363456,-0.004591932369152632,0.0040835984532612436,0.022156599281490247,0.013410817453546279,-0.013805560938517307,-0.007160731757413288,-0.05731242248617613,0.011418836589843079,0.0018276866191494759,-0.07868702965245693,0.08116211880343793,-0.08368956787375734,0.0978075749808647,0.0390098300800901,0.05161349403848234,-0.10477718286753286,-0.013927540941499497,0.018741340382614206,0.02678424084581702,-0.06050842459330473,-0.017618496797665775,-0.04124919395136997,-4.622662674299942e-05,-0.1948383312160358,-0.06311864650422783,0.02480917922267536,-0.01705242024572695,0.07575435430858792,-0.04435416691605166,0.08608932355360602,0.09518982541448362,0.07935778593156617,0.003658119395029763,0.09761818397070855,-0.07451896166500628,-0.07140981293282526,0.07879432163271344,-0.05345926241214949,-0.0008357722873722005,-0.00811621751639005,0.005500800984657205,0.04589089896376783,-0.002109405079039864,-0.031403988069390175,-0.003688929401402401,-0.07469481168367917,-0.08675747064158217,-0.034328251322585615,0.08752450768064153,0.08032313016355633,-0.25482178509626807,0.3928128716259805,-0.3504630870717793,0.05482792639756051,-0.49860675800109505,-0.028445623386878005,0.2193426892496207,0.05984661231111732,1.218792817226877,0.0291578348561108,0.7285065300145644,-1.1830294074585834,0.4241724036225978,0.3321097582759561,-0.19352380130650332
45.13344955444336,0.8787994384765625,0.12947559589461557,-0.4197986689617631,-0.06145849435579961,-0.15343210101281593,-0.06147118700936473,0.2927422330846333,-0.5072041401497811,0.08072378412606748,0.09929563995921226,0.28243401302279203,0.07287585604963613,-0.01341781267443938,-0.20024096824950402,0.3252982997734732,0.18203937433956033,-0.005528400391806701,-0.005244156033548848,-0.004750730758472684,0.01798825819217546,-0.038937389451552326,0.05982288908174074,-0.08207845877552451,0.08358563400804468,0.1568845876198165,-0.037933197283120196,0.1342558437019951,-0.02838488017671193,0.4082362847254433,0.050230124311350766,0.010965515837620926,-0.05601838470397642,0.016704858466893385,0.021638722243576002,0.0941643097601366,-0.06852940439848128,0.05066048388076024,0.02994278553598581,-0.025038950070740366,-0.03370481616923014,-0.01107750283946085,0.01482332704556101,-0.002611183894352432,0.13132362193972322,-0.015245438406953115,-0.0527703609085102,0.08814502040483449,0.004416053185229589,-0.011532450051987306,0.028858063525823523,-0.18872096492984985,0.16335252291967076,0.046880917593603244,0.06591408173637225,-0.019791257099489604,0.09787382314680643,-0.005328200404298086,0.01926575655661624,0.012442132800037059,0.016822892161051796,-0.018319392014824423,-0.018299455735592978,-0.030130659128993452,0.060850005494369,-0.007320308344591603,0.018836357876308767,0.045725746105719264,0.05407412963643857,-0.02499355783571172,-0.020473108917693817,-0.1544653784621878,0.24672895527105657,0.14397917005316638,-0.06696478992137324,0.015725874054436897,-0.03699166499323016,0.0263109080804779,-0.009664184888154893,-0.053836441061858614,-0.04260722307690518,0.10439325636887768,-0.06309454455320362,-0.06775202215175508,-0.11561809192308042,0.21368501865168915,-0.3537379917774593,-0.04665218491754072,-0.1065003774971164,-0.03255602536238139,-0.0714183780365164,-1.2830215628688049,-2.175366829277658,-0.66093152299024,-0.3266067484467977,1.113622905290398,0.36726740159503,-0.5501392414588272,0.6739093578725324,0.025752602553600512,0.08457935915206954,-0.07015042614722383
48.72904968261719,0.8590011596679688,-0.04253552170116642,-0.13050065404939293,0.4393137294392987,-0.3031547721760543,1.1873307060347515,-0.7775212430042162,0.6326219913793112,-0.3476896296881369,-0.12951208220098792,0.09813007921880382,-0.04445912681374863,0.24299815279695136,-0.3122205447172653,0.09574636556820224,-0.1827593101783465,0.10794075348695596,-0.11712245958755581,0.28271409438927864,-0.28203865985426196,-0.12820510702655527,-1.057332150602265,-0.35291317433508024,-0.19918913511619352,0.24020873260238532,0.7418415158644935,0.006852062151634995,0.34321128944700596,-0.3424353240703928,-0.07051465622333057,0.473801846817965,-0.20879787027878174,0.33496998097423314,-0.16515525413174165,0.24031889074531393,-0.413637071334798,0.3226944736523053,0.2316444057542865,-0.08796252123591293,0.29261994247326134,-0.0819078655479862,-0.11925810666734082,0.363181486851552,0.11343142499660017,-0.09613072506934275,-0.18716670232578736,-0.08570365590211611,-0.046903845189734734,0.01421673290016435,-0.05642424251952799,0.020105311484758467,-0.14971188832428553,0.054765599594967004,0.0364041514936255,0.10548050767357545,-0.028510938743918735,0.12835273248194404,-0.20093703966010157,0.0623330953315115,0.010662300990212755,-0.053939131227319234,0.002578987161230787,0.010411800783622716,-0.012042437052459812,0.05017356420024183,0.05067203553144868,0.020498822577629184,-0.027207567085631768,0.03559515365979402,0.04419546120774773,-0.08698511102259658,0.0012833406092378347,0.05171556284528768,0.06285479335913684,0.0025587380315741388,-0.053066745210952955,0.001785607925197143,-0.001764021525743738,0.0348623624200852,0.05913360995902446,0.05221250814168194,0.10491242544731837,-0.15763600217577178,-0.12197060875476085,0.4096187172301496,0.18556975969671058,0.06358523540327798,0.034200298220464415,0.2637866117621267,-0.3191348493753187,0.8592050650399854,0.5214485341849846,-0.20654779856835853,-0.7943708234748734,0.5285586767914334,1.1299524585725933,0.9438762026778458,-0.11456181895404524,-0.17421955435049208,0.08573937857395134,-0.36292567925562685
49.588050842285156,0.8486976623535156,-0.3531070362651571,-0.1210468841066515,0.39985326089310996,0.10917889239632152,-0.3890293154408198,0.490716904860715,-0.6441978984876084,0.1126024515644629,-0.1723737895549468,0.18156224542080202,-0.13836001588699062,0.12130975596550314,-0.38411897418311225,-0.5622327367117717,0.23495254238694321,-0.07379342705124926,0.022594047572996635,-0.007965154703635303,0.007760752932967453,0.07565654992604372,-0.00319652107253249,-0.006871533306646945,0.027037573096162268,0.012412677760292205,-0.030488874758548463,0.11234563588927568,0.02005614476615629,0.12190766869850356,0.013185341381321788,0.05865146070834032,-0.16767586939970594,0.4178086665377827,-0.028001208157177514,-0.315009586424732,0.09196398419090072,0.0022995432374237137,-0.00587493102004936,0.015859031940397922,-0.011725793340115611,0.04546198382936649,-0.042944366838885695,0.04095503598830357,-0.14422898318997335,0.18796234105751455,0.0017980236938848655,0.05704538688147898,0.10701942170897051,0.06713229371777281,-0.23280798906109398,0.21218006143807228,-0.0610747056797393,0.0937403072539568,0.14741309662684732,0.0016722140952753883,0.026138149003933783,0.056554443178787196,0.026907508889399065,-0.06004511709802055,-0.025309391926790437,-0.0910244383513634,-0.0456165828511549,-0.08257874434270926,0.09412787823528736,-0.16415513107654658,0.05958750280999532,-0.06595744985252312,0.03892922535296984,-0.044929364772735715,0.03712990598540422,-0.07045912260911345,0.007678959741162076,0.03235078197813383,-0.010228119367264053,-0.018457725570899888,-0.022792201978935705,-0.03306156723269858,0.0682614786282274,0.019405728822231995,-0.021030724085704455,-0.03218054798002987,0.009412111395596702,-0.03863530753580083,0.0017409002242199114,0.0016621291516629793,-0.29119269073378135,0.24047903961737838,-0.31176438514408705,0.07271912037534262,-0.2418729370613077,0.7294454732752736,0.9591965587663351,1.2972427483597526,-1.4863456548427718,0.7236734380332023,-2.8796661673968567,0.7571349922906812,2.5192250999415946,0.5791116746299985,-0.0666280347393235,-0.028352365916017183
50.43674850463867,0.9591026306152344,0.1017963939326317,0.1380064884987196,0.19568038906325597,0.2230910999137068,0.0040589134165149796,0.3137457774961304,-0.049642633217184456,0.06812675316319182,-0.11678438104023814,0.1078022396232306,-0.16045599168839897,0.1184757126151853,0.20965918703099673,0.018010628672616616,0.139639075080322,0.0697226696123724,0.021538339276378715,0.0055966049000833185,0.08353040261201748,-0.11052546814498607,0.2686341061719729,-0.4977716276404937,0.10349606391575983,-0.10335237772560979,-1.0607140914838566,0.3283916472215181,-0.32541768810257565,0.16320954314916464,0.19014138651006565,0.053759410214303166,-0.03361107002497274,0.3080916341192338,-0.16137163621158807,0.25455451526676776,0.05008545136066799,0.04234816143451116,-0.21776322225766034,0.307232618421498,0.3899674233364993,-0.2276192962973418,0.8706859822947418,-0.13673612266661747,0.5302309248586097,-0.3192343274574842,0.11090799901613083,-0.07469948642016791,-0.8631655223979717,0.47917227611778423,0.3035383176819458,0.22616163922814922,-0.0018538095160646657,0.06613446756618427,0.06137301769891756,-0.10600537239655179,0.044651984827797475,-0.09051258930182098,-0.07151989375370432,-0.055801914263271066,-0.04118301937787524,-0.06752714396870985,-0.021842214387547285,0.15829180823948447,-0.05453597572962868,-0.017902075526396676,-0.031860536836008355,-0.0002964514349340225,0.027647432468052208,0.019462263765780086,0.012735157677262396,-0.00421615872937155,-0.04135583683761866,-0.03194645488203002,0.055530340936200226,0.08869042732171512,-0.036075563394774225,0.10195672700317385,-0.04120315058150541,0.12249015760977341,-0.12284693323370122,-0.0173318170974035,0.03871037681181418,0.10662907310049857,0.007402923606310285,-0.13485488851920116,-0.13723293342229217,-0.13292781053536887,0.13788827331700398,-1.1204067164394902,-1.0893018821549199,1.1797133238636544,-0.2548103271183006,0.6378304077503306,1.7201091316117825,-1.8948997019154348,-0.12376363576334237,-0.5291385238028187,0.44606968590831686,-0.32249323292220855,0.3035454813203174,0.41519792997357835
53.98234939575195,0.839599609375,-0.5319528115152294,-0.15081025292383998,-0.021919859115081333,0.2733125930887909,-0.20013612690446203,0.4016093160264919,0.2123989890018745,-0.04632918990830004,0.03527837804011323,0.11344371158542095,0.06504017587028128,-1.1061230213913915,0.0771264000192785,0.1641735869192147,-0.12365996477470062,-0.07706245709584396,-0.04735725720858473,-0.02908698532515898,0.08287411040807824,-0.17277939368391976,0.25915714388955813,0.07021710854328259,0.0892890239364798,-0.1987910512201256,0.38139809699952654,-0.39233472428552807,0.5673713824755,-0.06395553251725275,0.02511433915863734,-0.27952189420775314,0.05190493916179505,0.4069466024753839,-0.23292888882742768,1.117095412374699,-0.1930330541945535,0.18102499098079877,-0.09659645426081506,0.07418289746411773,-0.10057839044953577,-0.02531352362181496,0.0936097172239018,-0.01709659826993108,0.016811913151567735,0.0019278651976306124,-0.03349816568707873,-0.16903500107469221,-0.10213679681723234,-0.2702515490063701,-0.012889117249301973,-0.0670603246730734,-0.05896362271474712,-0.05982052431739952,-0.04967873327424852,-0.003823607021012982,-0.02988481629634127,-0.08188855279968352,0.05472174254670414,-0.09027293615438108,0.03669946239698324,-0.023524786113760986,0.017859536287388462,0.04810202375628979,0.004972674931974732,-0.05236398504146266,0.030613788408939704,0.028089079103354023,-0.021938378636343313,-0.04286779329212683,0.030780503908373974,0.017561800308864214,0.04263312863822426,-0.06968444552429338,0.01119450388181606,0.01968294998925083,0.054860067169929264,-0.09369999560368014,-0.012144801111558249,-0.018257011991242623,-0.008121000655073955,0.014899096898686098,0.11391217815324751,-0.017208169416811886,0.021528350996238205,-0.15400648478480128,-0.1855856331599013,-0.04131260102666716,-0.8112180121769961,-0.7525584887379464,0.21684920136159538,-0.455594393141878,0.18264516258511,0.6818897228239099,0.6963682728234923,-0.7027281991971939,-0.4741040045253676,-1.2261325389910216,1.0727844887462759,-1.4444050736372567,0.9196491538059618,-1.2467115958730142
54.82194900512695,0.8285026550292969,-1.266612427646565,1.4832344146508396,-0.44536407883212525,-0.15041424019867727,0.20403790875248135,-0.14972432265196262,-0.6570804698280499,-0.28537824099674747,-0.027843387350325523,-0.6049245812072842,-0.720355702159316,-0.13457887226465498,-0.6824233874594766,0.7836580673571523,0.37839478417151773,-0.1349092796231164,0.07455201092632628,0.017987695701755412,0.04742937173699664,0.045084188301663,0.07865050462908497,-0.6052430444268224,0.2492690474481238,0.07887304892851482,-1.4089207213614403,0.33642697266508814,-0.2365495492016542,-0.19034913714677743,-0.11055709800581402,0.17593761212008635,0.28311691627771335,-0.331956416599839,-0.047836875701801576,-0.348822158296363,0.038000215070929017,-0.04225076272104451,0.053848416694130596,-0.021611919343597054,0.029570085629866988,0.0412555432427848,0.028065177406606908,-0.04821422282635864,0.0046494808010349485,-0.09679382497070037,0.07534434075362985,-0.06319079468812507,-0.001649502222039109,-0.0004586425849392485,0.041332334609833474,-0.09299679273224176,0.0194983865624188,0.03340611405868383,0.040432890241401065,0.058352153190801906,-0.039525748349844216,0.009227549882708113,-0.033434061137450836,-0.022184466648925184,0.1728248877590185,-0.027695946138011573,0.1012601956921877,-0.11136832988944495,0.00958830865904394,-0.039765272974176216,0.005577208614795898,0.04971763072123893,0.0354700510632398,0.0059338652795926546,-0.11044263246932828,-0.0009810411858781135,-0.0015751998238329576,0.011759519209315466,0.0018752306202954863,-0.0793296919232657,-0.015372399313375966,-0.01760186502998707,-0.020267438956859538,0.003476357102120933,0.06440391024446776,0.059970057457967754,-0.0018174791689816022,0.01873501294467137,-0.0632279458241755,-0.02818619126911322,0.23246569006315362,0.1745478614613953,-0.21865382609645007,0.6212100863566243,0.5384360336368982,-0.27688093481376,0.20669835804098025,2.182752560961529,-0.29018248046350237,0.775747160446005,-0.1964055973945943,1.2143736683650783,0.26246580686939724,0.48766766434836684,0.21087428660846733,1.0331826505156247
55.65045166015625,0.8692970275878906,0.9636086104244497,-0.21045802385802562,0.04826944243359825,0.12121178816016788,-0.19584630399450687,0.5605825356042621,-0.1113538958841564,0.12963793774336255,0.109503688523429,0.005596572084923555,0.057435572591423435,0.06969848055282447,-0.09094472647754154,0.3980848980146337,0.2153380496496875,-0.2554450789932918,-0.0006896200588589751,-0.0501578354166152,0.049759867337662765,-0.046828016986550425,0.03212198607407709,-0.19698700289924562,0.2223278599446904,0.0009081572750219008,-0.0014118162282615396,0.07541197369228217,0.0741473835476939,-0.025915732511485302,0.020141267447554297,-0.027887842586076052,0.14029216309237633,0.0571400177858302,0.03848299582273433,-0.029498891908105482,0.08396268221738817,-0.1365517235932237,0.022341149126485393,-0.007091330065372124,-0.06296290915113345,-0.0877730489645215,0.014466713011374876,-0.0774358839835016,-0.002784523432098218,-0.2535230563028093,0.31151453794151385,-0.010457450821227635,0.042006417095182984,-0.015011836643326573,-0.06409289950734229,0.1661777590059493,0.03819078076882148,-0.02714957991042959,-0.03209133120629659,-0.09231648381101207,0.05609897002127535,-0.09620875338813649,0.08699384903437878,-0.06800210727146667,0.028783382191598678,-0.025828277828462462,0.004049341470440981,0.05087598326577055,0.036192080170814316,0.048222778241528624,-0.046815926925134095,0.05734931316881041,0.010019567114379057,0.041729255622781236,-0.01695403999742969,-0.056374044472710466,0.23506456155202338,0.0535785544556748,-0.017695899187018502,0.10643472679130518,-0.059814197642010215,0.02695559903436468,-0.008443905799887595,0.03599710166977284,-0.13393373650391055,-0.04731562908648411,0.08663267093037773,0.16108230849877958,-0.028436713974829237,0.011454248416146642,-0.15879951009154103,-0.1429827726149182,-0.2817565722285028,-0.11247428975862962,-0.30794924768404647,0.23380703690505317,-0.41928173927361156,-0.872510869094589,0.8282492357675547,0.5232917066300596,-0.17193906786431484,-0.759419316986263,-1.0654772605862004,0.21299114598748858,-0.6781955864919468,0.31789772062324384
56.51974868774414,0.9985008239746094,0.3931929008330943,-0.1629763022088876,0.3592896391386823,-0.4986491494570425,0.20269359283573254,-0.39037196267125845,0.15125451281868893,-0.0614535518205941,0.30504276714206685,0.22019864122473481,-0.07166761958498281,0.00920941800314324,0.030782910519826463,0.1710213812959159,-0.24020507720390702,0.03661801782023372,0.0008204048509349818,-0.0465947966995498,0.05540452331417536,0.009588860281337,-0.07519067245725464,0.03787405234843705,-0.07297117474697706,0.7471068959173971,-0.7240706634910461,0.6965128309868648,-0.356856998547323,-0.017965227022459083,-0.3249177364339979,-0.33417112133195387,1.5342224014595982,0.3471784990639387,0.5770129353140725,-0.2180046920687438,-0.30750597239738076,0.5245950116138379,0.3957392774889674,0.2464340822248328,0.6621339919450616,-0.4704178543302048,-0.19300830033086816,-0.36932936459621407,0.35839160022023875,-0.07448341487772128,0.01298456835156003,0.2817714371251129,-0.4173213303720544,-0.02879279137925503,-0.23957986838275286,0.2559964797961875,-0.19503027553114502,-0.02340700456587587,0.14986486431689922,0.02280397134220067,-0.15495654019684,0.01274598775471275,-0.02925874836284293,0.12708612371193131,-0.20285548869566697,0.15847417858381566,-0.2336212223628245,0.0779048137158027,-0.11248037090359302,0.02233103411161773,-0.04469836230917113,0.056121641094658344,0.0036734983848542707,-0.01819761481266123,-0.20261133813434262,-0.00457957976172986,0.044839441564523595,-0.11932970951116612,0.11197047899274588,0.028955824350849424,0.5782418949801328,0.3605135799854393,-0.41223805023953136,-1.2326341615766785,-0.08060414617583167,-0.006285103467050213,-0.23846342750466204,-0.03172519451784936,-0.050021095603379764,-0.21764705922870903,0.11771367407672419,0.6825647259417851,-0.030130089685953508,0.07035461473317499,-0.21216127287516967,0.2582168496746175,0.7781567513044063,0.11962480597689541,1.7531752236200406,0.10676671631717494,-0.3637651344277475,0.7849833726842933,0.17895710845257942,-0.06721166940576628,-1.0475867967571342,-0.050630740650312756
57.51824951171875,0.8894004821777344,-0.1435217500167031,-0.35777202567149374,-0.3687365600268463,-0.2708380103419056,-0.6434341225655925,0.20565981420934368,-0.1665022178794823,0.16218827926222273,0.2414257471102552,0.15662866978548964,-0.423614261633664,0.22041838976378242,0.3843696740231165,-0.20878363155221238,0.04016609867627552,0.22853182363588137,-0.8281679949673828,0.5759977688981097,-0.22858668409873828,0.5176244991734458,-0.3496289616453104,-0.30245948583541643,0.032312770284939125,-0.05406849878075448,0.4108304428398096,-0.4450550575760709,0.20074865050073662,0.17714094224845503,0.5494674505052123,0.4456667083960321,-0.33767736837306744,0.0003480979809716289,-0.13512157945232006,-0.5946307912679748,-0.7658657794646108,0.7270691732506488,-0.015695280622770813,0.07079143589082643,-0.023760091135993037,-0.0012641150468588186,-0.1190064826049514,0.061253477668539814,0.056338829413496536,-0.005050704588864364,0.07080011839680356,0.09148581127460252,0.23311762128373145,-0.06324438811286183,0.2378383212937207,-0.05562299456118677,-0.07559225325815673,-0.1295536180153699,0.013884369144565218,-0.15431836517324515,0.13665076394153408,0.016283737288192685,-0.0643510437761237,0.05688301032021014,-0.02593727990968199,-0.09411022078336152,-0.01494477123437267,-0.08854034423272539,0.0933811367342517,0.028636096033710687,-0.03249395889471023,-0.006309237545195273,-0.011707714775602701,-0.017849636540678785,0.06574803063253168,0.02646158996900109,0.04963682323028636,0.011834752192378409,-0.007706698333906455,0.150320625892073,0.08890781122378624,0.019343629976627225,-0.01519928896359866,0.01228301396474936,0.05091947887200275,0.07862945377456118,-0.01783403738366618,0.04995262072633845,0.05956995800684255,0.019038085971236726,-0.08613546654323781,0.07308571178752274,0.19120876579760843,0.3264036609358401,-0.052378996394928254,0.6114314774929662,0.09755262824330624,0.1388751640630749,0.2757475848697765,0.44033683372854526,-1.3214394166868648,-0.15660590155594592,2.0190754065879113,1.327563236169662,-0.7337459122584198,1.3618009272561782
58.407649993896484,0.8386993408203125,0.8852048925975298,0.5081385803649839,0.9348431071377975,0.7648229458802496,-0.6969747679737042,0.20528100216824252,-0.4930742561740499,-1.8938127872004222,-0.39135094845320817,-0.292230670334631,2.627491735631696,0.4004996124882892,-0.057720369485262275,0.10851749271906427,0.22462305256594767,-0.27044520864932065,0.48164842699339694,-0.3611905697315201,0.49088343545335744,0.002663549842052068,0.15117838496027242,0.27302805934019264,-0.694172020483898,-0.6210407866271979,0.03351206617803736,-0.7800386908703635,0.17109305047458787,0.047957171804260595,-1.1421985050502563,0.4929656159784054,-0.5705347223060049,-0.48847494195150054,0.13491977934127325,-0.4410705427292044,0.7385624515565172,0.15696913310599359,0.0011789219143159314,0.190997956910762,-0.1730710263126235,-0.4038698103677894,0.06730245531766332,0.02172166897547692,0.11657109097826421,-0.04801347629550613,0.04354098241670229,-0.09704218969063166,-0.04894150184600941,-0.32644807857611297,0.004183815598470687,0.12913704644557947,0.1936080378527734,-0.44530347868976183,-0.13091310521798552,-0.040015566536940106,0.04797875662377604,-0.20621238289484994,0.03541592974198303,0.04333498717669674,0.13523515296169758,-0.05696360146823906,0.21271171774793707,-0.04263384497218018,0.30959663263818166,0.02381891753185958,0.12770957214373566,-0.06179782350362448,-0.03401887331389293,-0.04308739612664994,0.03461477733170705,-0.03266380252985042,0.0652715679425091,-0.045783765635018105,-0.011395012943882992,0.0006058426072109672,0.057309066059263,-0.01473265166823724,0.005204016677968687,0.02362700892250598,-0.10273094517379679,0.024828386939661065,0.05812416459744251,0.004020828242350525,0.006492276362560769,-0.04520995523128309,-0.034272972544754914,-0.01613527518112378,-0.04814583999292248,0.4731898197282406,-0.744925379337226,0.690255120760879,0.1663361992163748,1.7284748367067793,1.3136435867230327,-0.6259124041038493,2.26555924516207,1.0785301369966351,0.043300706644489984,0.13279344838119664,-0.43592812729878705,1.0271874200785693
59.2463493347168,0.8288993835449219,1.11516614513236,-0.5647411567115321,0.859336259628473,-0.005593821345917821,0.003445778284226625,0.6756993244565629,0.21260043179313756,0.22855224050704542,-0.011624760864962044,0.01682434247632153,0.49435647744722894,-1.1051207311254685,2.3042971800669085,-0.8662678704089616,0.4568512522906093,-0.3014161755283475,0.06529900137126042,0.013084602744268047,0.08871325903292804,-0.16003353759419328,-0.3868224510500296,1.0140271489581245,-0.11253524231281294,0.2750191855210336,-0.0019830905400496437,0.021269277324697494,-0.26117582911554227,0.42115003680516444,-1.5504594036871608,0.22207600400810906,-0.02649559617082764,-0.02020369711371703,0.10458130844959139,0.012858739680344206,0.015087082416821513,-0.008110159172667893,-0.008322426817071911,0.027919642348630522,0.1292688276937585,0.029372609987850795,0.018925466461351452,0.046786925453561896,-0.0391870917802499,0.30723182445384,-0.07520009056110462,-0.1750857069064652,-0.20167265794857045,-0.23607754447613327,0.1340773262738152,0.003818924146665112,0.030353601821564033,-0.145911305838916,0.018394739974094042,-0.032791620447187274,0.02839091226195734,-0.03046414027395128,0.0372049511210326,0.026325380362006268,-0.06916234261991085,0.047062849267044425,0.08987370033715116,-0.1632015688535899,0.005581889085543796,0.07728583139199947,0.0074550507218131175,-0.08432166104682175,0.0938785046864577,0.007438199760489317,-0.00309588617317344,0.040316682493566715,-0.03345164055955576,-0.029543646463974362,-0.00018352530785790966,-0.06247242134547973,-0.0023381715054857357,0.06414798866530017,0.07674018957190579,-0.0449342190520653,-0.0246598973070971,-0.035101503013866366,-0.00222334337205481,0.019406308375359206,-0.08340737446867198,0.055545916141700166,-0.14766205402010169,-0.36398563584936416,0.10950718509713195,-0.1653615593444352,0.11176817672848756,-0.38111223584823917,0.704812441531624,-0.010283158329987295,-0.46268773118554624,-0.805593343948542,-0.4111949487646446,-0.2543309329571952,-3.538936617442721,0.28743736960188637,-0.3441684553966284,0.5659708343541661
60.07524871826172,0.8295021057128906,0.5788042473166312,-1.360823763447954,0.7533477204108311,0.2265991969965661,-0.6547314466055596,-0.45630130405651775,-0.03947236117523201,-0.24265575428868383,0.20526756110164351,0.06725347816137367,0.009755283688858285,-0.031211133610208386,-0.1468187027715136,0.20740697257186702,-0.07995047073406841,0.4437275865963916,-0.19231417830229813,0.017586220056122037,-0.0014014779403641632,-0.03846037520941778,0.01163104084312287,0.0038103328782273654,-0.0019019343299896366,-0.04509292756872977,0.033984683608063726,0.005390712253529427,-0.014207879272739086,0.057995590557978254,-0.012016085133504401,0.07274864210244986,-0.007729399668900294,-0.031398636859713565,-0.06746904668043846,0.08288162836263886,-0.1493050328392053,0.022413941840210352,-0.008378835587262223,-0.03641865776057138,-0.06935577603060529,0.10166300522207951,-0.03479218109217465,0.025153695184719466,-0.025794707500442913,0.017065251951649783,0.06844961021020676,-0.052033307665422815,-0.048779629771097524,-0.008318977566027418,-0.006450642348848824,-0.048892995767595974,0.07357385914027156,0.04017579865200908,-0.10940979700556497,0.13681594756191684,0.031175835570383954,-0.01373746372397025,-0.1723415718849265,0.10089116327760583,0.08727310027426176,-0.01900469576267668,0.025748133639716425,-0.08477539922937487,0.09254398926049104,-0.05755903160947597,0.06019049072260563,-0.009499534972371347,0.07327298811845602,-0.07757329785564819,-0.015235665447480062,0.051097011170196806,0.02434588779794491,0.060268513237807124,0.017407029197027742,-0.11414383502486963,-0.04550547084840072,-0.0348173709967734,0.04370552866975382,-0.0034785817245203687,0.040173073489497196,-0.10714366686687965,0.06730562005642901,-0.059227547860458134,0.15806654192730893,0.13285180128972834,-0.3194358659039012,-0.31104864403998,-0.047948341692724716,0.8023427749914317,-0.4949841305956084,0.523905240599366,-1.5228945090775357,-0.3261086333945919,1.4937166094593126,0.35526184390970983,0.7236609770708234,-1.76867437309409,-0.16327079273320516,0.8357321227762129,0.4209686520345098,-0.13308139744680048
60.90475082397461,0.838897705078125,0.14823460989421222,0.260411774535457,-0.24231280213906745,0.005965030242900274,0.14234098979606402,-0.1344351049964121,0.24965338493268774,-0.18962294786766368,-0.0709005759099334,0.23027872954463158,0.05927321760591844,-0.023668364851333522,-0.009611921041543778,-0.16873111711591574,-0.05034588811239722,0.03185154445240127,-0.1103426263106379,-0.028947597947155318,-0.025181725168837946,0.05398053665284726,0.051418304137416326,-0.23760012846841663,-0.010488699188123264,0.37587633077883376,-0.6091728045766371,0.4720149404563447,-1.3886175861829209,-0.00641216471501177,-0.005460999404092531,0.024141970240084708,-0.08513964863106657,-0.0008798193737967837,-0.007669792658752053,0.02349736950491204,-0.029901117988533885,0.08553164651568329,-0.02646696154115985,0.03227002346928937,-0.044663074874605586,0.005215569597643311,-0.00897152947335261,0.06102673571749889,-0.06396898116193434,0.06112909785914754,0.0590818660500102,-0.025348778731376503,0.07148244349232362,0.04594454672777622,0.15906859321855396,-0.10429288366986765,0.020288905223522474,-0.07596456732638006,0.1352835692197838,-0.13284511782868522,0.3350662409022269,-0.10483872215277446,0.01834787102190391,-0.14007436937091405,0.06380374826469601,-0.009091204730059376,0.053233119194806625,0.00793962088353771,-0.11466837295066629,0.04385251104547189,-0.033600965849732684,0.11894095357068017,0.11814792138068372,-0.015800315956621458,0.032800189077954976,0.041110454988432465,0.04449314294155386,-0.025052328478330065,0.11272855809467296,-0.034709337687752764,0.024550752126052285,0.0366480897620954,0.06516502254202257,-0.02730675669273595,-0.024936294083439055,-0.02246052808240188,0.10456208435956205,-0.10241115344159801,-0.09856673093091879,-0.0032669741496157596,-0.09414972155285829,-0.48479949309863585,-0.22297583820561334,-0.09874464836792146,-0.01727261057684327,-0.5291114516120479,-0.8677926344609905,-0.4356487712865505,0.7742325848697675,-0.12579147213381875,-1.684504985894948,0.9724243749674861,-0.7433979726610953,1.0791927717195744,-0.4748875300480333,0.06967780617748376
65.25914764404297,0.8292999267578125,-1.1171759369776846,0.6745199052499229,0.3198479961404348,-0.6535123138609353,0.6528550844123502,-0.2736087764956829,-0.05148962049422451,-0.3372430297556983,0.39548655930498894,-0.043723116050642746,0.1253325247621958,-0.13116727603018935,0.1756220500785436,-1.0300844986802449,0.38865606853311274,-0.08283829857949922,-0.23302936749802156,0.10694512695799051,-0.10384685287784443,0.3248590537278203,0.08865009950717972,-1.1245006091497844,0.2344329967287725,-0.10708031932297242,-0.5343918583099974,0.6201951494450343,0.2511703041247181,-0.011873664889571317,-0.4772530113350365,0.3516422265707422,0.0354514206214811,-0.8559128170919195,-0.6022760415528322,0.5258289084346494,0.036866680657563676,0.016074502565980003,0.1757866122952998,-0.2930847645127123,-0.5641998200016857,0.20543716545969798,0.05264385703106689,-1.1227762587580312,1.5330690814326342,-0.6473816616853073,1.0731193984245508,-0.3816842549540464,0.02999866976849906,-0.058771116056753,0.08442077979965482,0.004997901491586854,0.03338031613799559,0.021447596236327398,0.0672349624121011,-0.13803012275521426,0.1354265340005542,-0.09409380996481005,0.11504763366023821,-0.07536122298749595,0.05443697869271027,-0.0628772823023235,-0.025718692221537786,-0.01696987571104941,-0.1001674399130432,-0.04262916938351415,0.054239759692367176,-0.0024100944277195002,0.02116065991319345,-0.012077976264491313,-0.02402458232845297,-0.005736467023931704,0.1006850401373143,-0.06033395556284011,-0.11697449812233729,-0.019309800201797945,0.04086784965089702,-0.0007432086338632407,0.0031360744889922082,-0.0048521373020344125,0.006948008461843246,0.061126686333598176,-0.12641883185777147,0.1721485131050029,-0.004081712525900422,0.1255649990912791,0.07576654753698159,-0.143238566733825,-0.8569311164273934,-1.267265119747874,-0.44935547465190195,-0.0403746770622254,0.7521200656614261,-0.36630164224989015,-1.0473653836754768,-1.0861286778161747,1.3266941574792015,-0.3485187936005316,0.9813260964402218,-0.3389678011101221,-0.14877098106552275,0.04379177366951048
66.08844757080078,0.8586044311523438,-0.3285876229364376,-0.24287178795851927,0.4919400091956323,-1.2287578532436791,-0.11899784003247049,-0.7222492353117427,0.5317415788420103,0.11728205733651834,-0.038605335835018725,0.17901119454731187,-0.11030612401353916,0.1544932836162235,-0.3496503671276562,-0.47808318063393934,0.02317078260938757,-0.010692791263778902,0.1255832934203426,0.036092699123681855,-0.2707499670931347,-0.7254552822500178,0.025461887929402877,0.09817746600180507,0.11486343015165228,0.30418165075278325,-0.20329155609309696,-0.08296214591372067,-0.016579113493286824,-0.06404004420651517,-0.170101743443548,0.17516462911242914,-0.2272819738661576,-0.0031737287358916955,-0.024694518340115833,0.005422221745845276,0.003809074191826695,-0.06266746188163586,-0.013567685231316923,0.0025438565157762725,0.019724433161844437,-0.08237765283523366,0.15318195498041642,0.005313682663913341,0.09978369927902488,-0.05438808615614418,-0.1681114609080583,0.055022085941105775,-0.15824985932622967,-0.053731051483401425,0.008315410858757618,0.07993990135685834,0.09907023119481081,0.06504145303221691,-0.11374381374551396,0.02573151471123214,-0.024125215490930624,-0.15284545714478048,0.10697176569926788,0.024135670015226932,-0.03251538177346142,0.06295631066221583,-0.10910340072462832,0.0622944121122143,-0.03425209452240458,0.0818983535870187,0.0008304791663731222,-0.040066942144783894,0.04771090966751923,-0.03598723025570261,0.02878255334110238,0.043723968515627834,-0.004260452940966542,-0.04980697869286509,0.009817161036711404,-0.009874365697157734,0.00724358202704644,-0.056517951198482595,-0.036754008765656064,0.02990708299567499,0.001503712487764701,-0.04212744971893313,0.08811547800218295,-0.019988618005192818,-0.015049343978203077,0.2402634050513257,0.26568659328015526,0.0005979918705667706,-0.19034658226083034,-0.18700669413307802,-1.342361166828168,0.18973388219175005,-0.5616875194814032,-0.7976759174862793,0.44027763777209344,0.7171239168262196,0.20118866718809567,0.1812971829878492,-1.7205318089642463,-0.20121611874846929,-0.7161386158912787,-0.18072340164266354
66.94705200195312,0.8494949340820312,0.05803959788905638,-0.8333847134674575,0.3948253979014191,-0.24878696877394563,0.5246014199991974,-1.1649819299608077,0.5154994919547542,0.012857989546473778,0.025704856760378057,0.02456745616317571,0.17358374974298804,-0.08783509430842151,0.5336615812577892,-0.31010856694403865,-0.0016657222979403735,-0.08892153674360065,0.0878356878716898,0.00443728301390795,-0.0006961016967839771,-0.014154644632755196,-0.0018241370363582237,-0.012143109768327616,0.2816397423039751,-0.20999886805366666,0.17447251764527097,-0.0966073716727104,-0.03605136217623431,0.06436651866775063,-0.0992018403532068,0.3435870662537764,-0.3137762745966649,-0.06206969472372695,0.005768133591814315,0.1299551272655737,-0.06979263375158694,0.11108953113333464,-0.13059276736735442,0.04648401093444794,-0.025432126370805264,0.17456323304324542,0.040989501589619226,-0.031940818753880475,-0.03259965063952987,0.046183763515641865,0.03867767399630772,0.020084632204989565,-0.06738582847291764,-0.07962734536893049,0.01431283312745567,0.031730488427641534,-0.18431933385837845,0.10480681855698423,0.025931715002059822,-0.008406953254877794,-0.0006314174670354784,0.08789352794470419,-0.013936542692138678,0.033743447629301565,-0.010478914560681285,0.07252588457308057,-0.09357334833855993,0.04742807755240008,-0.008674267665324411,0.02530734321381571,0.01904272784397827,0.03639821748122857,-0.01693982200014055,0.009571477189923254,0.062145111698878874,0.035142713750830744,-0.004723161209462868,0.00019945969017176254,0.0397882129631792,-0.054682285389456894,0.003724805046820271,0.037609979078206096,-0.025286254873576938,-0.04078389604359721,0.08698456585217641,0.01052139008029146,0.15663351743018514,0.14142503088939873,0.025733680167035464,0.1708805109978278,-0.029612765443303365,0.03737862898097027,0.08890718742559416,0.3046855187490459,0.004882157495735784,0.1155812620315675,0.023025391442357046,-0.4977806989694735,-0.7183750696886038,0.5462400941762742,0.9159055603293698,-0.13122335804112245,-0.07975538947802473,-0.09235604029030542,-0.010476965019967449,0.06076327119189351
70.43285369873047,0.8292999267578125,-0.09410784645503144,-0.19479779286387344,0.3262711744115452,-0.2529705262061925,0.08352025396914672,0.6591449566804332,0.17408143818225763,-0.11463942594507343,0.026783340234514577,-0.02129284625132838,0.011684384448059085,0.16533932996143152,0.0657336519286095,-0.7291303388436441,-0.011327712967438085,-0.07323308859211407,-0.01265502531502792,-0.025920978060363184,0.07534187952122466,-0.1052109006077391,0.4726082740993256,-0.14705462267456887,-0.19663712005479198,1.1260690777874367,-0.7770076726107827,-0.42141410498722326,0.3990014076097845,0.9113153568613147,-0.3514345273516702,0.6208692581762985,-0.13652998132894964,0.023307032047667642,0.024380336501113,0.015263783467059915,0.08967682165779879,0.07031612883591395,0.001292947369740182,0.005857068291813282,-0.020151811353044682,-0.009508770057734234,0.03214866118653169,-0.019669662521707043,-0.03076812428653995,0.09131981761978938,0.003218658071985156,0.1122369086350966,-0.06608865878994294,0.02377776780214885,-0.0012022734946973267,0.15478586416366996,-0.09438579599611331,-0.0026072475085302874,0.11543666479623366,0.050224646634144436,-0.1461358155594693,0.0880320594934765,0.0014857681581198108,-0.0027918326108679233,-0.08107532349229726,0.002609172697789798,-0.05098442512188105,-0.011774012979615339,-0.05608105783615232,0.02247001460347273,-0.059700916826726125,0.0038955025964984985,-0.002138855961880168,-0.04376250776989227,0.0036132948019859928,-0.038718733185133955,0.022520984464274824,-0.028485841136318267,0.04366415179670813,0.024058432435069724,0.007438001929071689,0.020775749962605047,-0.003261015395961549,-0.004527533316983018,-0.025667402467063092,0.03468528454610028,-0.02789897910311359,0.10148669238185586,-0.04614637571291383,0.09632387506822015,0.07132579085286887,-0.5754494751150709,0.9656401792783612,-0.15270354131475544,0.932575795982508,0.0401062331370311,-1.2283854673342314,-0.2381616681489337,0.7114266715703776,0.9759962406866116,-1.2091908106191511,0.940750490589518,-0.888643754682864,-0.4857808292030169,0.5742061091235646,-0.7844776129561477
71.26215362548828,0.849395751953125,-0.9589375823400864,0.5346621185421521,-0.4074410863453675,0.1532373634040999,0.3326644645293174,-0.7646783296535521,0.5251738339104645,-0.18319824842308352,-0.08496234958022669,0.047852962694199634,-0.04563847673779755,0.08751559412586721,0.010669848388726326,-0.2191621957545145,0.12107924704366435,-0.07274037666022146,0.0013905726262610912,-0.034564518560922346,-0.029177641918041702,-0.019093340664442696,-0.06363644336788984,0.006574279809259847,-0.019267590310687643,0.09256065523711639,-0.09608929017475383,0.023897873970531638,-0.044666535554252276,0.07340531344409522,-0.04280425655286588,0.034023567292615964,-0.013029131251326815,0.03248195117541995,-0.06159756690738736,0.06835170039466339,-0.0013120871937804255,-0.06106052112193341,0.04251568749396366,-0.06433769692678559,-0.00304502515240396,0.03535821238393557,-0.029590561705219242,0.10224570793956501,0.027354093714482212,0.18203526380480384,-0.4644024345233447,-0.22516368045316923,0.02730234891098351,0.1707085936550591,-0.12054494835163064,0.1408295194090301,-0.12675234335501892,0.03394385310277766,-0.3391838788442941,0.04461017695783441,0.059446901629622385,0.06831906026689744,-0.1937338865879863,0.1743811693874171,-0.14263123959165636,-0.011062012305585447,0.0969547703848598,0.013168154698781388,-0.07963471599762342,0.06436777209850025,-0.09618768891229174,-0.05264805956270198,0.05296144166397118,-0.07212289238991842,-0.01404399775997113,0.019957171889207315,-0.02225332074495106,-0.04635058949639671,0.010768400003738746,0.012753633819742094,-0.005587512753449233,-0.046687052353816885,0.016862144143854552,0.011626050379872842,-0.047775184128614576,0.007420489396798185,-0.05819499566690481,-0.08190734773081987,-0.005543408384489763,0.027318851777327183,0.2525194923818254,0.042197149404044676,0.2805120262481926,0.07540597118766586,-0.008084259474054521,1.2620994583134577,1.085824138659666,1.0046560963807238,1.1505757954984799,-1.353929989581035,2.3687939614659306,-0.658848965019633,1.1887628467356657,-0.8534766289348659,0.33432674440236226,-0.17098580245915884
72.1115493774414,0.908599853515625,-0.5048997970062424,0.8530743990612935,0.013922623913295028,0.19203263497895584,0.030873000681187028,-0.047317516604036367,-0.05402714299870087,-0.1436437957168797,0.10033043447032533,0.053039215992121455,-0.17240245079622696,0.5313047124253171,-0.9475210265261584,0.10400942660180115,-0.16147313372131353,0.04297708903202775,0.01565035461618252,0.04432114353757191,0.023494812855785696,0.011712641888904548,-0.004075724042003069,-0.029061200556311912,0.2010243196419697,1.0536880883359765,-0.33869293638039755,0.16428537930614565,0.14455509866835448,0.04281492764569059,-0.02031397659986768,0.047136849526177305,0.10287955208830046,-0.12335663966881202,0.0026395748483960396,-0.0029755050925749857,0.026617209903563206,-0.09035184870397067,0.03767581175260874,-0.06507243626537158,-0.03427854872688793,0.024045875997413296,0.09615480098901909,-0.056436800189850686,-0.04801387059533654,-0.0752321193267711,-0.0486236826762864,-0.0942983882490661,-0.11648591287634891,-0.16827201553633517,0.012967243028978573,0.007583001710089977,0.06179447863455843,0.03508414239406969,0.044960401175099085,-0.009654488876297856,-0.06670623678346406,0.05573552469055364,-0.014880679328341497,-0.03636172140062198,-0.1752517447205075,0.0703559604407071,0.03696375220711755,0.11467004459221673,-0.09330643411003844,-0.009002924353103244,-0.012782163567915311,0.03558981985881704,-0.013588509722471581,0.026683986635002845,-0.05977265135713694,-0.028767351439008534,0.0566308631403068,-0.05285384253321986,0.09198567555322812,0.06217001236647265,0.002749279056634045,-0.022159160054017975,0.025426751044921633,0.026973826082621926,0.11875024178738593,-0.07370417490040379,-0.2765628445194601,-0.023814861862059594,0.09776096256816413,0.010961918098220707,0.170785814668576,0.18323255798660998,-0.14623679068638507,-0.42196596957581384,-0.006806052553373743,0.2756241482085581,0.7502354313994932,-0.7188568200302398,-0.2776900829282684,-0.7289512996280957,0.040286475649264894,-0.33631512717407563,1.159119549500847,-0.16302760892346146,-0.1212476014619213,1.304841112638015
73.02014923095703,1.00830078125,1.2250245516369858,0.2014231271102121,0.43219074782414724,-0.0724182661393521,0.46436716123426514,0.70712819565412,0.5368340881553323,0.16250089195964512,-0.08926077474243924,-0.014173237945566138,0.0935134281711837,0.08046999205843655,-0.2887566370924368,0.1634479637325325,0.1757234700311472,-0.15048394783034946,0.05032504924641671,-0.026536983974539047,0.050031543435334135,-0.04385945922654531,-0.0024499106483743985,0.025147412852195804,-0.28431002524405685,-1.0337951709553321,-1.2687776714540078,-0.2021154301539603,1.412008214796476,0.6690444959278733,0.007445890830496047,-0.14964233955748996,0.09864008454240344,-0.04258987950341174,-0.007287229252337685,0.8744733994215187,-0.4649819786240984,1.5943682986069805,0.012027344789875105,0.06183171338646843,-0.10727961104934959,0.029200393794025767,-0.2228127789378318,-0.22639877330279126,-0.16864893638039935,0.05204916317043713,-0.11474155083181424,0.013597068144553272,0.19531362912220465,0.034813044638941915,0.24417336549915303,-0.010983280315784355,-0.1433777219143338,-0.1604304832012881,0.13601920079551796,0.04644893916101768,0.11067140660444486,-0.2230445615099459,-0.012709063322146228,0.1897027822157274,-0.017885794184521367,-0.019959058421791784,0.06903049983263722,0.015427238822635829,0.028253207967020237,0.057849693475105685,0.01678897607857309,0.06007159635799264,0.01924120789518731,0.027771788017783995,-0.25215623552197947,-0.0073008412092335434,0.020843486668091785,0.07183357149294696,-0.08409617340286296,0.27310513955817295,0.19784635911218829,-0.6441489587388121,0.011953668103492618,-0.04565627381301044,-0.5909248511755356,-0.2082022992614627,-0.32116339754865547,-0.01815658941958235,-0.2933518871605863,-0.03980921150419566,0.023770055526625866,0.30997861660561093,0.21129188792335823,0.14945677667344698,-0.02415310248835338,-0.2157859843382914,-0.027629349209340723,-0.308167489937202,0.07200603917672743,-0.6288958579158428,0.35549690437933706,0.0003486648896394162,0.14373426987178217,-0.7414367002744773,0.31754513768182413,-0.44945835605506124
74.02845001220703,0.9095001220703125,-0.4519735789477719,-0.01591948612198632,0.6686754220416271,-0.6683867708899983,0.49670847927823886,0.23978260954106925,0.03260229945120391,0.013141158905810107,0.08982605848639882,0.4510828500389282,-0.055051280481476714,-0.07094796092338479,0.18352258267641003,0.5364446443847565,0.8819562651951158,0.44634219695537664,0.42964388510519613,-1.0273233530688517,-0.32907352137848433,-0.30254335598601195,-0.2507106282534992,0.19909328151095407,0.19211237270894194,0.002087323605695084,-0.04403284036851564,0.11764920878568512,-0.3530375306528351,0.21392815322066566,-0.09492668344729342,-0.7442647038448248,0.19993782914319153,0.08135605141986971,-0.05526392541184727,-0.4557813527859333,-0.39910834539099693,0.09515383648488406,-0.02404867462087595,-0.0016607435024888475,-0.07057222425798505,0.00830838553560182,0.01194301342630688,0.02391103554988977,-0.07059597434447626,-0.09575514564920727,-0.0696437748047376,-0.025214791437688403,0.005978057416431107,0.03259852946725371,-0.09856205517248778,-0.5152092447228396,0.1814858169867915,0.12410178429060031,0.044177878627835475,0.016856650237893636,0.14200571382008265,-0.001505218802522836,-0.014244963316596377,0.27152223697177214,0.09825506113873163,0.018022088836845255,0.006072837471578008,0.018745872468881587,0.017158123900018276,0.006626932728014918,0.06961696601036337,0.06519707349404857,0.07340533188084382,0.028364223093223506,-0.002738861723086704,-0.027794980508020758,-0.03848126212041058,-0.05730330239656586,-0.04930452348815574,0.08210452709857838,-0.05258166200488313,-0.09537028016269612,0.023794296409147788,-0.09696860691978888,0.043984293048071464,-0.021863520751511788,0.06374600119397769,-0.0446275394811304,-0.057777275785751835,0.04194310414519525,-0.07214583070235359,-0.2571088356565312,-0.06058652960260294,0.1814737469674256,-0.44597357173972885,-0.014287639120043487,1.0198878031963257,-0.022406199245673105,0.4989756240584935,-1.7394362251001019,0.14421172868365437,0.6199261081543581,-0.4385123786158023,0.27612532892043445,0.4835693588324066,0.11008034553110632
74.93795013427734,0.819000244140625,0.19613111804349664,-0.22559314465019484,-0.04898891394314106,-0.371250299458593,2.1431314702161903,0.5964281495738201,1.4569065094607367,-0.0460768658135159,1.2989064791385805,0.28762214775618516,-0.23892981085222845,-0.11789798861673188,-0.21877384720871912,-0.23788738144746058,0.21210258773982904,-0.4226224396577374,-0.19304044043377627,-0.07373609701547452,-0.06738969470096084,-0.11350712305903873,0.4266530710074788,0.09271070266676315,-0.07293118251182013,-0.19769476490063698,0.04366373164921186,-0.48648789645310664,0.732728551492876,0.4581253019791496,-0.4176725387691681,-0.1346424004507755,0.63024186685784,-0.9751400662643237,1.5326978512157443,0.4043778144498665,-0.4929700927655891,-0.2324372690081833,0.012334221037271059,-0.010458094880081596,0.004758225818346908,0.02009304828302233,-0.18071657046948614,0.03597728161179069,0.056055416325154685,-0.028826846777249903,0.04639089317763408,0.035280887485920114,-0.08256158994742382,-0.03030102752617611,0.0662564639944149,-0.06170041090280636,0.35933584362933724,-0.236075272626158,0.0386352199413472,-0.04463575196460055,0.11927580712569313,-0.08201102525255699,0.07973175727690716,0.18467901998778835,-0.20397704251168522,0.08972225526141471,-0.11054303412131385,0.026939012413351848,0.03754218444498671,0.044227354857644736,-0.011679141998559949,0.017907578127257934,-0.018020924737537157,-0.053877043951599646,-0.042727220254331746,0.0026835469739616424,0.05996086082730217,0.02929255199390098,-0.007203206081030668,0.005608099556142009,0.09534271033560676,-0.04334295024337422,-0.08314548007807784,0.10221558787560588,0.03773313703630715,0.040527721388627605,0.011375598198612233,0.0014422156648153108,-0.07808448921240098,0.0010910265775593972,-0.09495949426211403,0.04091869591874904,0.005830711189212523,0.32323059014090066,-0.352642072061196,0.044860365393548096,0.2715371682834546,0.15890927661258214,-2.0321484693958247,0.5893761831730681,0.6927769504708504,-0.22266694829178946,-2.619618411838221,0.3764271399463274,-0.6660161462044051,-0.7318128823749552
75.75695037841797,0.838897705078125,-1.112842366721984,0.8545531479315925,-0.7543730982784183,-0.11246293009568892,0.2985511052711799,0.23160594997089842,-0.7397187347870736,0.5789634543366364,-0.13500650594255312,0.2527063140624819,-0.40865934714415875,-0.08167062033067335,0.0020395819529558396,0.539150974474292,-0.1400072385948012,-0.00622955200723041,0.09697710223265542,-0.0705007371697268,0.06629396657402001,0.19735428329622334,-0.41281551888673723,0.11576373740185703,0.47557392595794035,0.052835079013144305,-0.3649336530019889,0.4811820063094825,0.19706439220680336,-0.05091637692668316,0.02507686561442338,0.4032254484325398,-0.5897445064624213,0.13855371013393755,-0.19259986311587432,0.03940725291224666,-0.003626348944254702,-0.0057789193984902785,0.006332607778146254,-0.04189939368854401,0.07555895583131057,-0.09689699268001875,0.22935165849521663,0.08134531306469671,0.10895975787964303,0.09129035878370485,0.11635673298414274,-0.1541479364886585,0.02666502626129431,0.12503760175057332,-0.17524798305478914,0.11143817594171442,-0.14514559253066212,0.07007286981503758,-0.3215920751350686,0.18136294996504426,-0.35602552387039194,0.06251784167413772,-0.14928292350861583,0.10102550989762528,-0.07208893965210918,0.04332242623086356,-0.03342506458466436,-0.13272714391008056,0.10576513195754694,-0.012789125246850077,0.09322631634190244,0.0949820774446708,-0.1410919710704834,-0.03169736934063992,-0.06140891748995654,-0.04597500168807324,0.03784398595899635,-0.012685680827185422,-0.00461124824329716,-0.05572864309585214,-0.008760703410814481,0.029450229096500566,-0.05548252820826758,0.0730519008207631,-0.02316106016119854,-0.03617635671473505,0.0868506960376852,0.06651519176015724,0.1898293749179557,-0.06758284012505282,-0.02141558748231702,-0.037208073700196576,0.3896169131933589,0.5880833980319338,-0.3803820633267645,0.6112388624043628,0.4289500645482294,0.09276861622200733,-0.6225853198315557,-1.2739541600677933,0.9943484783080345,2.288964939656018,-0.6983748528163873,0.3977249185720874,0.030614857900774575,-0.33281533499940286
76.5958480834961,0.8591995239257812,-0.49931908264336533,-0.34457194824610726,0.2492015324156538,0.18506578710172608,-0.4342202828398388,-0.026971272218152202,-0.43322248283408926,-0.013498958931768255,0.26825759398526455,-0.15505806847103176,0.08541703484364109,-0.01282394399582533,0.2955683945039645,-0.4228947014880652,0.12601865755611602,0.05752612866187749,-0.01631719541410433,0.08565245790526002,0.02050369199554803,-0.13368410194415536,-0.25298697447541724,0.6766310064694275,-0.27467516106768075,-0.88172470159339,0.7814948198202147,-0.8436116679980664,-0.11062872601610278,-0.48202841677022185,0.03936567881949701,0.06156708903628014,0.0046718271338042905,0.03693769789547913,0.010128636933236316,0.004582877109998247,-0.007301715142246696,0.044235043904308054,-0.13596516330771508,0.013087368952584378,0.005830819750583762,-0.040341106817955,-0.09492221683072463,-0.013526231978160427,-0.06705985493844689,-0.05194700533677369,0.1337812433216285,-0.020915901057008343,0.042468396283309166,-0.16001141464692226,-0.22526123095752457,-0.2767242241088418,0.19832882985515235,0.10034257456156387,-0.018418789929611327,0.09402124385831165,0.0631705371848568,0.01420126743536776,-0.039749595086158024,-0.052870881054038185,-0.015051764990331257,0.0513126983653984,-0.056250446713054715,0.01575997909853762,0.11093746267229432,0.0018182197161205778,0.12677298600041487,0.03325422260021227,-0.03668084217414114,0.02778720709806593,-0.05701553777020401,-0.009112076636059549,-0.01878798241307148,0.0842972573907734,-0.04435028993245858,-0.10296834915743053,0.0026683445679692593,0.010034629278623988,0.07155338531467456,0.0026805379375743257,-0.022270326186061326,0.056154604945528055,-0.005816943359078372,-0.18624578007955517,-0.024328760785827217,-0.03223529756512593,0.13685663340745602,-0.2731388011825232,-0.10682489710461646,-0.888567261436733,0.7769682031812435,0.32968250312159725,0.4264016519372643,-0.36820351609485447,2.135953619998815,-0.9276980570555956,-0.3940911166862436,-2.618787459043937,-0.7474399785322211,-0.13135376104646249,0.305128004569317,-0.13510726272356077
77.45504760742188,0.8689041137695312,-0.1926100178741793,0.378557532834007,-0.3018536423161722,0.37982778574119636,0.6727515788206699,-0.6279780039270523,0.11792397074798432,0.06872713265228013,-0.051901793377582606,0.06557515727909195,-0.12766272164655484,-0.009774577784485506,-0.08088987684200591,0.33142066680544136,0.02127121347060979,-0.006143800126020324,0.008325182106145381,0.07846294653834719,-0.009096282749530282,-0.07880882476837786,0.02598561652065896,-0.011536318980808764,0.031076672950318508,-0.09913509386535395,0.2786755834461295,-0.2903034433434506,0.051383238527181824,-0.02814264202149149,0.08981290513190843,0.029404925717930644,-0.015248810981491641,0.03595174724878204,0.0692930828222153,0.0631932566449069,0.0431137858829734,0.11723076029817533,0.003900932994392939,-0.008148100043260014,-0.0130239344329693,0.02137155192798581,0.12966550524399062,-0.046447835705411576,-0.11186622669917069,0.11179914300384756,-0.05377915256066964,-0.014346447336869596,0.18256324064498927,0.18768269759402342,-0.15896399770779115,0.02747783459438842,-0.10864356353979894,0.0018042401140298857,-0.07291805294162906,0.11423084467526255,-0.13616049551719256,0.12131782710452253,-0.26453044475318177,0.09545886663982024,-0.11627265996328671,0.048960069851663485,-0.0876296227391754,0.011322336959965842,-0.05862732356920702,0.0445532949834284,-0.009929408840036512,-0.05958245193132297,0.06010588049697667,-0.004981118463057297,0.019252459184502534,0.041166500213425536,0.024250932462279717,0.05698193353270437,-0.011060909904123884,-0.016592511693696684,-0.06319014523790954,-0.04659271189382559,-0.054339820531995785,0.0022159516049613127,0.029603126747215255,0.01862311309875369,0.04468671613899243,-0.0744375293261482,-0.006484797177700377,0.030152501590189177,-0.1357814674088897,0.006019020981323703,-0.5447517407099909,-0.37029600330603946,0.4463942744846408,0.17586093044441498,-0.49472360908397567,0.3395249365379679,-0.2822114057011924,1.0063311948958706,0.1878909082238394,-0.8666770583773888,0.8345561457536946,-0.15657223481855492,1.143425653964111,-0.6586356542254471
78.3239517211914,0.9789962768554688,-0.46341810205438694,-0.010938844308666762,0.16175739741923403,-0.6832264424549334,0.2553015805991353,-0.7579840009534031,0.2958124565582151,-0.1624012420801596,0.44068683957108695,-0.29878566261664735,0.023501593956486454,0.08158836286023255,-0.06402617895187857,-1.3820419258814491,0.34624269322376444,-0.020194947657249638,0.09875734194253863,-0.047422079199090146,0.14666460806893578,0.11668466980839587,0.35741455633404207,0.3207161961031314,0.005855516767392953,-0.7035040230704577,0.7816517763065273,0.2018608678301363,-0.02393668223281504,0.055892434051451896,0.2360615081576273,0.12437245199250298,-0.17807689418036377,0.6334904702207409,-0.3112311635442514,0.03283644601194505,-0.040125109119945525,-0.06244390327912151,-0.09012733007339802,0.7460896221559332,-0.17548757185938735,0.28793789166268285,0.09788206943633618,-0.28043840364052763,0.5901415450167585,0.7210129434939103,-0.5081092025942493,-0.12544106587760248,-0.43479424694963636,0.1903853237476341,-0.10619917059669236,-0.04533038283805387,0.03371459158541036,0.25689653755027975,-0.08499601812276777,-0.028813775975048455,0.020364772906085515,0.033488129586771456,0.12507007024472155,-0.02508897716051522,0.12558056174740495,0.049969842677168204,0.03235178870265898,-0.0022605991240165816,0.02749295742823474,-0.026006702996151283,-0.049211344262573856,-0.08369209198807975,0.059468921874740885,0.024307060079868145,0.3520798872256384,0.23467688286006624,-0.00258572583951297,0.015857390486050626,0.02684449598964481,0.3135012390862378,-0.417019805443061,0.5919502029381488,-0.14609547728945316,0.5184124569888778,0.33457635829516646,-0.12028425152977885,-0.1037437064650722,0.1222759267948246,0.2560101954268813,-0.18214281449157319,-0.21573927924832365,0.08875908152926582,0.6939656211700034,-0.37848405465981455,1.442317415897065,-0.5884677172372372,0.27371122798175945,-0.34964808983847856,-0.7511401139565947,-0.12441468560314844,0.04908630995483736,-0.7613742694322947,-0.7896718965523486,0.15695754578740298,-0.35070071749164544,1.0438520383225531
79.30294799804688,0.9388046264648438,0.831602902866173,-0.018510127999365168,-0.38646531796976163,0.49468645117247184,-0.010010857600343454,0.3954935994211257,-0.3373301426875724,-0.07251888660028918,-0.059710937300386235,-0.08228238647701198,-0.13981302961627085,0.5841290976126617,0.1713296690379624,-0.3055565310284874,-0.7784202316716545,-0.06932613516408742,0.1864887668461347,0.13392466784213017,-0.11588582627812578,0.1845472534958108,-0.492782863621614,0.05894923889040393,-0.3350627375604621,0.17167656661004377,0.6424804100327883,-0.04667017496704104,-0.133113549745471,-0.5402406776777077,-0.1383689715566344,-0.3334088010762383,-1.5623263421139029,-0.07974250357974536,-0.01729534432608432,0.34825402267476485,0.1264627727486297,-0.012109804632492848,-0.22489691123478156,0.12921653007527445,-0.4823191821640949,-0.04866610312247296,0.3098283894716895,-0.02233660073764204,0.024420228997923923,0.020020454645647272,-0.016174020583204066,0.049093125262151635,-0.0442191314420387,0.007992940405748333,0.02741742017447177,0.020689014097883398,0.03388472251021575,-0.029268768436790136,0.007943767863642046,-0.08705525297818485,-0.07766291396528036,-0.0946699570929709,0.0017081183663508652,-0.061075880368870086,0.07422062115845693,-0.09554661676561452,-0.0037456805608708727,0.02671542913681387,-0.05731299167814566,-0.020789000683402604,-0.058806802725517936,-0.010370368915173863,-0.055537859769555796,-0.016968336898733265,0.005790703477187133,-0.06032716861047924,-0.007980354438607808,-0.03432568929261964,-0.07899397832566456,0.009323382706065853,0.16457407553714293,-0.06658778134148338,0.08012311476606813,-0.015031002744833646,-0.0051170071505854675,-0.0934563160734521,-0.05625009754858571,-0.11022946157697885,0.020208405648729555,0.0019499867747396343,-0.023674694870870837,0.026067930799243133,-0.25182872324208344,0.4623047637690052,0.3545575605069251,-0.41579188115579274,-0.10718766310419761,-0.16837176032319606,-1.3063612595073122,0.09963064939890168,-0.07489875995479692,0.021198877967670005,-2.068863177168485,0.6412563515889265,0.41902282616009834,-0.30322649094268883
80.24175262451172,0.868896484375,-0.3042070307757704,0.3668532038298551,-1.41353894221784,-2.3741941981748678,0.04489701700037613,0.5109181882721443,1.2490447316594604,0.3820494195971119,1.0566091393592103,1.5073925551252416,0.14925026727035207,-0.41585392857885156,-0.3603687711423405,-0.5956147480273701,-0.002869796589977179,-0.24846242616303493,0.21764134300059887,0.11335837111656924,-0.861249489435026,-0.16842489697014695,-0.10034767095944674,-0.03722053461214599,0.21326472789030088,0.5796527413150165,0.35625560503517706,-0.2882566447556966,-0.23854948192550623,-0.10752707540706627,0.00285681556036705,0.011315992808465597,0.16732915811756408,-0.07549064269132383,-0.3389882561071152,0.01154601368637126,0.24641134054218933,-0.3720848916953341,0.042794937424009,0.16113506518623952,-0.05331030544924106,0.09535961948031078,0.025018089837468234,0.03600122011242221,-0.000576096825076,0.02612211360643045,0.015898535107620994,-0.005636283477213225,0.11449960066076403,0.07867193221968757,-0.0015530756955103031,0.055831684228205086,-0.04706597701876815,-0.035430481141237855,-0.010313229042732507,0.04745634165336265,-0.1279688966143084,-0.0002770923803807161,-0.019432573846206874,-0.03505292064734567,0.06083749150587103,0.01077571090950313,0.09288820376740649,-0.1044523430662152,0.012822877380494842,0.04894458523749494,0.015838469040048292,0.030155065033001242,-0.09654905613079623,-0.03471188696424966,0.03241233005032442,0.006590033346003103,0.031061144302604416,0.0019185172983895438,0.04365441228167951,0.04946292740790792,-0.00910151175538222,-0.05097689278165211,-0.0855690495011864,-0.00894991695253438,-0.008625852151846506,-0.013304511391346958,-0.01667368960622703,-0.09517806625284853,-0.03751410721963461,-0.020422266872809177,0.06973478028003204,-0.001327388268793866,-0.02421304195958125,-1.163999320897191,-1.1373008946940673,-1.294291152223968,0.3320313501365113,0.36453933194815746,-0.3720626931129276,-1.510054326417328,-1.1922003335979254,-0.4798152548607566,2.5938019911871377,-0.521697982422122,0.41785541199875653,0.0713958409215446
81.11064910888672,0.8490982055664062,0.35184850252417316,-1.2899756303865502,0.9382858104657857,0.15149506475243585,0.25645962489939783,-0.42112271641269605,-0.6448964436824767,-0.46168588051023085,0.16762655403588084,-0.1157389022193839,0.6679247093319604,0.8543014653190291,-0.11724565882999202,0.2534072023787878,0.19245298066933378,0.021957022071820126,0.0439800258709308,-0.07885160851796881,0.13459520135788527,-0.02528664586802144,0.015264969534787879,-0.6752946096673402,0.09824887511201655,0.4166803000924174,0.05330245718844484,-0.02837703464252969,-0.23542338503756904,0.170204582434439,-0.04470083367259842,-0.01544404311600919,-0.1310468140643871,0.3311265855304005,-0.024988106484940695,0.043552891898265195,-0.0414194817790877,0.0643786564925184,0.08059237496711555,-0.003719290607965155,0.021459616261452253,-0.01061261535777225,-0.03167502360803351,0.017348480699025864,0.019798673115109824,0.04974085617195047,-0.040456267214140515,0.007514127768318779,0.02229897866355551,0.11169474831279155,0.15779588136263234,-0.12662305723660097,0.04113097305138344,0.08925106267632264,-0.018836755432607436,0.018402503077360674,0.18047370741707472,-0.08427832476277401,0.06491384081387815,0.00549774707625611,0.07839085002748776,-0.001171041718747292,-0.001693715089625833,0.012865061135895986,0.014308981800864796,-0.003376781473413651,0.025788919789229654,-0.031433748050011034,0.01155564925482917,0.039039219137927364,0.03659009740512891,0.049000212321270095,0.01187778918566969,0.06738618134025057,-0.0664220618114395,0.01703483384185682,-0.052282497076472874,0.00024348785661019719,0.020044604270002035,0.0015754935552202021,-0.0002565841921974858,0.028832869963162876,-0.034203756233914015,-0.12253132463186672,0.06659158117650367,0.03652781942853624,0.045525946318065016,-0.03168590038311885,-0.5737326960678483,-0.27739393582770994,-0.46637187998073276,-0.8650503084093284,-2.1930105543235348,0.5195353039602311,-1.2580571131420328,1.1671073261375642,1.9326332195785856,1.7365630695177179,-1.6726175326422652,0.9867300296340288,-0.021407891220675296,0.12109350440635282
81.95974731445312,0.8489990234375,0.006330409798647126,-0.03414714680232973,0.13250712024451836,-0.17590925790263645,-0.03140633808103565,-0.1639754887864891,0.04368008670405296,-0.24057309281336992,0.023472983170281667,0.06450367725166752,0.08588851397799034,-0.05634177209021125,-0.2387136477759848,0.18900380561389823,0.22812057375083994,-0.09498435346719356,0.037003738596159415,0.0019803099700820602,-0.04918454794415558,0.04540543643885478,0.016288637386109975,-0.2613314790738274,0.36257739727244437,-0.0011448013856833993,0.27283285139774655,-0.49042718170148997,0.7044572550042242,-0.8237203490825227,-0.2758882927047356,-0.5985513706810487,0.2761555912662016,-0.009172003742219458,0.03489503279003699,0.034501374000716935,-0.07803425568777879,-0.03841031251828986,-0.09413039278824889,0.1111738384786677,-0.08898967935857573,0.08236264548575459,-0.10549264410895669,0.06860413087580887,0.12072653124614871,-0.10546150970891131,0.15086237751959902,-0.2115752073034092,0.25201421977470584,-0.08628691340118687,0.06765708846565745,-0.11977537907847163,-0.18259453676025103,0.04029067278782412,-0.024061805648074582,-0.07176477388679676,0.06093691094383605,0.015014320167748568,0.09861112541476288,-0.13921938460054423,-0.01779786657463435,-0.052540968713522374,0.09350716273881099,-0.13257950618390585,-0.030753616703500228,0.15262778396555088,-0.01574419595591952,0.06224276039192893,-0.08312937008543161,0.019012775180615102,0.062068419611932685,0.003255968032320417,0.0034049335947616004,0.01440748994577645,-0.041841584264379436,0.0052401059461836,-0.024895210671397425,-0.01756059062908091,0.02043648593468972,-0.03247114755057008,-0.028415238091470594,0.06246422376274684,-0.0182364005321759,0.013496326189234195,-0.12539440574671756,0.002310754349383937,0.15490953948209138,-0.36693237325851136,-0.05038885465648957,0.16447744328747022,-0.24414656344469549,0.1514891979561232,-0.00963951528749266,0.002541582248137452,0.3864261944188714,-0.3894435902892383,-0.9454922092132924,-0.5473687952653699,0.22779189513619882,-0.7754064035767836,-0.935701014340566,-1.280746651001671
82.80874633789062,0.8787002563476562,-1.1086027466962098,0.3318972231921104,-0.24317040159305,0.48004004585822846,-0.16505494643317528,0.4256899308594559,-0.2883112717766236,0.7789263003851382,0.0714414811630153,0.25184956757079296,-0.020636040539376,0.05592804824793443,-0.02994729033197767,0.09104042547168947,-0.437062317095984,-0.7315965153298066,0.15486783651411332,0.020123321362163382,-0.003497675795312856,-0.07458345298701978,-0.12425263721272452,0.021123921226676355,0.3413680878793404,-0.27989003468681667,-0.1972474007430874,-0.027869023028563325,-0.05311222934729881,0.13540734555404715,-0.03525740381754498,-0.07038469265387927,-0.0076695579026675505,-0.0015050050951267912,0.01461200985536185,-0.03582488027331194,0.0017669417202703232,0.030352997725760125,-0.023887172653141085,0.023519644126389922,-0.024426451755795546,0.015726753050505093,0.03327265957258475,0.09649071591540023,0.01119502542817221,-0.05828869902921827,0.040868841361495524,-0.015747127147737898,0.20464297138293722,0.016062365923420974,-0.05724047251865594,0.2177424672068396,-0.014249408916292746,0.01885025976629096,0.06754615663066607,0.02679295745570345,0.017868017989725718,0.08982852979654822,-0.06004168534097222,-0.07952465617922354,-0.05299033422493371,0.027287511701209955,0.005077196615385681,-0.05490231424262847,0.01882570406220329,-0.02935103435325818,0.018632097101756902,-0.04567610520846317,0.02056642298605204,-0.08440713109899166,0.011949259394386659,0.13962325117000846,0.06958391261889801,0.007586166462250226,-0.01908984263388882,-0.003952170172925228,-0.015280500813705992,0.04353885583087028,0.022759430653860435,0.10137256635131346,0.021647225965001456,-0.06677234873591238,0.011500901330372664,-0.07393614810488085,0.026841814784070023,-0.04021439346921201,0.3317942114243352,-0.11468386028898256,-0.4334395727494973,-0.5038182812258645,-0.20142337163025095,-0.23712987172237354,0.6932752282853919,-0.16945172999967698,-1.2362373174788694,0.7416971034154574,1.4248462853631914,0.7850755929624889,0.8759199499161989,-0.180861702998304,-0.08438460366066927,-0.418389519110511
87.22344970703125,0.8591995239257812,0.03278319959428891,0.651001913438602,-0.604491022837823,0.3935743528559701,0.16060334779158347,-1.0759149976034683,0.6437176868838238,0.08142812634205969,-0.018621613730952287,-0.17902024396104874,0.057825846239378975,0.3846945141243681,-0.20536062033162,0.5015048457247655,0.06708922542505084,-0.10308755680829676,0.12986767229478188,0.06589339361146274,0.03355275143670678,-0.0709381096477419,-0.04145394181217746,-0.1292488073956454,0.09893111017017985,0.06070436879370336,-0.05913173294907148,-0.04965501046976079,-0.06486585647869308,-0.129679926490818,0.1356856557804264,-0.09709981048212205,0.11119778696788594,0.10746726526879073,0.11642652037008701,-0.10780018011632353,0.020481203517451058,0.08683289173722436,-0.01993936590861867,-0.0858404075099583,0.03873266243957501,-0.07017821441383842,0.02812999900016506,-0.006966418461666646,0.033791844478239075,-0.16929460719550696,0.05502131193419836,0.20255507297701525,0.020915607750060024,-0.050280572917289545,0.014700130272822423,0.11220124474945482,-0.08488485546025226,-0.09597330903708143,0.01838061684245091,-0.00307369365454199,0.1267978960012779,0.07085746520928886,0.011031013959903016,-0.008815538393930206,-0.04414524276615074,0.03410945865627632,-0.017755242969531577,0.06279782881443559,-0.054231750942496285,0.09521320873880935,-0.011011217570495183,0.021669082288270965,0.046661198854236564,-0.06480767443848603,0.0890183264260968,-0.04569319532501335,-0.008373827114733907,-0.004878611731160038,-0.0005663789101270413,-0.03405847732460255,0.015399530485009864,-0.027478621881218836,-0.04821917101655344,0.03970340475040263,-0.023793031865477234,0.052914592348955306,0.05765716801521288,-0.057438268877385505,0.28419340062868714,-0.06785782165939235,0.08084582613016,0.21183781124134576,0.09461745670953264,-0.08774201351938571,0.580113844588223,-0.8640285047135172,-0.7357005859750407,-1.084457562313598,-0.6323063121810589,0.05639125122660321,-0.9755455407688112,-0.472731082724214,-1.007717806062286,-0.5077418754155565,0.9538555902726928,-0.5545952740390134
88.08264923095703,0.87860107421875,-0.7493062789754761,-0.29076834089939996,-0.15555522864134652,0.4768340449997329,-0.6959673030770228,0.3523767197867093,0.42217512062998,-0.01819453177638048,-0.005818407280762713,-0.06827847986793409,0.058126537045257456,0.08372850841943956,-0.07444388867658566,-0.04915862121466454,0.14645210465751912,-0.09522850917017221,0.012345615459940165,-0.045173072724388516,-0.007586243571989793,0.0515732931544238,0.05327479063164628,-0.006396936152476662,0.012497800859956975,0.015624897786293319,0.027530671142662753,0.01726257540978353,-0.020014590427494632,0.04287170381494542,-0.02290807189184861,0.04802415820611053,0.048982496843012,-0.07770736559762813,0.13972218813712553,-0.0414083343056189,0.038344852541918675,-0.08717453410574402,-0.06092378966228408,0.026399861332714644,-0.03945815197112537,-0.00695246437610747,0.0002820559417527034,0.006862012050638346,-0.08435044778836082,-0.13987695663603128,0.03298822991557584,-0.05688770001109407,0.049781113066134614,-0.21113078685663328,0.0397081904204448,-0.19630692661229462,0.16042795577337438,-0.07759852850906579,-0.02147614853362533,-0.0015189325756165895,0.026036174357155793,-0.017920238106326966,0.003063117334012931,-0.04826431006175649,0.0006012961310225464,-0.0922618750442298,-0.05070536799677495,0.04730367146178292,-0.05345350949713225,0.016731947221524438,0.04932681970524331,0.01953487335243978,-0.035824993557260036,-0.007334361270904647,-0.044596300688488334,-0.06496111337403554,0.019570281688299877,0.04570498229889079,0.004395502722024715,-0.00023081868718268533,0.01133608164467374,-0.014860688768792636,0.09477966686297157,-0.03690651410150692,-0.038749850787869876,0.016396657617809653,0.025926058509462745,0.049135905916907384,0.11568210233586987,0.011347612667871999,-0.1493296132356409,-0.1031789457940307,0.42467110860687285,-0.5094705917659351,0.11293901968741647,0.823288939240909,0.5454476188484646,1.3982863427584489,0.12364638715893517,-0.5439783533948308,1.407299072020593,0.9063817036052296,-0.2485656313923436,-0.1604445940538481,0.5401824884439625,-0.4961362238057533
88.96125030517578,0.908599853515625,-0.4887737204985093,0.28412072160118196,-0.07589210193209947,0.10404137876135457,-0.10710156741581005,0.11879998888260421,-0.27699176997251485,0.1036775117612685,0.0056917391888698775,0.18084623802112487,-0.1216551389870743,0.03534151130665775,-0.13595599133661468,0.051215852189857726,0.1671708061892314,-0.07414066349087381,-0.025540777674382873,-0.0421599756203708,-0.10971564408682213,-0.1406586962426155,0.08948857533249309,-0.2681101185509941,0.6513336871309715,0.5489641820864186,0.22430235124378117,0.08407660272452865,0.04746560544432316,0.12030020485418239,0.20867311983514128,-0.17491436898410306,-0.18188966440535556,-0.0325307632778431,0.004294520836016065,-0.08677773463871406,0.2980383816324308,0.2715209666640414,0.07688460911854744,-0.0966591944057061,-0.08965686208441273,0.026903140490116183,0.0066325239774935605,-0.06484636698177355,0.06998244507528628,-0.08991948722604633,-0.3521984639096121,-0.04066105579743889,-0.12225965869409731,-0.7375800401528231,0.27283579958107274,0.08335621443112326,0.07370447872325772,-0.06775537808498286,-0.010250640642990902,-0.07691472269132073,0.02981382166362974,0.10607605778301524,0.05744666313128194,0.007402885767903527,-0.006237063176729382,0.0280394809024812,-0.03615121848292914,0.09175242278415577,-0.062402804710224975,0.04679818887621273,0.020160564116130715,0.08977263938670776,-0.030444366611436357,0.05746677615070063,-0.07830242910215314,-0.19599138073056532,0.02686355970083618,-0.01606830018761576,0.002857309513262676,-0.010941104803805314,-0.0016853682043320994,0.012034969105690324,0.06455576953943444,-0.0006505768106733604,-0.004375651599025577,-0.06247262529356933,-0.04605558820047767,-0.006480840615648807,0.03961903994134457,-0.053503298594966504,0.003632041591321979,0.037829772521858054,0.2521300275962104,0.3647883118798143,0.31107368423337933,0.822701598215914,-0.7139478025380721,-0.6005711455585135,0.4892115112227701,0.7184147009685184,-0.188774072733218,1.331782292373791,0.18542411334805975,-0.8156861025302402,-0.1506780287713836,-0.0058815554959844585
92.55705261230469,0.8488006591796875,-0.24788568441639625,0.4800854513277497,-0.8116627696804748,0.5592993939415327,0.27552891451024136,-0.31691876203808056,0.333913028950722,-0.05152955269630766,0.10827938031236986,0.08276839262615825,-0.06108876888324098,-0.2823298258974417,-0.6040484021261302,0.30223323482089204,-0.18484723257718216,0.03121742091635774,0.053109677826026463,-0.0322713328106114,0.11987204752000184,-0.3521743101876247,0.26512823530349017,0.9779900381661957,1.082475637072825,0.1721725053250173,-0.05093998482289096,-0.07913691883729326,0.2815910297421045,0.6435875537742118,-0.034582496630697374,-0.1621603004840278,-0.002634674622091049,0.2626934160856,-0.03634725674309517,-0.020464752204552072,0.032638361504427504,-0.032541124944257684,-0.006773863256678336,0.01888376509445703,-0.03507145088528564,-0.20378027296964957,0.03452094937349258,0.048046318403526495,-0.08376570814269463,0.045845462217018566,0.028459884992057954,0.06879886392854667,0.18639355544573208,0.24138154963950903,-0.12279352700898645,0.06573530283748247,-0.036877007326159394,0.07245311277941714,-0.09371507439398734,0.1571726907143132,-0.06820898087173184,0.17309489774712133,-0.11689053024825657,0.11229864128778956,-0.041804384634261116,0.008558376809268462,-0.012923686153594661,-0.014491160376702682,-0.12968226273710412,0.07652579392858054,-0.004572214875478675,-0.03431464523689476,0.0932483803062405,-0.038253955368957177,0.05158875521872228,0.01010824176600423,-0.000871503933536257,0.030761253148811032,-0.024564195698922105,0.03293594184769562,-0.019308965295817215,6.988172776844099e-05,-0.02727260328880239,0.05260088373480881,0.026793572899302297,0.192591648329038,-0.045963487193496425,-0.32700019205232506,-0.015867484373431495,-0.05194135781473204,-0.11235697342677536,0.3066853952659977,0.48202036698272743,0.3772691664579213,0.8433215528136235,0.8452029806042927,0.1548841123475549,0.3711874233040058,-1.6260704842940203,0.28147643726916066,-0.946354139596955,2.609916627332155,-1.0807196374682575,0.2547150450344063,-0.317946432421408,0.5245191686225862
93.40585327148438,0.8592987060546875,0.3992933296880059,-0.21793712285126518,0.2338692050578989,0.04720764092355449,-0.008984430489746897,0.08445733302574522,-0.03268160935565996,-0.1344491917847513,0.13291509472233898,-0.0881683822690878,0.01640242025691643,-0.17435877634761301,0.3171262135851367,-0.22543344030778623,-0.002075409363948082,-0.038174531866771264,0.008037427199157487,0.002366599387910243,-0.045542283244884095,0.13023948821816925,-0.369555418696975,0.6241994125108957,0.16091438794718235,0.6728118380437141,-0.07830139599062687,0.21640803706091388,-0.29035213695868406,0.16697326114466024,-0.007998205830132516,-0.11755260146251192,-0.4548642428824015,0.2813732049886286,-0.04238843535609858,0.03976235767799318,-0.011344811547068588,-0.0062115971105408925,0.009707790235453423,-0.04662219441611797,-0.06365761661784367,0.026839656381606236,-0.014236413856286028,0.07289502205569166,-0.10705508590554612,-0.05678503518550851,-0.007913000121697468,-0.07080033600777134,-0.11826453635463327,0.0844673713154563,-0.14290512366196284,0.05945294323454735,0.07256635592388133,-0.11915674806216206,-0.03186875880468486,0.02943221358308514,0.036527113174983215,0.17708362098165187,0.021745171704474285,0.08731365286270694,-0.12626277325092028,0.12312536842215241,-0.12114234928817909,0.02038606079249717,-0.045667389776404485,-0.09490416578874956,-0.04989907394060078,0.09104050147470082,0.02236967710763585,0.018583346930700434,0.005441904008561418,-0.04442127855313094,0.005569147685828139,0.022361510823971708,0.027899269842805538,0.02332885489428849,-0.0006904166604973735,0.007111085806755027,0.0037030141331430757,0.1053229120488928,0.004851786844255653,-0.03195400341486268,-0.02132310569831094,0.08445219078084357,-0.0714179073102906,-0.08990414050522645,0.08471118876925963,-0.3936310985197409,-0.33865435619796674,0.45299952257233644,0.5945517925245563,0.6611226180789969,-0.5277316200779482,-1.9948764723838117,0.1553693310921455,-0.14196162199000503,0.5068222529639945,0.027218064562261862,0.13214422955244076,-0.3244958111247926,-0.22578591383904104,0.45440254442455497
94.26515197753906,0.87860107421875,0.6043874266151389,-0.4476112850760452,0.15555381476440325,0.07384761605429468,-0.3678669481583809,0.09191290414620883,-0.042307128113359446,0.026220278549351682,0.25522581576525616,-0.11901013643306216,0.03019922358043446,0.052643314743623604,0.017116349426363232,0.14289925646396345,0.03262221105763431,0.021060597564403656,-0.026249399741031347,0.022271301837825986,-0.011288694296753584,-0.16796680934171432,0.3433361411786108,-0.5455072443612705,0.6808167716919065,-1.433336426417741,-0.2857808618425841,0.17554518085501578,-0.06910755675656285,-0.3259169276332767,0.289967336822888,0.1498317409321297,-0.05579455325234253,0.08631889932011184,0.06382355771704011,-0.024696845683241715,-0.028224899946620516,0.04030796110344773,0.051146203962941866,0.03530283805961269,-0.07063905920717539,0.013625064028647577,-0.053231706694650154,0.12885978844994356,0.05749738809441194,0.009080246965205577,0.04450119706422637,-0.2878305500058453,0.30349942001569424,-0.11157501528280764,0.17821874151206712,-0.16509613918180707,0.016818277512313008,-0.0932988207651297,0.04212726225433471,0.07361992989971475,-0.0411597375046554,-0.11089679177593773,-0.049784026048283817,-0.12937629662489933,-0.00448927071097302,-0.015173400956289058,-0.0034101051677563813,0.042876242087296026,0.02553175599718632,0.047486762695262225,-0.04919554821535131,-0.07329139213331282,0.001536869231189349,-0.007770082341346177,0.06344938230094586,-0.04476817894411741,-0.03211260714482499,-0.008276503566061489,0.0021750123840169546,-0.000767746070040632,0.0031436114815903598,0.045551744209610806,0.01208424185012394,0.02769889298609312,0.021495019826994977,0.2700734121814207,0.022991232489288378,0.10769010845747228,-0.1615142573228575,0.03936144084267443,-0.0969394257969647,0.39876460316034906,-0.03405477773264226,0.6598395591845998,0.5928986146189441,-0.6606513008994077,0.20295663231163374,0.31262341725832565,0.5299408233770349,-0.316242224464419,0.3255294646368005,0.7511501764245727,-0.3132059537418044,-0.8302770419710628,-0.19385226638138425,-0.4733134554773977
98.67005157470703,0.8685989379882812,1.1067978721334315,0.422165917065817,-0.3450941906274221,0.1663027724772404,-0.008561911726360878,-0.3311417795287276,0.3835414700398554,-0.4172170896927665,0.004491929170349754,-0.04895778973533538,0.016362519808939255,0.01711457579169513,0.07510073614565237,0.17973690737022477,0.01788739323408299,0.055886300958673266,-0.033504404360300964,0.047746933152065456,0.031866895836263155,-0.1870899964895815,-0.1681226505556681,0.07269280536746803,0.12770190952923796,-0.46013365070772966,0.3334118577336475,0.14300904068572523,-0.17901559987126728,-0.09905123153019549,-0.2867783646990944,0.07561749162172571,0.1697919445640559,0.1466353790010958,-0.06519649142536148,-0.029521984000102454,0.009115433614655766,-0.00012860441203292993,-0.012843585158784674,0.04573657678886654,-0.05299357556530255,0.09376406217346159,-0.08624156603789603,0.014549814571123714,-0.1305593120090709,0.05094928535075122,-0.03502413601720939,-0.03257613832721992,-0.04394990009465892,-0.0758331017795853,0.024266601501135715,-0.05101506837637356,0.06627925474567033,-0.020986742050991984,0.00653762636640417,-0.050272288625205115,0.04007567684962935,-0.08246457371952062,0.02364488581099125,-0.045411986759444606,0.0019132945452327702,0.01603950004114447,0.026879049825134074,-0.002860087226224327,-0.0297148723242536,0.02181144166755708,0.08295387712197164,0.034711713277249666,0.03471732509046202,0.10285503193955839,-0.04603310968376202,0.02532514786047626,0.029360464492254962,0.004239002061554764,0.005104163786305498,0.0005087317895329628,-0.007070887116261108,-0.03356897791096406,0.054524480070469866,-0.007415775662165362,-0.03295673585744723,0.07089763232062163,0.029445677005690753,0.19286646794472415,-0.34952922556654936,0.03221723515314204,-0.001619166572926817,0.10443412500105172,0.06373029972020178,-0.38335343421576784,-0.732185081750034,0.3169749162004315,0.6977990194260146,-0.8601522652218652,-0.6776378586971663,-1.1774207681630224,-0.5749787989089361,1.7819293922936075,1.472555802802137,-0.2002228393524218,-1.2557274365746096,-0.14168227605886502
99.53865051269531,0.8891983032226562,-0.12475450597214599,0.136497672462902,0.20691370201170237,0.1774390844253074,-0.29987912318830307,-0.6231511299753864,0.052503752986879454,0.308381085670696,0.06321133538762748,-0.02772824915261788,0.13952878497203494,-0.08611206973083817,-0.12150062332958564,0.11650680858611812,-0.038691009387117094,-0.013450782810596286,-0.014762787827323562,-0.07046678405497882,-0.09248484465782414,-0.009982981017213571,0.03801403361776194,0.013338600944772148,-0.09430988804024487,0.35054512575173785,-0.17322846874260892,0.21405896589108137,-0.20230152082812408,0.003040263105779928,0.017703360034633284,-0.012253810616016443,0.06738662999713839,-0.07444305650021273,-0.004015184326140791,-0.02737920060318708,0.001973367686408129,-0.011530041762224314,0.09643749108507553,0.011668019512755756,0.054519659105966733,-0.03044943841364514,0.08776545364140867,-0.026371259667915842,0.057383605960315456,-0.054827670245224606,0.23749281588524312,0.38776660673214075,0.3471998235513547,-1.1387658001069265,-0.812011897500765,-0.024205356279873677,-0.5741314496759655,-0.32470423802049625,-0.015546162670885622,0.14089913435778437,-0.0029700622573425864,-0.021057526087006728,-0.04740441444569599,0.0011900445679931017,-0.022759512404874324,0.06985633305252403,-0.020726506767198942,0.0955635161096562,-0.007817495617775186,-0.06182342529690101,-0.06427325637056323,-0.05711530599206082,-0.04865201024610026,0.023247505920116394,-0.034875671737182506,0.06383177182206022,0.08014787668832365,-0.0621910975181607,-0.0007936140405543576,-0.0012325994485087993,-0.019094728310597844,0.10746728738130454,-0.01602224871402491,0.05937157943274303,-0.019235615657480963,-0.036777790124000585,0.039065277233316556,-0.20537339936313315,-0.3743785442167449,0.11564230750430919,-0.14180569169374158,0.35903278041692055,0.14619052665788365,0.07926141923106086,0.2670017236626424,0.8427072968627836,0.3287025393798402,0.04741781023368556,-1.1617504148343498,-2.104483783356361,0.24572540875999194,0.7309277016074326,1.161246953222728,-0.9506578867733947,0.042944394046523726,0.3549340490228651
