start,duration,0,1,2,3,4,5,6,7,8,9,10,11,12,13,14,15,16,17,18,19,20,21,22,23,24,25,26,27,28,29,30,31,32,33,34,35,36,37,38,39,40,41,42,43,44,45,46,47,48,49,50,51,52,53,54,55,56,57,58,59,60,61,62,63,64,65,66,67,68,69,70,71,72,73,74,75,76,77,78,79,80,81,82,83,84,85,86,87,88,89,90,91,92,93,94,95,96,97,98,99
7.907299995422363,0.8884000778198242,0.05185805329827034,-0.05842028061969995,-0.06443798396792999,0.025098156903221112,-0.120658872729528,-0.3384284609763901,0.22131635609838515,0.06103336668725724,0.13717452529934585,0.1405263222511513,-0.36736988811013177,-0.13805836685926523,-0.13515220052663576,0.17862733307136205,-0.18158259350296466,-0.23843408493834686,0.14637553250203578,0.0820325936105866,0.1089149380159599,-0.5403791466933108,0.33066368956761183,-0.20304592222823203,0.3582123250811754,0.03963547394661751,0.3109131274026705,0.08194850594970121,0.2293495650913014,-0.09116236736307604,0.0753984476840443,0.016391978835595854,0.11938961270346346,0.30174403076059736,-0.2964473720503409,0.17098415203745548,0.034692497189144245,0.1470664991477271,0.010641862608036266,-0.49634567368167876,-0.06832647042292943,-0.3872721664964896,-0.12178928995348953,0.5860160823520301,-0.2747971609302344,-1.1647312868950155,0.14441404033882915,-0.4636245031011759,-0.441897941885053,0.8926667861171098,0.6350493747332537,-0.4958847070166304,-0.5229599518686362,0.9286161383957189,0.34307325814390593,-0.030325431952716003,-0.25411313283057446,0.0829539490159972,0.12459891113154177,0.0049178474043587266,0.12829257035379923,-0.06575497877753565,-0.06187906391091891,-0.5632427499528699,0.1214174185556009,-0.08628972993558787,0.16437761963904698,-0.19560460876347746,0.15697889449454883,0.02224838802079754,-0.0040065742241339256,0.019671673952982083,0.03294569716246204,0.15437505685564443,0.05630350340780532,-0.13397245933834842,0.06711976598830614,0.022632140457033285,0.04324501232915737,0.08772179729405426,-0.11830973220283651,0.044687012786541226,0.034663705712820764,-0.15465868250659962,0.05481787373808984,0.0010261620996887214,-0.10531835396495813,-0.05249057872405479,0.06559078870219257,-0.041813479440039866,-0.017376414797576675,0.1624130754514113,-0.13499764848348678,0.16125167826292183,-0.13367308654995355,-0.16995136947846148,0.18028028544999375,-0.10940582784877077,0.13418738347371878,0.06023933247133526,0.029249603240372783,0.018026270904050127
8.795700073242188,0.9090995788574219,-0.0014342993531095138,0.11920341729457311,-0.28964886363577336,0.5070645347936426,-0.5498313581030981,0.34678469088762043,0.09132285519374336,-0.05782926920155317,0.5098964143970539,-0.8876056711613096,0.7172561195206701,0.1731976708309093,-0.03523676021801308,-0.12486189069556734,0.07743458892846873,0.0465885663433775,-0.05360027412125359,-0.038820459036549494,0.12164758928993492,-0.21637315294719817,0.15107184637603394,0.18335501767229492,-0.2402863434098027,-0.08755811097373292,0.0812755878992865,-0.09676183031287879,0.018200770035703067,-0.05617730616142469,-0.20035370452008763,0.19102004537756373,-0.04853402774990567,-0.15498358056731604,0.05966287078079678,-0.1460402441817323,-1.2155780640292515,-0.1298945392013237,0.048204201582718834,-0.3977057898459945,0.7610685135342578,0.0737478965638347,0.0826590408307003,-0.24454218333664762,0.5545410188487797,-0.2499044681858639,0.03036735975912168,0.03960748358724312,-2.1803814272955395,0.5168633990689395,0.7441122389843647,-0.11219204612579796,0.35221429189205555,-0.046191146402913524,-0.6874904593266332,-0.2561450017229213,0.5013238447742792,-0.036490492138322644,0.3987192052882979,-0.175744274574837,0.14180188326967086,-0.7240856225817301,0.10702183959517145,-0.03739032446229344,-0.020274738772043235,-0.12862473982901612,-0.4892074836385659,0.034853236079960354,0.00776802947774057,0.10894939816009873,0.11541408690769614,-0.16636431880248456,0.032190413218697894,0.26774690839237647,-0.10368049302751862,0.1351158014434865,-0.15157179312643593,0.1956199738164383,-0.29939751633339307,0.015321786848748062,0.20915763367972232,0.07690445088961423,0.013731720175559592,0.13370845606513912,0.0439749404412576,0.0825122386393471,0.04365263476255115,-0.11876489281250664,-0.18999527735861607,0.07182198586620435,0.008500033548626721,0.14901163420562158,-0.03856051970747721,0.07832252740403574,-0.21812625230860933,0.20004978532803855,0.2199037076280862,-0.26947975671876234,-0.05698556606060474,-0.1864235340719165,-0.24067071340602073,0.02951047302780104
9.70479965209961,2.0179004669189453,0.16347300592524378,-0.058003608882961855,-0.09318521735506491,0.1489103406098905,-0.04378051804961414,0.6696183293393,-0.3334731221583399,0.40233440841872636,-0.051851851710048066,-0.1990576397064589,0.5177589547320696,-0.14564794730092318,0.19826306256545498,-0.07220534796669222,0.04215696811270178,-0.09498546506574142,-0.07552518869784607,0.02296797031708138,-0.0827431698325225,0.14045838857023554,0.0892059035339406,-0.2543728110988288,-0.1273799356893084,0.06978715309748912,0.20631051191178118,0.060403710129207894,0.09943366118335728,0.004512910589435546,0.009162988540634145,-0.07026615125606876,-0.26640577732632037,-0.1143577881257118,0.13194389019921599,0.34540181502136386,0.21688481084170466,-0.19239602389132054,0.06402344257186653,-0.08924781748618889,0.11121647469882918,0.047140460973603845,-0.4561628615620809,0.4410392254892181,0.3027153930839563,0.6714952750796914,-0.3245398684275904,-0.1817769450427975,-1.0898507269500284,0.015666881451329422,-0.2831411684179077,0.06417320255098491,0.16366358409083548,0.14757985486345915,0.04165937964155711,0.3488396728875485,0.04001544921870387,-0.026555623181661908,-0.10261096644802671,0.04614310679798058,0.0020615432653696697,-0.14855703624338687,0.015543205578354992,-0.11101424165793007,-0.1261858510081977,-0.038699543411266454,0.0023029823495450824,0.11502428584538293,0.035404833770933376,0.06366988713566035,0.08134600318436158,-0.1725221186722161,-0.06927188376967262,-0.20753790495998967,0.07105928205782891,-0.17865937459023995,0.08779510289108541,-0.08224879140727528,0.19385311859964735,-0.24759993898028906,-0.018071174358873492,-0.22139379681890592,0.25739533748943394,0.08393074095886806,-0.037320429599612556,-0.08314525140410754,-0.06623265971485105,-0.12504357647625633,-0.12160478647956617,0.10391492918861646,-0.03331981291740279,-0.0632334149318578,0.11260494525991094,0.05025812847214417,0.003409624069131506,0.02713824604288095,-0.06488627189290651,0.035428688282935314,0.13654089598463284,-0.08926164156906585,0.18509824846237496,-0.12370569878575663
13.530599594116211,0.8886003494262695,0.11230346577402564,-0.28706398897600205,0.5279561814601633,-0.6064687908406111,-0.8583647665648307,0.1515929489285637,-0.2978828631987946,0.12263427641845595,0.1956528177759262,-0.20379252780454768,0.3430725413174246,0.40715042121621187,0.016403913178057658,-0.15474611144223627,0.13307190911896716,0.046725461834028495,-0.06145244281702145,0.1350961605687265,-0.052268757822361595,-0.022358073634460372,0.03061092038153013,0.28105707920926026,0.3930261517092147,0.07231351433483213,0.15704636648979564,-0.11521716548602967,0.11135890027379484,0.08515331956620538,-0.13145552782221817,0.04009092969191344,-0.06358572344647515,-0.06446685767310284,0.5338614459249057,0.19845290401536866,-0.10089386331049362,0.23100935167455952,0.023831180202668,-0.0913898947554057,-0.40524666132095244,-0.3042139231448673,-0.19920943340433164,0.13609945099396653,-0.7290266066238463,0.2742665358720792,-0.1420409941572639,0.13188107080657543,0.8760845471643127,-0.5705094679793293,0.2770668196806032,0.31116660327499013,-0.1869443661867548,0.4461037954803219,0.3466885179207422,0.7429248168430023,-0.3990889294890046,0.026306033585672517,-0.010521598171579494,0.09425802169465854,-0.09659250767264543,0.16915915002348794,-0.1633846662241884,0.015030935597006972,0.1842246746909445,-0.17840663396245934,0.0028314581431815866,0.014359347827199125,-0.17567707136973967,0.25992766754806806,-0.08178066541248254,0.15450136758684546,-0.03482607127756123,-0.003262981247997135,0.009000343337853751,0.015343466555802562,-0.10736729275396269,0.1073359717512869,0.03737159461387255,0.04816759192630345,-0.07533560899142654,0.03304164320163616,0.0017486046814008394,-0.004628328426533407,0.18236004636679104,-0.10359015205576588,-0.04242709354708728,-0.010848391829996031,-0.08384541227231998,-0.0469509163628116,0.22737650040767504,-0.1751604494933619,-0.01486517527541896,-0.021937315458911824,0.03711441463922345,-0.07030535970644967,-0.07850866304562502,-0.1925267382524831,0.20900823041967123,-0.06079455977051941,-0.06092723386043551,-0.06464153779645235
14.41919994354248,0.9092998504638672,-0.1902241731606661,-0.2549200108380449,0.2558091694389001,-0.747561439097329,0.5476339347629996,-0.4362400765878929,0.5115667231751636,0.37224730341049594,-0.14654306560280658,0.12040289986384103,-0.22200836878376753,0.021147928290638943,-0.009305134035057595,-0.0016455293037928032,-0.36874084806187546,0.18094595361607635,-0.05592870228114663,0.18690362942674185,0.1237048275132726,0.09113606284442949,0.17226121360554425,0.1480564686807928,-0.06514215026417357,0.1482130963296073,-0.045344332064863824,-0.17084294768744726,0.00506102330128598,0.020441626585536596,0.09229504470949079,0.17950141978524778,-0.2167570078078702,0.038298700332371635,0.03526681051448235,-0.08814728844775335,0.15102705596850535,-0.07721183458569365,-0.09515758836032834,-0.3910297454397751,0.023572800191960036,-0.08679922414472194,0.09122289566534197,-0.2934302278600951,-0.49742919199380026,-0.2762772028589657,0.4148377346051296,0.14428926505229547,0.3023818009655098,0.11528364268045341,0.6740432817160136,-0.3784833741959551,0.26676700446124185,0.25513350228715814,-0.1670147409315719,0.16254655470036808,0.0350007220141037,0.20487370290446694,-0.010772391005767962,0.0431737713615892,-0.06411227339451474,0.17327368131492302,-0.11408644129798604,-0.06997331035628727,0.04370935488562361,0.08336725503456173,0.019372136392674655,-0.05605158628276049,0.0323822643355796,-0.11768506902946137,-0.04154029327197518,0.0017202237932233979,0.01991458455319695,-0.029422070771997374,0.04716475577469188,-0.15099321059114273,0.03365164559357445,-0.08374203914999462,-0.02136409207691848,0.10553073148218294,-0.0398016706548358,-0.008391034495998251,0.08844382047181597,-0.02494079392939816,0.1568688974948171,-0.04644620795798426,0.04013566293294731,-0.014087166046380177,0.002128003413673575,-0.10545865831940429,0.1990168803298267,-0.07595067403250731,0.011706009027635154,-0.049974497591666674,0.0308752306550389,-0.1197982084620457,0.1503513752745536,0.1938052028494513,0.015851314812491926,0.15710196945270824,0.028157290014478944,-0.0358068029389767
15.328499794006348,0.9784002304077148,-0.18008072428508276,0.026086176424811536,0.3309087460319911,-0.16187193317522258,-0.02867878147667522,0.42378305043217407,-0.07242937223365907,0.0018378256520606311,-0.086998265877869,-0.18282311368313717,0.17371232766496345,0.04328099279383179,-0.10516447309348925,0.11360195063503226,0.0675710833802216,0.14337867741042037,0.00569878962208808,0.023811710868800233,0.04532194869043574,0.1971532205786733,0.09335649281692925,-0.3230227660586451,0.24661366947935595,-0.19053402982333,0.06588105310611236,-0.11057766045501832,0.07123377771794023,-0.04419966473200282,-0.15578926813250277,-0.0649615521837273,-0.06472066098976632,-0.17055551013240933,0.15491564721635084,0.17616294583958203,0.06623248585358106,0.3178103943733862,-0.2508136672483612,-0.1737220116380083,0.5731819377838436,0.08092882229157115,0.11640973094179093,-1.0602520366568478,-0.2219252064898651,0.4858550286685674,-0.12350282987966377,-0.6347839084126708,1.1589201103304254,0.0396429915522738,-0.12983713983521555,0.1399685789065021,0.07520095153169756,0.1911946887082466,-0.10327883977743231,0.1283793109267809,0.1329368384488261,-0.05453551705116154,-0.19674269466147784,-0.011228269694886162,-0.04404121842932486,0.13154207781133823,-0.19362772522649427,-0.0653156390795152,0.23641076450569964,-0.2069597616734068,0.12479915221849477,-0.01773449067855954,-0.11745994435251775,0.03833746270613839,-0.07522308340940125,0.019532087765312914,0.047478540093066755,-0.14482869239937768,0.2142853956968491,0.04891665494210547,0.08102494061481992,0.0374527942023802,-0.1774184659737756,0.23387179096457927,-0.08915433841257689,0.12281239370913215,-0.1284125334848338,0.02399237009337181,-0.09113984017557741,0.02789577291379421,-0.07864722374087742,-0.008492234969188522,-0.13117320424181958,0.15232157505083152,-0.14027844745106244,-0.0028869203179559683,-0.080881091682941,-0.002346096013075307,0.027159658435832526,-0.12724930605013984,0.10070087895423027,0.1017928156458272,0.2157113706541781,-0.08697758267111026,0.05360339958265575,-0.02011794052966798
19.61359977722168,0.9087009429931641,0.13644811352737474,0.13778209914788186,-0.0444779491458981,0.12088220901985772,-0.669607968129158,0.41362589109714054,0.16110575184550827,-0.08177143401793216,-0.03935469937160039,-0.04099757105728856,0.0733819275670202,-0.09331974901559217,0.1900848063913569,0.04389923713281471,-0.152908315799513,-0.3777422913632822,0.05718924361374207,-0.018035195701305014,-0.3730085208248956,0.2701950559975187,-0.3415425174634712,0.19592437729962212,0.13116448369147266,-0.08089748741730608,-0.11826106594311588,0.129287054372484,0.22054040873916217,-0.10975650666292859,-0.1381721125245161,0.06232383834317493,-0.18662711399724266,-0.2721519576415961,0.16884307298443213,0.1867418904726151,-0.037224717157454394,-0.10478081020124548,0.39142710041985196,-0.016339415784906053,-0.2481932316436289,-0.29992236875682915,-0.018227949395833803,-0.4278343834795304,-0.5419968932760483,0.1407733027781423,0.2964803229783608,-0.2611890491404946,-0.691081263581851,0.16579517688672296,-0.15593567301658562,-0.414784870209769,-0.06292272535480187,0.409745061363501,0.01800407609844113,0.28585817178098527,0.11478791048308801,-0.2921218579126158,0.039225296809469,-0.014026276024016954,0.06918908235002727,-0.09426563963029447,-0.0023374380047338685,-0.3036146626906293,0.4131783091330613,-0.016225709809144603,0.019402932750527638,0.16041808417104983,-0.01582254856539042,-0.03731586561184431,-0.04296618623915623,-0.17160183858357314,0.1084785970923531,-0.01727286777032935,-0.035968197798159275,-0.07147177162584327,0.05912526199662339,-0.12749123865016243,0.03276349014657675,0.1209818585165595,0.019334899386796243,-0.035183093906259136,0.10614628261690431,-0.09753910120437019,0.021861949344423662,-0.022332656337095216,0.04553846600835941,-0.10261055766234259,0.2990502801970394,-0.026176147425909735,0.016422878810168087,0.0023182483170188506,0.016106687612499768,-0.22910321392194388,-0.13088025269895878,0.24397952798387273,0.004551223656146557,-0.04656534832304426,-0.04789173830084197,-0.4480890326621782,0.02413245284524106,0.10901002142593642
20.522300720214844,0.9288997650146484,-0.036238189423125414,0.13173456282886162,-0.35996748098138975,-0.12694483726537986,0.4512207475285086,-0.22138275827009446,0.1477760681211736,0.17975082586629867,0.15806305461542428,-0.14558148431093415,0.17177126428313394,-0.16171969965569716,0.04474400088586772,0.0487186767890734,-0.22222052604398135,0.06950320951517257,0.1299453379037459,0.058348994780384876,-0.023203333554257057,-0.09092002255800996,0.19109544064888626,0.02746098809203881,-0.1843004479545325,-0.04886136232131914,-0.13943269503338918,-0.08007196351390283,0.007888215464222694,-0.13868366873903984,0.12524723564855636,-0.010871607140021902,0.023105426708036295,-0.11870620279870964,0.21864949144513124,-0.27550106938135505,0.01374881776498445,0.23580167651426817,0.11269549043814252,-0.34882208210684335,-0.11145252370541253,0.14069847605561958,-0.1435755714506576,0.744999702683147,-0.035022044961032055,-0.007699229809324901,0.5141760016144042,0.4763619156585502,1.1526827937408382,0.2322138043691035,-0.18342034452795852,-0.06395964664575357,-0.12447301883993175,0.22125519913625674,0.016706651586876425,-0.2362198644676578,0.05346922748438143,-0.10261087741939806,0.2543584237331834,-0.057100285652357065,0.06628167660821165,-0.07236611724698772,0.15084836425386078,0.017728592788474107,-0.20232615277023264,-0.14356213110706936,-0.0819313848044533,0.04590808663332191,-0.03594371249918196,0.19475574455931513,-0.0066236276380791746,0.1075124903790455,-0.08054739104990892,0.07660479767212826,-0.06914495249555912,0.040860579800118105,0.06654499256600295,-0.026340662674598937,-0.032295194053295,0.11431751101826665,-0.07916107481463111,0.015213387422232057,-0.007360078864705785,-0.022122694661243274,0.07356113877084576,-0.027594463310621133,0.05703173927480841,-0.015421335238519044,-0.04097651427403826,0.011040184904929404,-0.05045192337058519,-0.002439414276464196,-0.02839773305842601,0.1197181829533543,0.10244995850560684,-0.1374785207104695,-0.1504076120972462,0.049073024042688,0.2915939917309096,-0.3450235887818097,0.07480540511554765,-0.14308532215491107
21.451200485229492,1.0090999603271484,-0.13166361610374536,-0.0728056335070628,0.18018107784386414,-0.03293262925135768,0.023918720224530655,0.20625036477276887,-0.4857041395367761,-0.0458875518615565,-0.15758927921180665,0.17643276093708382,0.1885289615352242,-0.011567554543529382,0.05485874864444187,0.08959843760818978,0.007041690932454165,-0.04015612768545557,-0.001815369097506241,-0.02816176915590277,0.0218154382900493,0.013292285816394486,-0.2675008548759206,0.04146161624109649,-0.0710857012531597,0.19070658881231248,-0.011250384527604962,-0.023886586442268258,0.08388273674730663,0.0203421179988038,0.053486976308396175,-0.011522099791906654,-0.06226433950031668,-0.042995876831072644,0.10715665764911533,0.2248237424395995,-0.00667914764061374,-0.07944023679567364,0.07451695643221007,0.31782472005429446,-0.09793881875542215,0.3661234296773549,-0.02204805422062367,-0.4475777540798045,0.20737774125747885,0.24833293652753208,-0.42171698799186275,0.1761166686552972,0.11944495588538144,0.545557768036663,-0.11234103548742438,-0.24531936449045783,-0.22336949142375123,-0.052934626889260615,-0.27772357178052354,0.3472794121045183,0.004746618035453655,-0.1546788038970419,0.04300359957001079,-0.007614437296191384,-0.0187085565398591,-0.08975144404406912,0.09374274969996953,0.12479058374459544,-0.24465056746654373,0.35956502528925693,0.050371665574814796,-0.014703559410604083,-0.02131057297750484,-0.03453090612050577,-0.030471587854290265,-0.016890682787302568,0.030261424349781116,0.12183722633043949,-0.14294364060761494,0.09852376403674695,-0.0916248056755918,-0.07044099234873012,0.04749786234160791,-0.1766389646850815,-0.025277828793494283,-0.04744428587629507,0.033459858051451595,-0.05078874771855316,0.1363540968294422,0.021698281386565148,0.04335321569308893,0.040564454136338204,0.011595879737198878,0.09682976852973806,-0.08114385512905184,0.1064798565873497,0.05090205331001228,0.04568096923244365,0.1228652696072973,-0.09679920532126014,0.06944419171145859,-0.11955738790563568,-0.005524812416154896,-0.05793654198279419,0.0970905947310374,-0.04464190109706515
25.956199645996094,0.9092006683349609,-0.07451354748542176,0.14957211776821194,-0.20297277598727337,0.03314478349525195,0.009306875865442751,0.05238445870818297,-0.13955550230355251,-0.17943050987475806,-0.21846809245653337,-0.11034370801161832,0.02227710344595923,-0.03821520735749635,0.017160982156362244,-0.14916082898812008,0.059672527903289335,0.0625478203240726,-0.13423918236007962,0.15553655737514965,0.11980850175090453,0.06420142234980385,-0.16830186598368838,0.08676977329749089,-0.06940384442673805,0.03384312057642623,0.10277950096650158,0.029161845920234672,-0.060583953239141064,0.04375583763052463,0.10965369224531815,-0.20257657465980983,0.3056607159738608,-0.18189294284792926,0.2217012348223114,-0.2334519816206626,-0.12959589943859315,0.23549117127980707,-0.16548565578854016,0.015436442056372613,0.35571297237347643,0.19512776384642566,0.7678841984529972,-0.8864677952105671,-0.0030110616601274898,0.02046783807912537,-0.2548700523824425,0.015010467501310243,0.5320692011526346,0.07585209402993495,0.5250153849764421,0.2160041878259601,-0.19586482520899193,0.05541278676871955,-0.13801010866925315,0.3230540359093942,0.2712029445702378,0.3291549854691346,0.06909501685186475,-0.0685439688892771,-0.00415480684710153,0.17031837821825294,-0.14372038402232262,0.25757302318989567,-0.058658652264192326,-0.10485366840105861,-0.2345554445853369,-0.061059058906532196,0.03547017091770927,0.021441392532346806,0.028035570849696323,-0.05565266774751692,0.01932947732363781,-0.06939073342211857,0.0074553716389748025,0.12057696082238202,-0.12079524099179514,0.13632555913041305,0.05688093921131295,-0.03247523382718665,0.11291941522935187,0.06096175326610204,-0.00820249143040621,-0.0037942306794740734,0.015363607448031856,0.006793703851317692,0.08595444338090269,-0.06587166582423142,-0.013864356070303733,0.03206741814477022,-0.06863277257383081,-0.07131161588701454,-0.03587952392799815,0.010236902454482104,0.1448976781441575,-0.11874046280944488,0.016828533107717578,0.0651548867426636,-0.04104465225105107,-0.24995792194923935,0.07580015435361706,0.21685986939023014
26.865400314331055,0.9389991760253906,0.22418895378587603,0.13912465826237969,-0.06030521062014094,-0.15890179441928515,0.5123071187290598,-0.07441712306943712,0.64841431404675,0.44405514562231385,0.04862112736557631,-0.11537893002815068,0.04816782455561851,0.06614722609986606,0.02750977250614052,0.03519898397266252,0.09326072596721985,0.3231332135112565,-0.10096385889312852,0.1013220014718976,0.162124507097463,-0.04714114875770334,-0.012204675382267993,0.18388250170227327,-0.10388351231537475,0.07895638190313864,-0.0968942176340118,0.26761166375276907,-0.03855377638101501,0.13821373723013852,0.16049840355873843,-0.08212056234674286,-0.051470457149791496,-0.005485810091793896,-0.01964666873557229,0.1212109201998997,0.19088662431657466,0.05003707031487539,0.14214843212293368,-0.1275455990656136,0.26389350570120695,-0.30175708089356307,0.2166361044225708,-0.020323597916382677,-0.09011007598464327,-0.22512389662692178,1.1395875000182294,0.24952456989480978,0.08301149652546003,0.19469531426199133,-0.5167369609803294,0.3147511722643185,-0.19387892140339316,0.695011721703339,0.06386453389987454,0.45770144637702564,-0.061226068361156454,0.2698685972013308,-0.03906344671521547,0.01680139526869813,-0.08975176423345656,-0.027013425560701403,-0.07537152128834841,-0.04466758234077745,-0.1318181294820931,0.09579335749652894,-0.024620709285987495,0.0148459656215141,0.13191538978338882,-0.05968863161851177,-0.02406478882601576,-0.01679901902846609,-0.0518139987577011,0.09289183866233243,-0.23842884684072016,0.012698262474024693,-0.08674693624088488,-0.014532835388488895,0.12535585198134674,0.0043691698604442055,0.06843306541171325,-0.15286778266373943,-0.00419417524025417,0.017540247980143444,-0.03151578378238831,0.083667085619184,-0.04124639942124124,-0.07172096265422731,-0.16152805560092992,0.053857008400940154,0.0234255974951084,0.034972463736031495,-0.053525389757277095,-0.04299564277642921,0.04361853258130939,-0.05139910162510827,-0.02389490371611032,0.017505580741209996,0.04652120527735514,0.10639280052595368,0.18239120868943165,-0.09249072214265869
27.804399490356445,1.018899917602539,-0.09891208876934093,0.20336847404613773,-0.2473522244091095,0.3094647343359005,-0.12283829201150745,0.1279046631964731,-0.4390718256671773,0.2062672766946737,-0.24218537817196834,0.4163042055493177,-0.026524159015169052,-0.09360448469284299,-0.16597418711663847,-0.11854630902765942,-0.1439993892352467,-0.11939004988881792,0.006131444274366733,-0.06886528514682684,0.3119757161030236,-0.11807247973946636,-0.19724854421429316,-0.1668508620288907,0.05790444790106902,-0.0790425825639536,0.035209771136891756,-0.11502410866080753,-0.06523075998108803,0.09825945236937166,-0.06959972942747233,0.22043364720274627,0.0699501107030703,0.0644558191499291,-0.1608255323436146,-0.1353326076399,0.026134979235024114,-0.19368630026947634,0.21570599057555112,-0.2958422800826569,0.1539548902253832,0.37562142904344226,0.3869966928676256,-0.036633697537993996,-0.3250772246867575,0.027402851734488136,-0.3867341447655702,0.11166239570281422,-0.6877765258879724,-0.016019310805682696,-0.12516280726757972,0.06273943392042082,0.047731382613969864,-0.3750241121989842,0.39394032395754547,0.1821655052125626,-0.5355118426538885,-0.5535272146402758,-0.016443665539182785,-0.12951503264487904,-0.0019140104162685212,-0.07868907131808317,0.1441333383723272,-0.294375287113519,0.2094579399556695,0.05306264769619293,-0.08953611503540307,0.007030616882143474,-0.04106363495103191,-0.022961879333253315,-0.1056986505775796,-0.20479743482520685,0.07496633838122832,0.1492223313839683,-0.16017845020909538,0.04786199075815201,0.07474953627802988,-0.16946392247456976,0.251137622967686,-0.027803285160554733,-0.06100367903852871,-0.09759036986150993,0.0642962208960081,-0.18637331588860576,0.0766979899327668,0.04187698559283579,-0.03557060359713475,0.059245968779588196,-0.08461731985341749,-0.027041852528065752,-0.09366692888399318,-0.1059080371061205,0.0012547983493058955,-0.11188078603397204,0.004229029222378644,-0.19794784726162248,0.03894407200234824,0.024040246426664847,-0.1047998813912669,-0.12935889190097752,0.053733639902037104,0.1538805338920306
32.2593994140625,0.9290008544921875,-0.3013082880857286,-0.04487619538057004,0.09682760843520426,0.5324780997030567,0.043363818168814454,-0.2948966858395237,-0.2509526712433741,-0.060789020668984436,-0.05987285996500845,-0.21755010862909002,0.30214528289036335,-0.2153155629999219,-0.10549771934037067,-0.10877752698317633,-0.030540794350496326,-0.02232272188787069,-0.00655498984390062,0.09863668550282895,-0.32809809946717516,0.16895632642684763,-0.08549416863966261,0.08568775840018161,-0.10682533857342838,0.2222378506172684,0.08036193078394377,-0.10888692016942449,0.16433972728926388,0.04177151721028842,0.06559317255704157,0.004723906530531099,0.09367692927978821,-0.24806796854055746,-0.001640483935352465,-0.10651483759634392,0.12017739448323414,0.07804812602835502,0.03048232992128299,0.1725309462095868,-0.06132884415374596,0.43037844424016947,-0.8464629120378556,0.3917210482904291,-0.2604113901198868,0.09746949716103911,-0.20882905613240527,0.8969346388542592,0.19209045972492123,1.3240600417417308,0.7515224662703966,-0.33504785741079324,0.16374580491285162,-0.807990747564606,-0.2659462337060241,0.2795971145745859,-0.4126459719694285,0.03575997680314685,-0.10225298908601983,0.04395606904753034,-0.01588369961594403,0.03206494956098214,-0.00878314953019975,0.07387149662571742,-0.2993297462139119,0.1354429024884653,0.2597838931389145,0.01522345244435991,-0.12824374823877183,-0.05102841835736028,-0.007163319496210175,-0.012472689839893348,-0.07692192362232335,-0.12202959882224519,-0.0006335174151837278,-0.12726434608058113,-0.10639410998756654,0.051032127958970115,0.019899725437913178,0.1955070239988851,0.04423425134314242,0.06343413649076016,-0.05068022331023338,-0.11590421115810398,0.091346096656013,-0.10456233695196453,-0.1505236196045676,-0.012317819635698214,0.08296569516902363,-0.11616990717936873,0.12289937266399506,0.02690844330875717,-0.013695096977225693,-0.16051839792005154,0.09627712679474024,-0.00658177919663381,-0.08011366625485072,-0.14748145235112822,-0.14201063515244183,-0.020849327411831306,0.04361415638451855,-0.37662104787276185
33.18840026855469,0.9287986755371094,-0.23623856556649522,0.42025569666618917,-0.027900127396509992,0.4778236343196395,0.15343800748660885,-0.011655063097104996,-0.1681880066137681,-0.21391691620097855,0.017876184233716036,-0.06247683382769014,-0.03100100783132175,-0.19712051698625965,0.09238915219339312,0.06333422692849079,0.1670815998020106,0.08300188697171103,0.0013746409690193057,0.024645170688270743,0.066962585179174,-0.06129996896708733,0.08605501830706301,-0.18623794934273594,0.1509103479743471,0.06920764040041466,-0.05352359457330796,0.0656596780786648,-0.19517157185033893,-0.10247256533479268,0.11584490849403507,0.2773265371429658,0.009104571692991278,-0.06315712703688839,-0.2982499426277264,0.147094268607187,0.030250939786939716,-0.023265123411550515,-0.11336770068232024,-0.14218709555651135,-0.17322722646250555,-0.3213031864129965,-0.33015621771436726,0.6870389622591874,0.34431542534478704,0.013028388994368041,-0.3484134869841269,-0.09750784616135044,0.762549885275575,-0.12745989180598322,0.2961504069577792,0.35969201367519804,0.11144124266755383,-0.01837131601541838,0.11333958277079122,0.25847635881492137,0.1588990881058377,0.06931595570340865,0.18437544401538755,0.014341123199972983,-0.01574731251396221,0.1013679543278575,-0.15404309242363273,0.21452908545492635,-0.0018597441391908914,-0.061238007494013785,0.017050467696083663,0.22918060942344284,-0.025970911883180056,0.009515839474672503,0.03788547615178486,0.016317052629411286,0.07280434053064411,0.009798631017359463,-0.021322651125374976,-0.053742421813290926,-0.07109062664239552,0.09522901922076955,0.00808528318965892,0.07181452783932947,-0.18811444947327438,0.06719685826466139,0.014421965301183844,-0.1003539347043933,0.11782016927106581,-0.07652387255159333,-0.04005415528545905,0.054819212199728115,-0.05697135520164847,0.03512651457781753,0.008805405208342859,0.0213828080851952,0.016119379797693317,-0.024059378323150908,-0.06157208515899555,0.1484415034187846,0.05205983984215063,-0.1388617596787869,0.28943136239773987,-0.14452854320675357,0.062413689974118454,-0.05561047797465191
34.1171989440918,0.9989013671875,-0.06996946419026953,0.31618461559140837,-0.6974462972969985,0.13458860064216274,-0.4234490864829718,-0.4500159995625081,0.11399233795242322,-0.2552983473024123,-0.08833000500490473,0.20618810390452771,-0.18804051493223142,-0.1984913675871671,0.057242653682833745,0.22429332585181294,0.06419628359485136,-0.03138202311302645,-0.09542239725543213,0.06066276690536558,-0.006735315056394006,0.07757105247765875,-0.009791372144316995,-0.45409072516667925,0.2203946595524,0.13001996866211316,-0.17677282453185242,-0.013543856350742078,-0.06601243702626211,-0.016928007221372394,-0.12673401359756364,0.012655493328522397,-0.13403138372637086,0.15633572352320807,-0.021357005526199527,0.15333129490949954,-0.20446010010661375,0.11130888323732749,0.0677731773575444,-0.40060754234169,-0.16784593912794674,-0.23093127181454992,-0.34993963411973017,0.7469253509982683,-1.0936706502934523,0.0814992532290319,0.10828189067924553,0.09462983505849555,0.41657345643262444,0.21615990729303255,0.0739306231696766,0.09123861515091443,-0.2658149018523328,0.27691802233706564,0.5467071267446432,-0.06462526275919558,0.0162527757614341,-0.4489168418931327,0.21487648086245034,-0.03712339201229965,0.02627221866722225,0.12491757315540321,-0.18385587811875123,0.2946639111170457,0.1814209104962654,0.0940799606205292,0.026219704002378354,0.056714726655647904,-0.11041545883560545,0.10480104305095456,-0.13367904190757082,0.15601508025878758,0.035039858517227414,-0.12541516110489384,0.06107399893810561,-0.07384114139352085,-0.002664832199008603,0.0020280623217562655,0.0356324861526347,-0.15375493628357342,0.01588426406639016,-0.12452557326709551,0.04358614596705212,-0.011671711139677384,-0.07589397771599532,0.008579217240860762,-0.11341588552573338,0.10449267614766387,-0.06286230363021839,-0.09450470141765811,-0.08346099530512782,-0.027036080458599707,-0.03834241257399766,-0.13695483573730696,-0.015557521557749705,-0.02877003594346999,-0.0005387911867332958,-0.07711605865456538,0.4053336479216466,-0.7413009451019202,0.11036041090930139,0.005482101455332622
38.51219940185547,0.9286994934082031,0.1868909109022654,-0.13058150405859092,0.0792112290865574,-0.20028705212346648,-0.025388298833115025,-0.14543986019564445,-0.016846574937232888,0.02618548861766531,-0.24526504407185803,0.24981504456542042,0.2053510819622414,-0.24633240064253623,-0.06493066237479166,-0.06145462976018045,0.13227973646886373,-0.013275241271181393,-0.0595985550746191,0.07809768380465507,-0.040510540386621885,0.10951441379243654,0.029157785749500918,-0.11944577992882979,-0.23994032309098356,-0.12065403556104622,-0.2725188862697,0.16583053448972232,-0.14871017518982974,-0.0501610082639123,0.20832720869038115,-0.10492969698448643,0.10808193719669029,-0.14056951848938912,0.25239173033034734,0.21300956621991105,-0.006701664916511361,-0.41779407773507055,0.06659232466803283,-0.2062134120982603,-0.005130986737995086,0.47799243502499966,0.2627919320673071,0.04350432209206449,0.2065931370182865,-0.37617620529931994,0.48386468776113944,0.14724534384847393,0.46265756231173294,-0.38434929638986465,-0.1304108774184619,-0.022043617778800456,-0.27958189971792435,0.08413978757954763,-0.1950297263064004,-0.11090820005471169,-0.023962413312770083,0.10864781479129342,0.029493390625698692,0.049386189978320574,0.006505591787423389,0.015516979688074486,0.20918881419017835,-0.141662806925864,0.01601734924448334,-0.2620558327510868,-0.16042277877154149,0.00204664975027837,-0.06844073671693149,0.10843539880956322,-0.0011753806664729465,0.010746798921971477,0.020294855487391378,0.052905782841824914,0.016796439617690215,-0.01303157716302542,-0.08461484642506736,-0.05253096142576928,0.0435387376667883,-0.06336281372612207,0.008217568135742368,-0.11051896327430955,0.07970997635721985,0.03189916415606203,-0.05377609049893471,0.020175312407714606,0.06485698929146126,0.02473116977936594,-0.04734309836403271,0.01987409862885832,0.12692293657948595,0.06457649707372398,0.05401429139732052,-0.049857865972998655,0.08112376220453651,0.11143719355405543,0.05268318946712902,-0.06919977249310655,0.0241849789129793,0.024603736034025193,0.07449500150942545,0.08157899048474017
39.44089889526367,0.94940185546875,0.0894845592893173,-0.07947151913679637,0.19839684712388733,0.4700771221802265,0.12334118552721353,-0.3196673134226298,0.3404621158429451,-0.48406451524284905,0.10312739643737523,-0.00516253337344714,0.006142164647652393,0.007561054793685926,0.11154708898749296,0.056002735655818564,-0.049769214518025476,-0.12687192979346495,0.03638264478880666,-0.04471286168816945,0.05674983437577553,-0.13874430073003902,-0.3425562471845045,0.11551985431074621,-0.08858177661691766,0.11557219161710515,0.00876508161441597,-0.013564845135910188,-0.07757509061756764,-0.1833508184369963,0.2281359771770885,-0.04575687371262118,-0.020227660717697722,0.014730590727259525,0.07434931614105109,0.21545724432193758,0.33013660124629984,-0.33912005028761655,-0.14009435307078455,-0.09522760343026465,-0.42324920458065984,-0.5366815154758506,-0.2532602998876653,-0.43257075514941296,-0.11284811627974219,-0.148787018746033,0.22699864795301283,0.6135994493829638,-0.11755551993597887,-0.09537252519493533,-0.3539160176086287,-0.6654866825289893,0.011659276015787767,0.4606053388648723,-0.0683252926006771,-0.2158588526821691,0.03982053525185709,-0.02251498160110439,0.10252932320065095,-0.02906381357380431,-0.0331669146143368,0.0313328099339691,-0.0045662496581461015,-0.06533252392925731,-0.11707259055549223,-0.0002363860460502349,-0.008734892986430473,0.07595030545060909,-0.00968079595253895,-0.019937391926259977,0.03147264240270231,-0.08384657804222782,-0.01559928645770783,0.03441461284310674,-0.02757855469699791,-0.021299974116820768,-0.09825032143771896,-0.07082651205372974,-0.043861524419298185,0.02778373198088982,-0.05808158293487255,-0.08378402416515603,0.03425479802523479,-0.2219386309793341,0.0470412162023816,-0.0065137760137193865,-0.006535266169273997,-0.03486784092819849,0.046191634706898764,0.07204930123968582,-0.02404902400146479,0.011207544067200714,0.024984794563251013,0.03442117809130549,-0.10956509217313734,0.008940835848069689,-0.09540182115832506,-0.12355344014870054,0.021859183043739322,-0.042402891271467895,-0.032151599759295886,0.027135453584276936
40.39030075073242,1.0186004638671875,0.016478522866911288,-0.014734004924263829,-0.18493429457400823,0.479195373701105,-0.20947978117219918,0.22319766916845152,0.05396788603206085,0.15659279899103717,0.04247205890950286,0.005764511341401886,0.4862115782839981,-0.1639759832349426,-0.1160038124060347,0.10192161693256394,0.2908534938365333,0.2510936464308867,0.07508499784557934,0.15811523790525556,0.06666467823588276,-0.04093346642760221,-0.19763102992912646,0.008469219660170453,-0.3665937391763945,0.08081177491871477,-0.06868601700509867,-0.02041317341064916,0.0008775609872165128,-0.012435331744851064,0.05819718018795474,-0.03330062143332076,-0.06522686631464915,0.18088505171642455,-0.28537278060768695,-0.10932840899306162,-0.1589143144706431,0.0390554508734239,0.02483530220036878,0.10974781378549328,-0.5871629191636873,0.09833962923017475,-0.03872452342816155,-0.10371890212162024,0.0807655694282906,0.1331677943183926,0.10043444243618552,-0.5024153066981804,0.24026971476279999,-0.005669699298203268,-0.30596114565521315,0.048026692128265304,-0.224969887029777,0.12000678621030492,0.09501127020865029,0.34404362205239486,-0.19382469633467408,-0.006407401413287382,0.274095496616574,0.0275271677652368,-0.04349836860807577,0.005498294542643629,-0.03922330773736723,0.037513753283926,0.016561673115723,-0.12746624372801146,-0.27222852174894013,0.23059244939937673,0.07447494305072228,-0.00705555846442363,0.08494184365588141,-0.011174207979729692,0.022122358473241968,0.035688692465592226,-0.1198444232731052,-0.036636241991627884,-0.04410985617360508,-0.026974011949684837,0.06331328651413938,-0.01762505645810204,0.02693729449631754,0.13847098244515796,0.035009063047661465,0.10404334061399438,-0.07050415915280188,0.07489823852109118,-0.12245783576460526,0.02002977012744828,-0.03122455369021398,0.03299330199826522,-0.022038576159803563,0.03728902142255522,-0.010094484397022877,0.09795386347566457,-0.06878748835501278,0.009301805057506086,0.07097418937646252,-0.16866056639581242,0.11791173541998105,0.06752684952370594,0.2572034193516573,-0.2839246473157622
44.915000915527344,0.9388008117675781,-0.085628913157485,0.10675154411130264,0.05814375148817671,0.40047644187211806,-0.2546644150886391,-0.1494201873417815,-0.3917524154473023,0.08404310724675637,0.1712933922920667,0.11663519377435341,-0.22781389911833164,-0.10525065774083438,0.02403489018958751,-0.04851171841050085,-0.20051096317329697,0.02241952527899764,0.09589411554711096,0.04058286594073444,-0.10590872526049042,-0.031567669126007766,0.044550753658456774,0.22127557240504916,-0.2870386994521455,-0.07368959830352231,0.00778434764448574,-0.03885200285198544,-0.04901206679808358,-0.003263843641183428,0.26243940206359856,0.004349516840922022,-0.008700968216003163,0.014611935775894036,-0.04129164937423289,-0.02818852727508695,0.012985263343826478,-0.13163580133407543,0.09996100409524936,0.002062795506256092,0.40219529217627703,0.04482352052930252,0.04642252582609831,0.3948589292457725,-0.025681317135480747,-0.9847237448621364,0.16083113574492883,-0.6046047141822348,0.10967247130168227,-0.03879568375049702,-0.13211854346256383,0.21212623756888488,0.103715381621372,-0.12948330993074636,0.20645006520823098,-0.19016986013705237,0.2624655646375308,-0.2807994557420472,-0.008153700184514176,0.0048764351782077065,-0.03041182342742784,0.07781753221991555,0.003965882519567671,-0.09886478437284689,0.24946641603480293,-0.07968919447533106,-0.08588847182108784,-0.05623655370435212,-0.014322834875084858,-0.08762934502928701,-0.00024814823507362247,-0.16826071712515467,0.09271786457448532,-0.07567494611257419,-0.026560944492939643,0.061283565945896755,0.06322968440141534,-0.07689726748787261,0.06478489929111937,-0.03632479618913568,-0.025461172250270295,0.14457289006077179,0.11849628137925142,-0.033273274671604555,0.0027100310291792687,0.04704657073489651,-0.005776259970408858,-0.06790807245095438,-0.047705691205301284,0.0798311286408611,0.19197962127085,0.0011130760586023636,-0.021307997337202896,-0.04986485879671711,0.043949108440775216,0.05088941907760423,-0.04035317756763455,0.08798817636698852,0.12912875377028576,-0.014419635990586823,0.0017812219797446326,-0.07615552453760419
45.85380172729492,0.9489974975585938,-0.21537638134867132,0.0881048530016065,0.0282156995474854,0.06851402416948973,0.046207903161910466,0.1365904482829748,0.08558128455529115,0.09105149296317451,-0.17987423987659948,-0.13723362774705816,-0.024159000356932095,0.010164287610796408,-0.15481862164819152,-0.025675824691099403,0.14018772663096318,-0.007476589705237043,0.13138013877680227,0.013968190797765113,0.2191175467075014,-0.14022667126284588,0.12017628480933869,-0.16368356499926506,0.01570497910910046,-0.03848530731460226,0.04762445090517927,-0.03461513808469795,0.02940559638656123,-0.12306809756154129,-0.014309924145531026,-0.22657866502421667,0.056990963453173324,-0.11824131962112912,0.23892365204243418,-0.10040464450725654,0.3154112451672584,-0.1428447045749268,-0.11369044228796,0.10924089309112524,0.14527135646187828,-0.09443269230999507,0.6472524879323381,-0.447957747890967,-0.9120247818667572,-0.2064165022803723,0.5320949611786846,0.3354221779109216,-0.8797671237924438,0.5411303914204941,0.19382451968665354,-0.1860841433192766,0.4420017503431895,-0.29602259118147634,-0.008801373392485391,0.27618552300120747,-0.2795087486817569,-0.11045640335397476,0.0077102361484027646,0.006897463992410845,-0.021697362890587057,-0.08583818369717772,0.12749880659061497,0.09442563884676695,0.05409778517356905,-0.012953275166523818,0.03732264211000527,-0.028410638183617422,-0.04108601884318074,-0.01438309466385829,-0.04634348915949872,0.024425942813831855,0.019312523251340717,-0.008242091121385004,0.0009840798139289935,-0.07765861176903097,0.010922065436694321,0.05461967711686471,0.022632943915811488,0.0077628462917920145,-0.14906062570647935,0.04286302651988221,-0.10722848509682488,-0.03694971349627464,0.1028747812935445,0.0829750303081819,0.05741201098590276,-0.012714598999938646,-0.0015571733434091442,-0.014832831301260799,0.11138107567437731,0.12656828916516633,0.011002911610035224,-0.16497530325592702,0.02170840582426392,0.056974713393248694,0.02993463552612056,0.027739070454976946,0.04775701760769585,-0.12560541470834785,-0.0751499216840866,0.0759615841032607
46.802799224853516,1.0088005065917969,-0.061264561583541266,0.10326914843067324,-0.019326829711018026,0.1351670967538063,-0.15368146903396954,-0.09298542355591348,-0.17332478759576875,0.15087344027822422,-0.1935644983880943,-0.4944173354056653,0.48761610697832586,-0.1068685022001736,-0.06166185955697939,-0.001023878052565742,0.023298324783078007,-0.34263677223055217,-0.08263302787326682,0.018397936231506193,-0.10075808700938456,0.12710229832060907,-0.017363381119125384,0.012299221088678935,-0.15062526588027023,-0.14248775620525786,0.17376580385959017,0.0802787098783698,0.09125356387725148,0.15122288990438465,-0.038980103466017296,0.03619229874108684,0.04327075288564277,0.04186922205842839,-0.3284820618775726,-0.13439710573437827,0.03458732423998426,0.2370171048157095,0.041513061843261145,0.4228034271027295,0.3349984851299226,-0.30833717240783043,-0.45926174912168555,-0.27156053910288924,0.278034557642836,-0.43545241132804074,-0.6714367529541535,0.5438101218229264,-0.2793628622392754,0.13507182329985487,0.08610650830686162,0.11735724950503185,-0.11875883872752589,-0.02360401363861399,0.2060139067987132,-0.24728327264463906,0.36849391838805046,-0.5108247514500236,-0.04649438535026153,-0.018748504810025254,0.006125453840883419,0.04282684844120284,-0.0384389890342909,-0.14196608154643572,-0.029091913701402027,0.08172104247821108,-0.12409097631223179,0.014703672714032839,-0.02009598976866301,0.1122275692931953,0.05281985677979061,-0.04501975087515787,0.006124616715104274,0.1157897273483867,-0.14024271745208253,0.0890324201503417,-0.09811891980044951,0.09268217414911574,-0.04838814513643784,-0.18164301590112458,-0.08932523783682356,0.06221513116602012,-0.03933909717412103,0.024975545131148323,-0.06122798505592382,0.020285300261581624,0.10476799247191562,0.014355584307629331,-0.06759833972572474,0.07174035212769199,-0.015343382587873551,-0.016838829351918185,0.13178741556074144,0.07710610175238258,-0.050403592471344974,0.0415566481851587,-0.03282533208545482,0.28988889986009136,-0.12625216028823535,-0.07569896154492338,0.17135093826250064,0.03693631809066396
51.367698669433594,0.9488029479980469,-0.07436566582562688,0.045688843582683304,-0.3658124447400858,-0.008562180523710286,-0.0635359523249052,0.214949161647624,0.26793937450696353,0.22249236606724881,0.20641608868774663,0.01126551714808072,-0.19366618440920536,-0.06689316233588254,-0.09163479724514559,-0.1349843991680963,0.008041968037914474,0.07719789041798476,-0.005820535365395038,0.03567151464204787,-0.014067396577795502,-0.06865052810218568,0.15100756130255438,-0.22152032951746897,-0.018235224082391067,0.06234224128481037,-0.019752156049151436,-0.026774399173156334,-0.10459489156534271,-0.029494864929610058,0.03633726807057878,-0.1347854224395496,0.16924768307912577,0.13645748417296433,0.1723233389999625,0.2785454222976665,-0.19219517598681593,-0.2641428249056472,-0.040840874074071706,-0.5536203372248569,-0.26004344965514214,-0.23975541987973795,-0.6268878845106994,-0.3309826063414021,-0.26790381048684475,0.3462970393463557,-0.1861973494181958,-0.11548752931062051,-0.23535435597684365,0.0865234325534951,-1.1849422977527881,-1.0514757109197517,0.2580817633937434,0.4679952203566425,-0.07322713573575895,-0.21294119169082948,0.08987655622832731,-0.1258532828552318,-0.17679525478160557,-0.1074864556049942,-0.07493861791477907,-0.03119737777265104,-0.012434367093442613,0.10598520423863403,-0.23313979970334883,-0.032847700082104817,0.2281757331425287,0.016117567227578084,0.0378717652832188,0.07854436027460304,0.059466367393279776,-0.19400175765457817,-0.05560951079604797,0.006513907722550811,0.03868762770593306,-0.04952215215162017,0.13162564440083346,-0.06113990822716455,0.02843311175586049,-0.14926005739741205,0.033704457971020785,-0.03387473922711985,-0.01775221840265375,-0.06070759252173217,-0.040100853947023264,0.09656780125435331,-0.0020967341549816203,-0.002169532251085825,-0.011056892916910421,-0.017994464834766792,-0.009776497297276143,0.006895182062359905,0.034834015609111785,0.08225912449871156,0.09982935210776217,-0.033998706722828925,0.14447805095607558,0.09040272213194256,-0.016297880254088223,-0.21141342162314036,0.1417678302400542,0.07614989409154477
52.31650161743164,0.9588966369628906,-0.058620240542698404,-0.09539679340014531,0.4374761436577206,-0.4894467164909949,0.1708125651727246,-0.3952397226080361,0.020785493299766672,0.0815840498044728,0.152575393893307,-0.13553461800215735,0.2850384393946166,0.0201772573771826,0.11948280448932247,-0.025004963468127986,0.20759840991411355,0.005328372217769328,0.1004014771897925,0.04340155690937453,0.023126912433101984,0.21146143083903018,-0.09710968015253005,0.15900927080314692,-0.12057168889642807,-0.04536531576246354,-0.1640873341333691,-0.0010797208317411128,-0.027525973894926278,0.010941926695548249,-0.013468504875879453,0.17576524527499,-0.14126122371872413,-0.06578140263594158,-0.016538161795312117,0.0199133885891958,-0.16035736267138084,-0.09108495002273773,0.5402189370050887,0.02896918523001166,0.33087824102486824,-0.19781101185047587,0.42122245020526294,-0.3024926155769995,0.19578045692288473,0.17026049161321533,0.5295513451553983,0.2893158195804882,-0.4703275072013315,0.3938969332433651,0.8085248907243544,-0.3501654711598977,0.17753610655660118,0.0114894367808942,0.4348371070547808,-0.20761501935239224,0.06292112158353562,-0.04466875719636364,0.08573336016509947,-0.041034105148571996,0.029785418245459855,-0.02806165274998096,0.1738478315730218,-0.172488017502754,0.16714809635341643,-0.1850182225132796,0.026722287324468484,-0.11224274065002199,-0.08809097489232547,-0.04262937380604127,-0.03505426041801186,0.0574556154484573,0.06385238098782828,0.0288963601537284,-0.005669838437845798,0.14469923422552522,0.0025326133198636004,0.037235483328245715,-0.10373326675630624,-0.14173780851809606,0.0509521062057553,-0.08295623012055571,0.003662928251784282,0.060115517685431774,0.09580390309987374,-0.09241860290379988,0.05691077803834239,0.012950126630156784,-0.1005153503327622,0.03832560986793788,0.03823438321248508,-0.05239605795727528,0.0011000135991144607,-0.006773862002367455,0.0645081294042965,-0.025382479612836614,-0.022643495833207804,0.053129165074745424,-0.104366393294856,-0.06635185785963302,0.07462331098112626,0.09874932471559089
53.27539825439453,1.0385017395019531,0.09274158088560223,-0.16455822797915406,-0.3613053497457792,0.600921127209483,0.0773738380588538,0.015553903232865377,-0.03781855158000888,-0.09988429488575759,0.23849562847066427,0.6778295264539052,0.11525275790897772,-0.25437834119019664,0.05069285485129554,-0.0938612862053,0.3696216223572439,0.04172802428124227,0.10405370605319066,0.013980983137514301,-0.21432268943928803,0.005348877773008392,0.09175546270641509,-0.07728328158184444,0.10996146394611135,0.03243798440827034,-0.08899229316242943,-0.02038285049903539,-0.04348699603017483,-0.2004572202566296,-0.042512947070110205,0.16214000232164277,-0.17089138927592484,0.06262357349032659,-0.0503650894064958,-0.12484146730920992,0.05002294752643416,0.01812065719246543,-0.07655243200316703,-0.20786088351422544,-0.0668566177686669,0.2524881503283889,0.19737044907296136,-0.32787846517078406,-0.14600590145872544,0.3328988496124048,0.14676290965303254,0.40195279497732656,-0.7636755910416009,0.03475609989054647,-0.1684426456381573,-0.4078361666165776,-0.3308459915280331,0.28675391025623015,-0.09727066466309998,0.2070535444966184,-0.09704337796732945,0.10973239725228197,0.2851256977980049,-0.01644914082376913,0.06135918940436216,-0.06248521838294673,-0.010966369801305607,0.08926546443742643,-0.05236779147635523,0.011517792151356903,-0.0317727756586435,0.04674168541672177,-0.04464456538234293,-0.0008937426083737514,-0.010443144880848437,-0.014867673081417648,-0.11702496888285682,-0.022240065135593873,0.06026590876516516,0.05561052001340594,-0.12748295159365028,0.12216878135432704,0.003208532018973211,0.05360053010322644,-0.02705578787703147,-0.01560085021769576,0.08662814281462773,0.08952926931397989,-0.0006229158015842647,0.03814578397474296,-0.019642712090039597,0.1350106796960327,0.06756590203699378,-0.033569262181493885,-0.12170390727519514,0.12281787547745053,-0.13545396720529992,0.027920813075603464,-0.07982731974976912,-0.01819440582189319,-0.018822555917034082,-0.0003762808162078423,0.10274360460455373,0.07337118116032662,-0.0041695060452520034,-0.143899458913813
57.81039810180664,0.9386024475097656,-0.16189679121056122,-0.2089631120113385,0.09813137825244696,-0.09090763759980265,0.24236140586423527,-0.24007617238271728,0.23604990439500156,0.12118081504095118,-0.45159641135977335,0.2084630827165071,0.20112362231881026,-0.013881136163591906,0.08519911538656903,-0.08063067281602251,-0.005213296236473208,0.09689102202305487,0.013077173323481765,0.08204986776031238,0.04403101500235172,0.16745006411302213,0.04339295748290167,-0.008677826151952396,-0.022257564503900776,-0.01079697270294417,0.07728965802934365,0.06714822902992489,-0.016005574729187125,0.06878419743202055,0.26184454089280207,-0.32584504274007114,0.5037107253323622,-0.01699570486457551,0.2892840475782012,-0.04874332115271335,-0.10519819465778958,-0.311510087173138,-0.17240999190264408,-0.37838379471460315,-0.21024315065165888,0.3461918969291038,0.005925130053744815,0.4993330977891708,0.5272853292529041,-0.0697595530212097,0.13716662928042797,0.10429572615608482,0.6772616553782718,-0.30920527162703526,-0.2128541252039561,0.07162664052844545,0.016383225379454025,-0.007714690386104994,0.08637218623640616,0.6185506121911448,0.015528087491790549,0.07829737860725552,-0.014783800772217928,-0.14595479933346123,0.0005586019979888779,-0.044570621046478416,0.11922620681896946,0.056212412784199015,0.08474824086770362,-0.1015822795865844,-0.0412867592796507,0.21653395416043908,-0.18961801583672244,0.0694338508445232,-0.16707086674218358,0.11338314600562661,-0.08822278877450332,-0.05084178902866622,-0.03562348172516559,-0.03425693004522828,0.13715539749640812,0.00039566805467671634,-0.1002049388131428,0.0478195868799019,0.02261066647960788,-0.05796244177786601,0.11157822596716016,-0.10833564257305657,0.04997760049604919,-0.025609414853113906,0.012261247774404564,-0.07293882364907583,0.08830294510977324,0.0818409841052003,-0.12805770190056165,-0.07700401229547231,-0.010265821361482227,0.01255424934273907,0.02519865338963535,-0.08316091945582765,-0.10816800427125128,0.018432449499987628,0.07992309896543338,-0.052200661192839864,-0.04731683508668149,-0.27224436170296673
58.749000549316406,0.9493980407714844,-0.14796336095225182,-0.4834676035201118,-0.46430481093074005,-0.220894105320254,0.16922868799040924,0.07687138568268191,-0.3027003980708385,0.1492087090952024,0.3823409453258171,-0.018740689835200164,-0.06330222229925075,-0.005913560664627584,0.012962561203181865,-0.14989779344989446,0.018538470732814533,-0.1709522679531666,0.2299918073443327,-0.0014886723078782068,-0.02007310008577852,-0.1421837956578757,0.023926155621583213,-0.09209009427100891,0.03340355683495157,-0.08388833381076125,-0.0027033372488639096,0.07016334634715565,-0.09103729060511467,0.11549200387135404,-0.06633822493793581,-0.03687046527534468,-0.021053393043220587,0.04762083010188163,0.056569763937496007,0.2561634977858933,-0.22160665283625902,0.2592158429383785,0.1476848151661963,-0.42376763713014853,-0.5559325686759962,-0.5069421994985068,0.0037474905180588103,-0.2991299706765525,-0.25233515843325466,0.9215701616806631,-0.38435041178993845,0.00837092506860895,-0.1405093879704264,-0.4846241480124835,0.3934681771406211,0.05126663386511003,0.024281619591788234,-0.27653998159445875,0.31663524145561156,-0.6962475753035323,-0.09150287896581391,0.05721309903387153,-0.07953810299031053,-0.0937758084747187,-0.04015320109373863,-0.054119717952025095,0.018975410138876336,0.08327962692270417,0.0763670602280022,0.12581429389330032,-0.11886861235741514,-0.013062965824904373,-0.03779642169043881,0.09816225539806152,-0.10745451985903341,0.11961559089890761,-0.09347077220416364,0.09332755812654481,0.09318386996483913,-0.1023479052127193,-0.007610656655543023,0.04706833821822495,-0.07597400186010482,0.024208771068887462,-0.18012397911409564,-0.0480136971950442,-0.033584122133296986,-0.05924247150265097,-0.10180788214514559,-0.011865764676168136,-0.04938191980666139,-0.05730437210207582,-0.013971507411728883,0.014277551113171983,-0.05602507521060681,-0.081511284051774,-0.011540358766095188,0.06924316267633703,0.008611458033214923,-0.07897834325332517,0.1064399590853496,-0.06845005480964163,-0.04493910644262958,0.05716023568776532,0.07034441152477586,0.045059581056781636
59.69839859008789,1.0186004638671875,0.046504625560023556,0.004787642790964115,0.11630086169440249,0.014175828554113812,0.1795538241924292,0.1692244959833077,0.17627690165589938,-0.3162747497473366,-0.04114576236281553,-0.3391917227274591,0.12024289681850678,0.030982317538807,0.029627811298576796,-0.09878677878253087,-0.17403342213218553,0.1520133456907793,0.029876566717656424,-0.05404707195054717,-0.12367296807124051,0.1296733927007381,-0.1687483328672477,0.22266003500153506,0.048785375017393065,0.0005660407325967787,0.06409647820212162,-0.14628672304848073,0.012048016666891773,-0.018338121014078605,0.11694467977253047,-0.016610100089463807,0.040882019656002855,0.07232575523382982,-0.3662623520194023,-0.12873889120045073,-0.2840234854875519,0.15111224820027602,-0.185899935035081,0.026690519288484427,0.20038893270648442,0.13557197268733848,-0.2272689368048577,-0.07223692683813665,-0.3041773733458131,-0.15308182692919897,0.17958804556261984,0.1855678967544712,-0.6516005196302894,-0.00892075920364474,0.17775496585487222,0.15743844875976007,0.21763218167479662,0.09880939990778538,0.25885500605078704,0.039587940009478136,0.059416927862950386,-0.12100645991245053,0.22463997683138406,-0.022731940985809135,-0.006359405169608684,0.06691969937431784,0.014357764507851506,-0.0666352337189637,-0.08624638719736855,0.3110550521242179,-0.33344882834429873,0.08697059972532399,-0.006840537769457852,0.09404050453418471,0.06554910278871992,-7.715224727054305e-05,-0.05466146390918399,-0.07599319651643713,-0.04262705910573729,-0.057623967504164715,0.09325001366765232,0.08173038022487289,0.043821330864941783,-0.1019649265021277,-0.17664317291422654,0.0852262547967581,0.13913929706217312,-0.18468934466039527,0.14449293422528575,-0.05429275945937484,0.09832497054601642,-0.08907145434382645,-0.09358848231606626,-0.07090163296581788,0.16706511982060304,0.112697154182642,0.03113364013643402,-0.5238844373579341,-0.031588190879516816,-0.04919583744553876,0.04983925606624036,0.08044933396975334,-0.128869001947121,0.027889496051631074,0.1495928739941117,0.08663383443302551
64.38300323486328,0.9686965942382812,-0.022299347355269068,0.03821679510137664,-0.44715152084885634,0.36320496769898114,0.2373770360067441,0.3346928052261946,-0.5549499726577412,-0.21284725058935217,-0.30439667039694596,-0.3048985129663231,0.3338967651346721,0.22047561007063457,-0.1452600621634341,-0.07875925417387854,-0.14447623132987453,0.18790612598277376,0.015940884317318882,0.00970108400420866,-0.03991782425849085,-0.03710991882242706,0.04929854885077015,-0.0797249396010768,0.3749313801671946,0.15693730502621828,0.03569627693207283,0.027751193702580768,-0.06229480197383816,0.1569879593661266,-0.046650938568560285,0.3555949982610915,-0.034587433787974124,-0.06934119672845601,-0.13441185715712103,0.015377062906734925,0.13751918194433418,0.09139549286984532,0.03521111583258924,-0.10218792274823293,0.36856121643524165,0.01318108880766768,-0.38535146706876056,0.20154910698287798,0.27134631308488355,0.04049194489352671,-0.030612124584245087,-0.5317198199832663,-0.09635601024978038,-0.4295363984165308,0.2985886854737554,0.29603394867116284,0.17093461119829137,0.2795242492727167,-0.13110112434749022,-0.12053251946920793,-0.01482300055269962,0.43822684381152555,0.1904075823802034,-0.0003250552748604446,0.016468253345671213,-0.007763313911384422,0.02627450632961787,-0.08538271105398436,-0.262122646440406,0.1650970213935341,-0.0803227325695389,0.08971447213437274,0.03445596301271758,0.034923103564568375,-0.017748335009939168,-0.023334113117755025,0.10088887450644138,-0.09878909704350622,0.025195064749718093,0.1140484100200934,0.10344484978167925,0.049028857218376756,0.029047654246616372,-0.11923818072682436,0.012073049735315802,-0.10282118434959697,0.13881759409462935,-0.23017514945651843,-0.035463137083919904,0.037578867042163,-0.11969812095084408,0.06228074445760497,0.007312408394191217,0.02078999886514314,0.04041595551810744,0.0652162375713905,0.020936583933771284,-0.057779513977348526,0.059173881696477346,-0.011841059917463391,0.02149626411783012,0.0313087333284552,-0.2286109964476658,0.052374102439242474,-0.04019692500232566,0.22168170851659028
65.35169982910156,0.9789962768554688,0.22967811628971502,-0.14491869089221787,0.5410460994134575,-0.028416485431896066,0.3336700005786861,-0.5280094216827957,0.3337854989180608,-0.02492183236365483,0.09215884081677254,-0.07657972512998248,-0.2195698928151468,-0.05586807467740341,0.09808322607739664,-0.09092366912918758,0.013365206006988279,-0.1016186901296341,-0.04477936345950135,-0.12423625106052172,0.01083870448094334,0.1165379965510634,0.024512746755801867,-0.23917819572148977,0.013601854746521994,0.08358335280535277,0.1348016596647143,-0.006277990152356179,-0.07289326077298967,0.019844287211522496,0.08826363423126964,-0.1402312097216326,0.06537742655165005,-0.04426899766060166,-0.19266614772460533,-0.17271295806924003,0.11018091863174063,0.1966231970055992,-0.012127941631715797,-0.10870379661100671,0.19040990402096752,0.04247047444574659,0.3467934172351353,0.03192144393171713,0.2923701038927169,0.1312426170222672,0.42253509004192624,-0.07801705798867548,0.41851851970430787,0.39445476993945094,-0.6179737544462585,-0.08238167417067788,-0.060756620171733965,0.07389080165845203,-0.3380023863789135,-0.05528324955770153,-0.20116179479105642,0.09441103144069221,-0.06114605077875835,-0.06515110569652853,-0.0730513436525109,0.033502765910352644,-0.09293246310068537,-0.00527816589026271,-0.025242096785306103,-0.020652346018151652,0.12731147018603706,0.04423519968491339,-0.029824622701744064,0.007639354012654812,-0.04421526612129599,0.05526492864971523,0.005350498865565408,0.1326026834519751,0.05714317872371514,-0.036971318652995876,-0.10839531558871934,0.02647640618703326,-0.09411225713967557,0.04581047610233488,-0.06265797601014302,0.023390281340423473,0.04103926177722023,-0.05006155702321113,0.010100160546297336,-0.09425734870056898,-0.014403083882286142,-0.003818074183461454,-0.2714514426186941,-0.006010221979298236,0.07327984510964262,0.052457142776483806,-0.04974052485879295,0.03942286679685614,0.13604820377910704,-0.07946879823830916,-0.047128604033526464,-0.10288805443454925,-0.028556302825931863,0.011572917981778197,-0.015609231566698068,-0.1421914644237342
66.33069610595703,1.0488052368164062,-0.15426638397332826,-0.20788066871156247,0.1920086355375085,-0.17937539868855906,-0.516841606357797,0.3020620387944541,-0.025848594894400723,-0.027449167161158344,-0.1364317780532534,-0.12207016640061988,-0.007730123483718175,0.03976928029037369,-0.11016430339238732,-0.02014550659110027,-0.05690566055841861,-0.020190976046063413,0.01680262278577936,-0.11003384241030009,0.009244102509558424,0.022623607156425626,0.006345446821259153,0.17638909063554942,-0.06148334039711539,-0.15064718320797207,0.02312916908297983,-0.03781391151041477,-0.0094680423775145,-0.03420121557872333,-0.00218408854653525,0.10608106749685733,-0.13102385673406308,-0.2766450931352763,-0.07083054692222443,-0.10000825844988846,0.20090482148750327,-0.4031978200133909,0.3341572706311424,0.11117508718895558,-0.45944877811789925,0.31557087346894996,0.3075039840377859,0.380537116833275,0.3573798025061625,-0.7158342125602518,0.29603562562594965,-0.005798023531287874,-0.30841914963371214,0.0640393167477451,-0.11509351268846815,0.052649611476873595,-0.1666921517476037,-0.38029791518456224,-0.2954615599344917,0.4343569920888958,-0.12069497811420794,-0.3514452852419927,-0.17342786383929756,0.004247452615715325,0.08741662438082971,-0.007225415744770626,-0.0533499305480286,0.062416879765272985,-0.11282191457992106,-0.012370538307651838,-0.028166321329171476,0.05680090474507713,-0.03165745832270196,-0.09087626102971375,-0.06213580618379862,0.0234593084256621,0.04219705998882359,-0.05464887130776134,0.07181835745139602,-0.003538034275142057,-0.013332192302207283,0.0641023649443124,-0.11549588288710153,0.030929239057052853,-0.10585903711473615,0.035729892992471285,0.05289792892509674,-0.02299389243997655,0.029031403441796614,-0.012988924749769407,0.03260542891299752,0.1265604345397698,-0.11149764108363823,-0.08943246913719827,0.12724453013021114,-0.11050993706659643,0.07940365924688265,0.005982056578995931,0.01802713143899483,-0.006111329689500594,-0.034543128517501895,0.21796606301988333,-0.0654842095399497,-0.07155844820687557,0.0644822200491477,-0.0726101773750876
71.09480285644531,0.9493942260742188,0.057947237088953,0.2706686226290656,-0.04500907479749437,-0.17588564929812295,0.45197579067126503,-0.38869258079621444,-0.14573662758318484,0.08259576276775162,-0.04960392143380876,-0.21745699444833066,0.08157286114360113,0.028425021178590745,-0.03198582950139081,-0.21180903784017596,0.1854274476408695,0.14148655877293834,-0.01248201357574759,-0.058224698664512166,-0.022434924265027814,0.04026804441838766,0.08401632850832597,0.025017640321747553,0.34854016964174034,-0.08993858920520524,0.28598599699796096,0.2886186304159644,-0.011102058599267856,0.07292663458189924,-0.1024783485954285,-0.300839109689048,0.19018560597010606,0.10180023913105231,0.19195428330102327,0.15063019850540255,-0.1243051309653137,0.02690446048279799,-0.26462935921725206,-0.03194515855396872,-0.2953770228127114,0.016727488691358247,-0.032859660927168466,-0.09294882874754101,0.01568565630397556,0.11275695355384316,0.3244891896995117,-0.1260912871439982,-0.41090811435050345,0.08091359054415914,0.41934945264726586,-0.3764173706372366,0.1826718154625475,-0.1772038377511012,-0.06246638802388236,-0.22075905928402428,-0.06045415251329236,-0.26029002543418917,0.16873508497317513,-0.023484384704492045,0.0471628112077238,0.06006466500828396,0.015852649394195624,0.1631407920775627,0.07566656502344046,-0.15788497892824752,0.0903268024174475,-0.0835537238182577,0.09800549541228064,0.009325695052992338,0.06428270301181635,0.0310792298048434,-0.019858893768932392,0.09437140037982758,-0.12654077389356785,-0.01818095296516421,0.0014270663622784454,0.0060229237199489055,0.03457277817177001,0.06261210829867732,0.0923767776084788,0.08407412392478551,-0.04767153185200933,-0.03462662567062994,0.09924117349247008,-0.10360035616068532,-0.10338466914096803,-0.05022201413079067,-0.015391685077512441,0.07075724571599463,0.01122647293407103,0.028462787979452345,0.0002303568834635673,-0.061899137170994316,-0.026771195876162883,0.05503143458132943,-0.012960793817175423,0.08433298560470741,-0.1802843159052237,-0.032105760426475574,0.029483123002768022,-0.12128369308439375
72.04419708251953,0.9788055419921875,0.020434863916794554,0.059232026640564206,-0.438724670438292,0.08326077819671854,-0.3895348115353995,-0.49567217374293804,0.15293083892148363,0.15439664465899117,0.03754597708787091,0.20552546130938548,0.46461789189105973,-0.1376974752673316,0.12262390843325542,-0.08383824856665288,-0.09554867633107525,-0.06216094175174597,0.000534368649976226,0.0011420595274748598,-0.04805255178005156,-0.13066412077598555,0.008694959866581944,0.05486791798017939,0.03411051933118511,0.2948067155471035,-0.08702637110774468,0.12010236447275724,-0.04001188119332462,0.045375124780056064,0.0881610122958394,-0.13223179108435631,0.0023974217874446375,-0.12268830886844867,0.07274081650931143,-0.04002287811156938,0.2623422486630364,-0.055425314122193335,0.04818052633547972,-0.4571953383262946,0.14030755211370724,0.29909268512048093,0.014797690104857597,-0.16577599105340585,0.10176832360321987,0.02287413934412821,0.5632396820520652,-0.36006991418907397,0.02784109615361062,-0.03549127105486913,-0.17809507413453013,-0.1878816484840599,-0.5534870906142817,0.0968921044598052,-0.8491326599784345,0.005492734878082359,-0.5764259625845602,-0.3837178703665007,-0.09685527828443678,0.006986435065455557,0.04539671151598194,0.03023456463362031,-0.02123077087758063,0.03080565439703227,-0.24186737384406604,0.01966030474601705,-0.27892959258344474,0.009068134154647009,-0.04873177779942871,-0.008767267960224126,-0.10208663617712381,0.03903484631791149,-0.00252110797235711,-0.05391538334565158,-0.0759846873673415,0.017623690845141933,-0.04586333609016179,0.07284850677214445,-0.19640117249040534,0.11449250620045104,0.020738123883425247,-0.15004431449315364,0.07101181936554046,-0.04997603043151402,0.0026762206538449296,0.007379374641386043,0.010136456937562856,-0.06714964683821253,-0.01740348472915954,0.13102354475692082,-0.06516441294439514,0.19713704544591015,-0.0461064981063074,0.0670798370713421,0.1472879689520491,-0.05262438204531411,-0.021558368479195674,0.10208987970113488,0.03699257818899553,-0.06165347890248506,-0.15823595531351395,-0.16216149746071531
73.02300262451172,1.0790939331054688,-0.033579137179645675,-0.0677180472417179,-0.15035721233063823,0.3911633945023985,0.008320739689746079,-0.48964010486633147,-0.05145595221961083,0.053704546037746555,0.04338657927235208,0.1345394847081244,0.06657717003621029,0.09310128563734013,0.0962322319785639,0.01505121434903491,-0.04423955400438909,-0.08189450157554971,0.014278393411481585,-0.11866790716235372,-0.01869101657088018,-0.08084503598191284,-0.15750792390718782,0.1346251373518735,0.315659988829474,0.2387050569799976,0.10845693042978129,-0.023312689596036697,0.09242592982386791,0.05061106712117842,-0.07731151819248858,-0.009201746300783525,0.10127550930691033,0.10791616837272984,0.0271342447969683,0.11173994392577738,-0.12705990281972065,0.1373131292962413,0.11671895201756687,0.22197380121631438,-0.12741355037702984,-0.18825361829304924,0.12300795443930347,0.30568884622050235,-0.021031904081266026,-0.1844934650091452,-0.11872563908531396,-0.20138206656114943,-0.21920172146336106,-0.2923309679852414,-0.06536205266527087,0.0831366608054504,-0.13332766938221033,0.08721671733029007,0.23655249138344966,0.09221643528003234,0.026663044999667655,0.30809793207233827,-0.201452564073792,-0.03392267789020021,-0.12147968298746367,0.02922637196977261,0.09128143656601606,-0.015803891666741697,0.15055518257849482,0.0009338789098975696,0.06949005781732144,0.12092179159720322,-0.016844072401632743,-0.06323937221787333,-0.06135327122190587,0.01659844931406658,-0.05311954617137772,0.005727804055711393,0.007945155842042487,0.040671914473576785,-0.03932074829430891,0.12451219653529529,-0.04248973777196245,-0.04627869683623323,0.09781553251177773,-0.09232199032334255,-0.008498549654392049,0.10579153553836441,-0.14035034119120127,-0.14339970469663207,0.06268463272444716,-0.094503589525173,0.023864671388944738,-0.02129293216140854,0.12829578854268361,0.08002006132873986,0.05196180235617467,-0.02485297396121011,-0.056597963389937805,0.20547473462296173,-0.09788992462454653,0.0014470778289798717,-0.0949151555354757,-0.11783442386765698,-0.08357783006819355,0.14768083154472197
77.80780029296875,0.9487991333007812,-0.02895063313575605,0.06531715557168061,0.13406645207844484,0.3003396897572729,-0.001916254082597172,-0.31620078280785735,-0.11728912890367549,0.1947024108590839,0.004222003098124667,0.02942835207132146,0.5153371417798818,-0.007709906110576661,0.004558633649232202,0.004720569826641777,-0.06448166739213274,0.014292539562952497,0.03877285725265267,-0.024072534281307626,0.023473877657514942,-0.009635976175356152,-0.026933215107174068,-0.23953894857787378,0.15409542356391592,0.017877861926986757,0.09828815997818513,-0.018933768829477733,0.0010803041633581601,-0.08722999876833895,0.06759712980316926,0.04471054030052027,0.060063777736361124,0.17511089995954687,-0.005368679576380821,-0.2172440863235515,-0.1786389991064518,0.17564556481880966,0.06122182858958097,0.1636243914985218,0.21934757130808022,-0.0151013141280478,-0.2102223449572433,0.8224576789714443,0.17821482118009055,-0.33719895848734116,-0.16721535152240427,-0.05514020342833571,-0.536366375295122,0.4672440837270565,-0.1516720687228828,-0.1493619682724025,-0.2788543800593327,0.25732349582392344,0.13003702485356808,-0.25175195591285815,-0.3144200214619685,0.46892657668067045,0.08821962626183692,-0.015536652044056645,-0.0052613218562578305,0.025845643214936837,-0.015907559973477637,-0.011434915562244637,0.31102184479873385,0.029329048884932624,0.021237049878055136,-0.07835779153251406,-0.09603502923992763,0.06076644973793363,0.0023746179084736716,-0.03692469362987627,-0.01161529417761898,0.054073328201018386,0.03740294810935545,-0.021820117776702036,-0.027986794340821495,0.061268196207915265,-0.05238775451309141,0.06180692731096112,-0.03038869576741392,0.004743463928505101,-0.07490434254153806,0.058721614665809545,-0.04973644400856809,-0.07566599428863596,-0.02711365551165778,0.06421039312091623,-0.03993198320302164,0.07758086748006236,0.09893976165051739,0.07466578903582326,-0.029681943609039092,-0.11760042784837478,0.024479091114253025,0.01619255412440971,-0.01810493889152668,0.07311253300453173,-0.058950776547650616,0.14048078845706094,0.025097097877035124,-0.1854338288243523
78.75659942626953,0.9788970947265625,-0.18698145424368415,-0.07099506918510981,1.1900361757647069,0.256330388580953,-0.64249782808836,-0.04868645698752677,0.18404325326012802,-0.07420911974706841,-0.34850837218954145,0.10943052663243716,0.010674220085913075,0.07013294496840719,-0.04731733734850924,0.1459299345541374,0.0670645647809684,-0.04781498350548301,-0.1984029561256038,0.15959404901644408,-0.007049115388145552,-0.07652867744253414,0.15463608992949818,-0.15232135753710457,0.14331962722016273,-0.05344921668953801,0.14497134735257117,0.21440730758320722,0.044655342873542,0.03670961655136228,-0.004913094581483008,0.061956800929313244,0.037985331312998714,0.05755276913970228,-0.061138399267122695,-0.3185114497620573,0.11403428952515055,0.14269099242496036,0.07646710155823265,0.010823437706174971,0.480602970862629,0.2993173662467116,0.17558507584682626,-0.3026608224022371,-0.32888195341980064,-0.0712002772286599,0.13793898038557484,-0.7495307397819264,-0.0898314959409315,0.6718811244668675,-0.35642848723358656,0.11311856908151535,-0.12630765278628692,-0.00112638722704703,-0.11757397188533111,0.299217518759193,-0.24811894384983574,-0.04545685649762776,0.21726392545384876,0.0739535790761581,0.02925094178028765,0.059678615935141816,0.11284405468383385,-0.07817014200914792,-0.019240541086535723,-0.06273675441130323,-0.20244835353944624,0.13743454194040194,0.08054399842114125,0.136586576350269,0.09447849645664746,-0.08668373964631332,0.004770644034435983,0.041704255253175414,-0.004690751025347769,0.015168803073535877,0.019268919357892,-0.03881442417543473,-0.010416189138600589,-0.1535276253537253,-0.18843640306851822,-0.036922004585481796,-0.031618376942357994,0.1401243651498608,-0.02569018379613867,0.05954265511909808,0.0027246836047521757,-0.0062270647336153395,-0.03718225283921771,-0.12270647901184523,-0.020194213954114738,0.06434876882155821,0.04793717067891042,0.08425840112147487,-0.06500879617057222,-0.012718091232418035,-0.021768853869840503,-0.024282230382775452,0.0432839734830868,0.09257666934582258,-0.1811717545703373,0.005557395136611465
79.7354965209961,1.0587997436523438,-0.14057892208735875,0.08102432570220575,0.07089658039760188,-0.1196682200949305,0.004436958480022948,-0.10608086385696261,-0.08960055471810208,-0.08232136330816704,0.09584055948500017,-0.16203112595846517,0.04683865262590747,0.09227120987646478,-0.08599944256390203,0.10044622714162736,0.013894033948498623,-0.0011119034023809099,-0.05753044210303615,-0.03360486180230188,0.0023620957369750698,-0.09455256719702973,-0.029057011041366116,-0.22286396150346252,0.15299809328216246,-0.014164409945846052,0.07304343635146482,0.05420873744174253,-0.05701723502688726,-0.03339543809467329,-0.04761556246253483,0.12312672305682726,0.2351636488382311,-0.027717235414705853,0.21954450931221844,-0.1325033570447694,-0.2790102710160744,-0.25163683035768303,-0.02188234012212615,-0.4475504589546523,-0.3031526877963166,0.1776490380339656,0.13172982961686786,-0.1467056359199743,0.19899468831430278,0.21823112426010852,0.1276587654561989,-0.2859592012430124,-0.001074632781902951,-0.46967999425120904,-0.4764313603133744,-0.04692405522383464,-0.0699380380737123,0.3666943758843516,-0.14283626442966307,-0.15432700096720414,0.20015990531426633,0.17210242603244955,0.07898925108938486,0.008254275903603472,0.12323170781441438,-0.04352726262893641,0.016581382365315783,0.07286083864263261,-0.1409443706812799,-0.03245133998064399,-0.13553570346515054,0.08902215421166158,0.05421403325898255,0.035212579475798804,-0.013575777492099947,-0.0029800899140496467,0.008521933807118874,0.05951768844970065,-0.09257269378418341,0.002554744374150458,0.03013890585967024,-0.09035732749919426,-0.12834703282732196,-0.020043683794689685,0.005370194827781227,0.02987602039993012,0.11388921820300531,0.04567228791765597,-0.010600828657522529,0.020246910421333628,-0.050317022251996156,-0.02918171895284418,0.014074785860720926,0.13472951823792204,-0.06351903500176366,-0.051134755163041085,-0.06259625498631646,-0.046113780877350664,-0.050701272969380665,-0.22126329575371012,0.05718391530123,0.033415272040368434,0.08350860812631208,0.09596421723711594,0.38290686268150825,-0.1473537403192208
84.62000274658203,0.948699951171875,0.18064653122688507,0.14440683998871123,-0.31168234079510887,-0.15582837383157683,-0.10149035065433451,0.045057020927265844,0.08585223576808432,0.1070754027350664,0.0286260962856051,-0.12113265730341649,0.08964413531691814,0.1404425244793176,0.08742032039644641,-0.008077293145474264,0.1876865839585612,-0.04846556894055927,-0.01250040711469304,0.01828792924581236,0.03588248197907326,0.08259243424970342,0.07631867257342627,-0.15456270283178405,-0.17189309258328977,-0.010177720772106269,0.142178581467258,-0.07600201279138971,0.032925716665834125,-0.04974951284913518,0.19909309445720386,-0.1124848299272889,-0.021978740841189566,0.004654721039078883,0.16014574668706888,0.05431553845625642,-0.08246493898834528,0.016670346946536782,0.2633267336500286,0.27968594116183154,0.9841923687439836,0.27275537742502154,-0.043446510475834185,0.06520032339055147,0.287922730772685,-0.46763018281181373,-0.10975521843991906,1.1187251605775128,-0.23683863716130152,0.061487557474366544,-0.17584929115253803,0.20546645619893678,0.35561953696629295,0.011208789795626381,0.09083847015035484,0.0388747560824224,0.15251106387481328,0.07365530133231231,-0.38133869478424776,-0.12076154292890921,-0.1531102809520646,0.08434058469849338,0.1672555175822047,0.3003437061099759,-0.02997696014430968,0.02580793391553725,-0.039991156446412046,-0.035216135228850726,-0.006582278371618423,-0.008559134987101813,0.05540441828868553,0.03473848377606458,-0.0033753857652058625,0.005580486275360582,-0.021251354017364193,-0.02243914196598503,-0.1676943807614127,0.1386367139245964,-0.03008983447792848,0.05774049755363225,0.1387692570019177,0.05738068587076035,0.017921779421846896,-0.06272668944482052,0.11220294848863323,-0.04164072663977252,0.03948018587854414,0.1186325097289026,-0.1708965372519835,0.14320661671186663,-0.15897271428983964,-0.06661288444213154,0.04932017570738106,-0.042987630052904964,0.06580970972782274,0.14736920324669606,-0.1452307320164825,0.0825434135906393,0.07267327107090153,0.03419731162979352,0.042565545003390014,0.14374340645578026
85.5687026977539,0.9691009521484375,0.15306098627128722,-0.045142368063581365,0.11884780005589943,-0.5383483306745421,0.36063715941762814,-0.1015898958900085,-0.01910594562306377,0.1788443667275333,-0.12627207617960876,-0.01391811486346714,0.18505250099948234,-0.0863311138521291,-0.09524282929125785,-0.17336192136856776,-0.041869141391143776,-0.1144861867515796,-0.011854530929136416,0.08061727880230765,0.027190912345057973,-0.06490128548644827,-0.04906722838365455,-0.07175513953648383,-0.27567964424168895,-0.06291513167960675,-0.21359438883346948,0.17330641950101103,-0.17142647098355795,-0.15301240189881304,0.0444753217429883,-0.1818273145057399,-0.01473863276481703,0.05567034684620551,0.07013377300557444,-0.11864002577587242,-0.1579049810961878,0.2966863034654233,-0.4509029708584335,0.4404738947566472,-0.2252155069298636,0.2349142896593184,-0.14323389182634033,-0.13589087721467397,0.23376975327262692,-0.650914377185064,-0.41493260043159524,0.6318137083822633,0.7030566180125384,0.3278724736446451,0.6599701664649341,-0.30369255156732455,0.447013064147894,0.0017117417860470496,0.17260367516013175,-0.009780163176176446,0.20855253031833917,0.20141339781882803,0.21152656200267406,-0.0038773263042752785,-0.014586656197494366,-0.01627828431290891,-0.001413216834099027,0.04030267973391331,0.01264127890841343,0.11309354134063035,-0.10909405427292072,-0.05391658901207026,0.020597003522663585,-0.02130008348459544,-0.030887338504103946,-0.006894511755712915,-0.011202068824274256,0.01684829980876908,-0.005416512716568449,-0.12441491612365703,-0.025324539875681323,0.11662925093647933,-0.02696706012961716,0.13736014147609638,-0.26940102379543374,-0.07702936670807303,0.02492504703598651,-0.10494305726053961,-0.04636563367603213,-0.06996005488737238,0.05523702638542529,0.0016118746943913145,0.008410473111851537,0.11631251494038954,-0.004038948514454818,-0.137862293051719,0.15482372204415773,-0.019985809007731625,0.027117408446745178,-0.027566625958034732,0.0324024003281618,-0.04780631593995821,0.08013152050827933,-0.14902389771682215,0.14684614470200613,-0.16811333053369812
86.53780364990234,1.028594970703125,-0.16153119818794648,-0.07943401319443312,-0.005351880784754025,0.003714766839534714,0.20669466855289723,0.11771476314031776,0.21878549081857063,0.0269952766643295,-0.21113010691431688,-0.12318654832645208,-0.16845025988480222,0.04965927349006868,0.21815957555508922,-0.24191577802591216,0.13426820542211565,-0.025564142134554865,0.08469112957019,-0.07997852424049517,-0.12076974540327882,0.011097642870452423,-0.0693487097246306,-0.01593047734027113,0.046679150830247755,0.2316389448920147,0.03538381732440973,0.006068673368119874,0.04235697991115475,-0.030185917703775423,0.0013576076660258255,-0.08550721964650895,-0.04930314480800554,0.054880852804116156,0.14475940093615408,0.05605481469963301,-0.08391323814699882,-0.0895299744545206,0.16283874523347824,0.06117317455624613,0.2942684829870556,-0.17146093877658564,-0.10994464160315488,0.06329971130736849,-0.05184095928882687,-0.0024877635294120164,0.21906933395587241,-0.1561225576803931,-0.08768034742370694,0.5163251884923586,0.22734790906004487,-0.1821895717204838,0.16420763976677138,0.022798036391527707,-0.1086853378303696,0.383882867506475,-0.3995540274531705,0.019383652682071213,-0.34093249175456797,0.022859478459309752,0.01036347489217512,0.09483275926312378,-0.0975794007853659,-0.16992695883763304,-0.07621924039232517,0.24540406333820813,-0.11403307878852469,0.08093588455977865,0.051541998737923526,-0.05563525704389296,-0.08083319452397593,0.05743616634661513,0.05132006421110053,-0.006008979065920952,-0.005665555943224416,0.07621671612282052,-0.10438661296142004,-0.014596896970961372,0.00821344942790269,-0.09538779387284577,0.14227354152011215,0.08135437548643801,-0.0698611981599559,-0.034437407302236475,0.011449594264019963,0.019360621415860285,0.07280897128841578,-0.026148364071376773,-0.009994475718631917,-0.08902649481789718,0.1891990019035785,0.0410882062565112,0.0184777317200383,0.024849102497211194,-0.007079763257419116,-0.057348893639873645,-0.13061695516519317,0.17241596728982897,-0.30144099588100953,0.42578193367242934,0.158083140162813,0.07048937765361263
91.35279846191406,0.9484024047851562,-0.07485739357270449,-0.1849053460606586,-0.0934288224820409,-0.07754706846352893,0.08719510278372464,-0.2408827181473512,-0.27566582729214784,-0.35770176767662004,0.3570367805031747,-0.21172428181088174,0.202886152176984,0.015870763184419556,0.20468483946783161,0.0025648267408352266,-0.09662297447020156,-0.04123502400794095,-0.013476110401462203,0.07762572205125544,-0.03988495938888566,0.00881147679021669,0.17888593708751027,-0.1288440467454382,-0.3104224848705901,0.12946790715681128,0.19846044891498646,0.13775874036796468,0.11675261547791102,-0.002840887861075503,0.18244956898011694,0.048157635501135096,-0.14616886612912475,0.02475835301259499,0.09047281552573302,0.21297160704193466,-0.04976085163325726,0.050641843865209105,0.37209397045253834,0.15887205474257074,-0.13817323875399015,-0.1420734228929365,-0.10341257059159543,-0.16946695624579805,0.15188945924140004,-0.6849687266184595,0.08979209426205687,0.019893814174670718,0.11252980246098009,0.2747498733203397,-0.5218980496323895,-0.16146256965982309,0.7206654435887296,-0.17041576282907506,0.07637006452657905,0.0356290940283218,0.17373716200546563,0.3399007946874946,-0.0919716101875507,-0.0074438751786074855,0.03658004870719592,0.0238926829671478,0.04336862699579121,0.02833116102377515,0.18394860468943003,-0.1814488105314394,0.00246412743533464,0.06837287134540808,0.07877019051489252,-0.01928059247786383,-0.026621828433840186,0.05042053532551638,-0.0772481862932312,0.030322061456436268,-0.045080093560774234,-0.0659073710738781,0.10777660063997642,0.06266746491894735,-0.04589898157963469,0.06545505484558028,0.1222967331449392,-0.04203452373804969,-0.11690216296818934,0.019224176272050336,0.08611887348212646,-0.03499199578092426,-0.05644441464038218,-0.06100112645240112,-0.0316956162179971,-0.13188616256800234,0.054432486255334554,-0.02358700350740505,0.07839614072154405,0.01977352379306401,-0.05423918247118735,-0.010039835703390025,-0.10960562754697112,0.0689692440021239,0.04593882600649681,0.08006401254948053,-0.1254350394471034,-0.01843660931493689
92.30120086669922,0.9589004516601562,0.12249193593330715,-0.25979584455848564,0.11560428468582522,-0.25948985662045637,-0.1886627797780477,-0.48714981341332503,-0.03288658781761679,0.21813907820800774,0.10122420363025654,0.21887146801881485,-0.05976009500177524,-0.05201596932520423,-0.055204467832044496,0.1354381961663699,0.1189348571123933,-0.08669003100078404,-0.10824480226820732,0.2426436685836879,-0.2299732612326455,0.06825093750448259,-0.32692837846146583,-0.16069032231402586,-0.02106451077279863,0.022783697680948862,0.057685780627601616,0.11183210757740047,0.1346332664265007,0.14484590472378078,0.03638505619582007,0.04189283075651644,0.10339260171044305,-0.18246186404511425,-0.05796390956255922,-0.1964696533982326,0.02640402438051577,-0.16710621234996512,0.25870854933697746,4.293398008131666e-05,-0.6111743331831468,0.5787287748103462,0.151775171195181,-0.02764666646037438,-0.32584404276931145,-0.18424133373428742,-0.2972371256125481,0.2901229064234544,0.36305686157444583,0.3876514592959857,-0.2780933447900384,0.3865064111348794,0.0927128796393026,-0.04009130061774594,0.09890124737126563,-0.12622848568306316,0.2806009719127911,0.06515584980576199,0.03458169730172722,-0.01233294631243588,0.0661728346462433,-0.038679657732315256,-0.09140305254762263,0.0001250787509209239,-0.09150419802665241,-0.008401712852543156,0.022749870586029702,0.028309810928725906,-0.06026160521381049,0.05343953238698114,-0.06402445124013831,0.07555820253656256,-0.00606949964770544,-0.06357027238481741,0.017136798291208993,0.1548013012044602,-0.20466105966506268,0.042984744187403806,0.03278195403692896,0.1006882238125284,-0.01873437349757826,-0.051930020757012835,0.10033756308575678,0.010627801344501229,-0.026767790705790905,-0.15206775621026636,0.022312423396312352,0.036651266910554696,-0.007021855251417361,-0.02475273808088091,-0.05480878937356939,0.009480330195910207,0.05153137561008665,-0.23418733753838833,0.0746796833477454,-0.006031114239834152,0.01309081613684866,-0.07116767865292593,0.10663290431419813,0.14026712361677537,-0.23199703543844385,0.016889176330333877
93.26010131835938,1.028900146484375,0.15352286937040305,-0.002373962868149988,0.1579735509934487,-0.038095431033144195,0.28205683599084824,-0.2629621745797244,0.3059523804509904,-0.07270615839250831,0.10223058291295573,0.19178007868015726,-0.014173585880087578,-0.13797219399282665,0.0910646256858913,0.015852056455711083,-0.12556082507422078,-0.01523801005215182,0.007391450852265294,-0.12810809924112967,-0.1652116025610809,0.2723183255754947,0.03564846181909458,0.07737903516928168,-0.15439084807401834,0.05354969916552571,-0.11058416928447264,0.08201469154101639,0.0008199556273753138,0.05149337600293593,0.21625793336876653,-0.04108651436074029,-0.05717662406526907,-0.018172711741306122,-0.09358949612383945,-0.17698204116854413,-0.30839781002789063,0.2234575909270408,0.3151446625315609,-0.19217640449838058,0.23664448012286088,-0.10835203875106125,0.2642437631454552,0.3559322367911827,-0.2900021420819041,-0.012803254184375518,-0.43293238736524614,0.18721784802060398,-0.94140695608279,0.6992309778969766,0.1973024592332726,-0.17824908169728318,-0.6680781628525024,-0.26725235412751214,0.3284183999755914,0.11037201695583367,-0.2018002770649317,0.007124231719923151,0.16071033226437426,0.12022840478951498,-0.1873980556894995,0.09480081515469846,-0.1327720052779952,0.2314472429432577,-0.41764849049842245,-0.02563088043222185,0.15608125737537723,-0.10194994136452142,-0.12680830751212827,0.014938831349833967,-0.03117339578490514,0.014077637608871008,0.03796545119978387,-0.02437742045115631,-0.0785004054769695,0.09605576935323942,0.022478422805327927,0.10731212304843199,-0.05264033113236957,0.02829377527290303,-0.09352742764997722,-0.014424459516207813,-0.1814263090955709,0.015545434232227363,-0.12081290591134429,-0.0714016434291273,0.03551718164109439,0.03801082217297546,-0.09984355825346605,0.05104354517346902,-0.07953378264422738,0.09323889977055441,-0.0010813462490230409,0.0034849971647622664,-0.07248515709085042,0.046579911030693436,-0.018311165225539276,0.004984381050395033,-0.08924284215102125,0.10601861095367238,0.08167971639714336,0.20416837810770133
97.95500183105469,0.9782943725585938,0.10695300004753533,-0.12653264713443313,-0.11449341372153415,0.07808246712473198,0.5507470222339956,-0.01005215913317606,0.014476491474520941,-0.095777285444023,-0.11097565581748002,-0.07221511838891995,0.02990371941518665,0.1474170780090338,0.04678677803787227,-0.15374035759558657,0.05625906665581969,-0.05551991302916927,0.05044465669581021,-0.556941300739084,0.018309159099891094,0.31582346209167056,-0.22099744625448647,-0.3169669133559209,0.0833076582616565,0.07269500310088957,0.15549807122171463,0.021227687621253488,0.0806522045899297,-0.2953412805209999,0.03348528450294368,0.1406797947676528,0.04184638179958381,0.2107499194147303,0.4115616578567808,-0.14961542522016888,0.04934773765944288,0.10820638111438932,-0.10980121894955638,-0.07993984191664548,0.2692062769948322,-0.0920738526323589,-0.21917407379904327,0.27208004374433026,0.16081057294164203,-0.39061509001208317,0.09740073489066575,-0.29246487678616295,-1.0357938238975781,0.8730638656160702,0.7309163385141818,-0.057279361614065355,-0.030463990500237,0.10734066759788705,-0.1427897328993322,0.5050551835701698,-0.0447547244140937,0.4280446397436915,0.26156897098713827,-0.16035033734138404,0.024500826660305463,-0.04008472135685445,-0.021929171824924095,0.09632612522121389,0.24893325719045958,0.027742175404110447,-0.0173226084777642,0.11141009151973427,0.07481707094017889,-0.007850979984141433,-0.01407077297322325,-0.04930366383961122,0.10541088961599211,0.036834466486071596,0.04055291222236278,-0.13597316213416322,0.04604685336993204,-0.015608624561689467,0.09100275819465115,-0.03388590967892642,-0.10254989522429733,0.15236405431648295,-0.006828177694571772,-0.18128232564460417,0.023527329653074025,-0.03160197203545625,0.033904516178871934,0.04579961647216801,-0.025185473605104203,-0.09071684482222948,0.09517887198229821,0.007635455831491458,0.06666659151244426,-0.005120186152691325,0.04591439866123015,0.021159231991607408,0.041359384754431454,-0.07295732452813404,-0.01900661731633969,-0.014295711169682496,-0.12537068977698568,0.015754724232727682
98.93329620361328,0.9792022705078125,0.02454299547759252,0.05410922633014956,-0.20158861336772577,-0.001496089189457137,0.26771633750216023,-0.1121055117931378,-0.34185639720196115,-0.06094278520865334,-0.229985083727962,0.8580925473270032,-0.03943055977085655,-0.15233169422225293,0.23014991789893777,-0.045977337450075,0.1427481149240732,-0.045363811442677975,0.007791756872106863,0.0075067061990450185,0.0032263887898458347,-0.024107901318176122,0.10876013664906521,-0.08201484827698957,-0.10858844040636528,-0.06658896158536393,0.013766508451250098,0.010548602438813726,-0.0010191689738558584,0.12318236695220612,0.003147909677837679,0.05661223451255743,0.020743543429816134,-0.02020451046634458,-0.0831379996722827,-0.08639673036742253,0.23364121212470912,0.3361413033719169,0.20947433312234298,-0.0841192997491161,0.03385472973923394,-0.06987481898707473,0.2764111613367566,0.09883979604021778,0.08322988874976159,0.202814284595539,0.4993973900652906,-0.37162515520671147,-0.12026612095400545,-0.23251126223656265,-0.49608372196704875,0.6004928800095579,0.12376053065918305,0.2555343126326188,0.36947960953271597,0.1562220944542757,-0.15935294947846357,-0.0197734673199642,0.03605528788538541,-0.14710284680385632,0.10813706258347407,0.056590790432282004,-0.02506878194169968,-0.01879969652222767,0.1992633296485829,-0.17744765176488803,0.24213127027800663,-0.014513059142553237,0.1613501178534588,-0.055799753025942464,-0.04166772022936143,-0.10704720031782705,0.0696513980562866,-0.029762990726061228,0.07287303735890688,-0.022336065855458873,0.021423585635809372,-0.023903344900379528,-0.05201792655360063,0.07515007423331391,-0.1423929483011528,0.033224854469645584,-0.0008175163567972436,-0.06996158863535455,-0.04961690789835724,0.07549946481233012,0.03720060544322915,-0.0007707204143375078,-0.04368168861907415,0.021188707911368274,-0.17170623291964665,0.08087334583603056,0.1457256376517494,-0.03291754142961413,-0.039903373804111714,0.07585429527575224,-6.857757255363862e-06,-0.15255066576584,0.15383614360580633,0.03803102129512351,0.16868765125244709,-0.3089440864032993
99.9124984741211,1.0490036010742188,-0.30302025697073254,-0.061135437303081616,0.07544867160043602,-0.05826521258392142,0.3308180558861652,-0.5099859293677392,0.058003486083863756,-0.005849504415012882,-0.19881811255964266,0.31436277448217115,-0.2846356632403542,0.11447452455158694,0.017453811092287146,0.05260593650262644,-0.02176237881296666,-0.10350229330424786,-0.2204591626977051,-0.11606010346183382,-0.11374394937849625,0.28923858405267866,0.03620129674435366,0.18780500864893648,0.006914911676012552,-0.0690619720452788,0.09124568865995217,-0.0228315655677445,0.00882810443926585,-0.03954905331624246,0.03454806328859067,-0.0730870927607519,-0.13929709079866093,0.08642837559816424,0.1681159319831708,0.09591221027226726,0.015430554174070422,0.17261748173097086,0.15559037229455971,-0.473051361835034,-0.2027476630937107,-0.17436470888444927,0.20708519528167807,-0.014613887596263586,-0.10983516954655109,-0.16428286041515142,-0.3724738377472682,0.4184217909174463,-0.054988383026578644,0.08721081516293552,0.07139006053933471,0.5797389118110581,-0.2124924888391833,-0.17487230455266417,0.23433527852932032,-0.04053968481351287,0.3709116574887169,0.09857007327361131,-0.5235417049549567,-0.026098319710027136,-0.035054099872621466,0.09801478642865731,-0.0074902815369340325,0.17277938425931483,-0.059082629667166285,0.0459380962983474,0.14218338884535822,-0.1793647580550717,-0.03757319971542153,-0.03585974269382106,-0.12490994167886996,-0.0062209236837866035,-0.03307162113509534,-0.2023646509200129,0.06480428570925502,0.06798240039827051,-0.06578575367116359,0.08921413033292774,0.00017826802989244538,0.09918457579593422,-0.16728783807099962,0.11405899943655935,0.11062677147060977,0.05256780749583852,0.006179892263197859,-0.24924535179985555,-0.0650544574770827,0.000791552321445559,-0.07808812457763628,0.11095576192971339,0.046947289326406315,-0.09081516281225321,0.009698611692998984,0.048710125079349374,-0.1998892297512552,0.008353292459690992,-0.034358692097352705,0.05249380027504828,0.006537661061547749,0.12136820081756676,0.05402102261816023,0.2389324196792355
104.72730255126953,0.988800048828125,-0.03935114112154367,0.07079510479723676,-0.2399917754785817,0.5333597138135674,-0.028733542478814864,-0.30938735428836894,-0.09989467916999885,-0.1734521597989123,0.2927569741655601,-0.10090888869010542,0.05770594190188245,0.13702993981517297,-0.03419438159598767,0.04034169774891462,-0.06742941082973981,0.27465591710701964,0.06377524400756056,0.042099661082223065,-0.0008260367767289926,-0.022488444496959217,-0.06621574768064485,0.11531434962293276,-0.034052206699959224,-0.004319417380985416,-0.031901039411118534,-0.047905277376455516,-0.011480255910960524,-0.04343267132909225,-0.10266436415699356,-0.01861665024299613,-0.028418664567272427,-0.010546645934107651,-0.14373683543999083,0.3571958662737168,0.14806634159476662,-0.13029172848524997,0.35898418888360173,-0.05770108045752639,0.12979870980056366,-0.1761457534184288,-0.11306677722826448,0.09062459467781467,0.14471415700912638,-0.20818620206769373,0.9651403295014287,-0.22420219323171423,0.28198012625115465,0.04768957730648142,0.234848693917026,-0.20292205039814912,-0.1052514537875299,0.05324853900459895,-0.0793809797879593,0.14517480180233394,0.1591829807265237,0.1838614831798879,-0.05583261104956916,-0.0789851560295759,-0.006512584430881395,-0.04794752973803675,-0.00850763781075473,-0.02036892165674575,-0.21720481955877108,-0.059575910552155394,0.19258588666967802,0.1762337313622679,-0.054530326962057105,-0.019029211376876343,-0.01946156167370098,0.1238586779537833,-0.010472568465301273,0.05399285245097235,0.02665507489205447,-0.030181073457590808,-0.015610610229212825,-0.09675096500673976,0.03638019706063571,0.024082763263258828,0.04750500361377099,0.038995150973284556,-0.0016490812271946517,0.041308361560724746,-0.031060684791455295,-0.045927938175682526,-0.028190934772182527,-0.06039469995018231,0.09789614239847037,-0.1210904593472372,-0.12121545790635214,0.020087391124447747,0.133829734359938,0.023687535632858085,-0.001317846302590246,-0.05293738039844045,-0.16431076062761685,-0.41875758806555513,-0.2922191638511985,-0.04404370983030233,-0.10143922261433756,0.11444903236457793
105.71610260009766,1.018798828125,-0.028924430743174065,-0.03950821366706216,-0.13069081483439215,0.5208324207570425,0.05518293254945209,-0.3512069464906355,-0.1436858368222636,0.027122248603464228,0.14146076626979484,-0.1389208778511814,-0.0967236370715655,-0.003969111863932342,-0.03570594783918385,0.2597712250992043,-0.03949882069734391,0.03994434517646911,-0.07575263477592625,-0.11380384478980686,0.1272927503765085,-0.2095093422922895,0.21173177976885524,0.0033120968271002187,0.10832782796150706,0.027533014701101557,-0.17789764347617804,0.07285540994301161,0.06420410772205568,0.05444747316300022,-0.012262370737385937,-0.21225412021178447,0.24475222353704953,-0.10941026342272095,-0.16617317096581485,-0.08371519384899846,0.10159402780263682,-0.1316963863598039,-0.24569393426430122,-0.13310780323840768,-0.15571115970154173,0.22865594095550024,0.17290254505431984,-0.35049874208714654,0.09821482758992621,-0.325706152593636,0.06219136343815061,0.1746251866511779,-0.07299219592533143,0.041567452596182525,0.12195292000138427,0.43756884699774,0.22967268279041458,0.048848947854117204,0.2509739550021711,-0.1574258740968293,0.7991384849783804,0.28105166408022275,-0.06911205498026392,-0.11716556048998696,-0.35695531834811867,0.008560558090191194,-0.011818410061083931,-0.07050602995097799,-0.13413889241920654,-0.018221196332165745,-0.04728039027022959,0.04101681361428026,0.02269902444599657,0.020201193088395266,-0.16120875221159642,0.0025328375910894773,0.08370512268590026,0.031928483819942406,-0.02359454691916562,-0.12436077797702685,0.009958632453533504,-0.0370974447795748,-0.027997493630592153,0.06966061355704842,-0.07414353952903828,0.010105945872176161,0.07253585276006702,-0.003931719894599484,0.07864339703583874,-0.021534484403913746,0.18908095798973684,0.08701145560178802,0.04790852616342829,-0.07469768634352553,0.06097656822930725,0.08198994013956067,0.049172819252134965,-0.02150055567233505,0.0604837056497375,0.03527211433199649,-0.090665467596081,-2.186744879170417e-05,0.033414517853541804,0.011653949175090484,0.14087343503901328,0.033432490520001884
106.73490142822266,1.05889892578125,0.1596870990922692,-0.05297919132891319,-0.10134503209087997,0.3231779382223654,-0.5405086480067033,-0.5497349289682695,0.12717589101190874,-0.14660029621570866,0.22813262806013396,0.10239887045569815,0.15656040505901994,-0.05089502187762807,-0.30239837670968567,-0.11194321853081515,0.00620995918331977,0.04222718843062102,0.05848093619613262,0.1475183761048747,0.060681006639367964,-0.11927418239310471,-0.1715186646797169,-0.1166241350828831,0.11427948508834154,-0.14869074997854245,0.08343191992545748,-0.11198694782228139,-0.12047905433366116,0.04617878612827172,0.04514179662937163,-0.016470633194961386,-0.0705199426863352,0.01618090243781832,-0.06548969027354924,-0.3228103429343378,0.1245340119301125,-0.09478241529045767,-0.06953365446573934,-0.02694738131497632,-0.1554793099347866,0.24642430402782378,-0.31775866136165737,0.27217637854584653,-0.12586181960303244,0.13441716951615337,0.7407386432615461,0.258990561720312,-0.2858465190730102,0.34050695272843506,-0.09908004534166484,0.3556524288892378,0.1740774920502857,-0.027821863599635094,0.16750596368518994,0.17253330482510698,0.1910707435360035,0.3291599608226729,-0.2323004302528396,-0.0919722379358715,-0.05411370820717801,0.03106485382274828,0.019891060181749277,-0.07382508432942377,0.2101092890959144,0.14260667481168388,-0.3225184015972994,-0.017958464525795484,-0.008217054682753452,-0.060315112681535235,-0.0527822629881172,0.04749745926550159,-0.02962845786113076,-0.04798618529117908,0.002667255736237103,0.09359953510644851,-0.004095303079145327,-0.035472232626748465,-0.09360788688321459,0.006116324686707392,0.12151564027170597,0.014302498632722482,-0.0793534760466701,-0.01606121988802879,-0.04249610545738379,0.06623281833388744,-0.13246680196057226,-0.06337640972760303,-0.0880446142953023,-0.0178000518149952,-0.01438017400645855,-0.04882354562115049,-0.07459196286057784,-0.0052189066175403875,0.004194756163534798,-0.02041658280241143,0.03505417835589089,0.06314235525772369,-0.030415062452508856,-0.09056942307433566,0.041897512587622504,0.027222574614254563
111.32969665527344,0.9488067626953125,0.04032111904940594,0.16541834280244552,0.32894275777538623,0.059039853108349236,0.2690413127508965,-0.12890322589436576,0.3232472260268132,0.3350287742912994,0.3159065316489247,-0.08506159844203948,-0.05325388298682031,0.05395861272190611,0.03171119667204408,0.03911201729956017,-0.08534617776917458,0.023155656158985127,-0.11963396854733484,-0.03916055244657607,-0.0009613513716367622,0.07058907785796315,0.019690778016404974,0.4005693982656597,0.22302232001414252,0.06047723104429205,0.07520206676007266,0.047554607334804,-0.05324095801694242,0.0038428007714343755,0.050908617982659964,-0.002851297670255983,-0.0504558852620406,0.11065952795209771,-0.035093789732489875,0.17569757568669753,0.03510604031427335,-0.47779017510929095,0.03925360100582921,0.23130729896462282,0.14985408025551997,-0.1433881468758974,0.05461968372935142,0.49373136593340433,0.4008123824981255,0.6608225232730096,0.18335867322596042,0.5928325211392574,-0.09920273816015863,-0.2524736707969524,0.5243280986095938,-0.0006257258095044849,0.18601642582673944,-0.031853900075305336,-0.11007281119280965,-0.29567542472716585,0.0644242190643638,0.29117312323000205,0.1740938717448095,0.017214344995486346,-0.012097614447572779,-0.06417770898218415,0.04514979525982701,-0.09185495760508104,-0.05845419833331067,-0.018248042580801663,-0.08600217435696854,-0.016197085333230603,0.00397220370890047,-0.05738440021237253,0.0325379642345379,-0.03674338030747573,0.0659714787055955,-0.05950803633536243,0.03035513120940686,0.06036774099912912,0.06362256873103683,-0.28968590575002623,-0.034637691918864344,-0.00562046594200075,-0.10944524617386464,-0.0051835862487749455,-0.09018730099433249,0.008510254224140808,0.16201400739373115,-0.15888116203994898,0.023738630068703623,0.04848058763280919,0.02138923171243423,0.02532207814552629,0.02506608399335236,-0.026276478072431192,0.01204642276140336,-0.059789940280166064,-0.07161042666014904,0.03204333182075313,0.09000113221471542,0.05574384164011543,0.007755279397406008,-0.04484183159586237,-0.11483333586582889,0.003972279066909751
112.27850341796875,0.9791946411132812,-0.15686630143484098,0.13766273054632555,0.14512707599127989,-0.10838661253429654,-0.06379864033940497,-0.0016706919532882974,0.048409124682019564,-0.10132143200326471,-0.21205905315471602,0.022684162750834944,-0.40284984246432193,0.12858463638860446,0.17816018033396994,0.05893009232567625,-0.050074150954761774,0.036299788565024485,-0.09574289311571972,0.040498901992318155,-0.06486568987373263,0.1958371780457661,-0.0804242988859829,-0.3981743304744304,0.036524780113798755,-0.05370991995247299,-0.07435670969828771,-0.04262144007596791,-0.0858722195058639,0.10929338828010328,-0.11231828732413195,0.09962719071004242,-0.3777817863876239,0.019369012080234865,-0.04635651395725951,0.11656016635743625,-0.041422884590625,-0.018748800102267524,0.0605748306037187,-0.36380694241938266,0.36366170269910447,0.620603731408708,-0.21849375257088258,-0.1768541602874423,0.09865170654537957,0.11638428092287793,-0.10440638948552443,0.4611148052941737,-0.03991101942448155,-0.3379104241846417,-0.9231115081868867,0.5211410039393229,0.493460350397128,-0.11546045729045668,-0.15758473711231363,0.3976219812924003,0.18560018130580946,-0.08627448256069935,-0.037086634669078744,-0.031269487058687664,-0.010959285504078244,0.12231388286817099,-0.1721704618834326,0.26510211614020635,-0.09836994032603374,-0.07196178867487013,0.09588826808882268,-0.014669603801087543,-0.03506997657934577,0.06042805374914268,-0.009456441363626021,0.057442655030506676,-0.1444453433855096,-0.014423109836141718,-0.0034262535247102034,0.04725573260676315,-0.02413133829039603,-0.10355088585048616,0.16784280935602736,-0.011640880015332741,0.05199929550802873,0.0008410256561418306,-0.1438312730765569,0.07465704818677,0.029940358993794824,0.06418529304945615,-0.050288424274762114,0.0060347090285557264,-0.04405906205381681,-0.06532243347074741,0.14343963009350197,0.023537629643098166,0.015523545366470923,0.16981396624407352,-0.06972156073810235,-0.00460951027056632,0.0165466638683388,0.03393275403527753,-0.04533295654916833,0.10676862008668087,-0.10289790746858742,0.15507182296209487
113.25769805908203,1.0186004638671875,0.020717626725883773,0.04396053776633961,0.18845103128116777,0.024568903626462486,-0.04118467556990268,0.23915904221030643,0.013076316267502962,0.03335324318797793,-0.37656371869723565,0.19480884842552054,0.6447788918640874,-0.17088305670211945,0.014450331837308905,0.24246888589155577,-0.017022977709720347,-0.12310089904006394,0.11501157022897668,-0.1264284996905175,0.10877443332319088,-0.005707226903072011,-0.18176409566426532,0.08943698828136172,0.061136851265282385,-0.2056473059448622,-0.016507860186487394,0.03327947580197305,0.12207978292581737,0.14368852880503236,-0.07775920810406596,0.038939420033427985,0.15638961152648329,-0.16438425249369049,0.09105532953682466,0.25925989441354813,-0.15431922760019473,0.04494331372299766,-0.15981343513242285,-0.10458799198701893,-0.5950446945501741,-0.07735953151786189,0.04216666785654443,0.21862601739461088,-0.24860356937827882,-0.3236016948883682,-0.42761996149459536,-1.4444414724896,0.4968836666801612,-0.002484573107683734,-0.0847932517415375,0.2953100370117682,0.19607116988788026,-0.06306154050840723,-0.3996363257944937,0.3085191526750711,-0.026840708020571768,-0.0030087825733317863,0.11961698082980854,-0.05355400614884177,0.07583762721956819,0.0054307722670584035,0.02838679643117758,-0.12754629549106336,-0.24029157817513408,0.06987462420416865,-0.02066809093331504,-0.20392868848981313,-0.047931028222610396,-0.02819899263738647,0.05522366645130402,-0.15339704335755314,-0.0837653033863035,-0.04451411156075346,-0.004113748320778062,-0.11350982864420013,0.07736712967357212,0.18764246581969302,0.043691931732493666,-0.004807636931484871,0.09261670183753773,0.1439214499059595,-0.06676329993018855,0.09897736297354101,-0.021251279851143924,0.05097568741680134,-0.08194575281680329,-0.15563839098266463,-0.0070140642508731985,-0.04529974028326848,0.06114521343711706,-0.13468191279997221,-0.03806348049908751,-0.04300347017141358,0.06196643143242856,-0.1252992403500535,0.0940601954326972,0.10442794658286082,0.19217480276153687,-0.05646457762412745,0.0022799765313623096,-0.015620682880164449
117.75240325927734,0.9589996337890625,-0.03564937752543276,-0.1623250589900187,-0.2668679197222593,-0.11056780063277272,0.46369527562903423,0.14566457630451068,0.12048307535685986,0.012139136279175552,0.2972962208852995,-0.14866507730130646,0.033463286894675225,-0.029109144286911585,0.02920888331660415,-0.10643922430580549,-0.04879872285513579,-0.14684846194355022,-0.09563938100267308,0.1255282296547707,0.11245109563145757,0.13234665693553674,0.11958238161665555,-0.15709729194917546,0.12577198897853326,0.07116859852113427,-0.05904947863865221,0.06221317412047689,-0.06566773331096523,0.1724240592696669,-0.14076842422632993,0.030519267558351104,-0.13148650545896937,-0.04817669065900906,-0.34562966754937713,0.040138301178900465,-0.06262110561759283,0.07701215430131259,0.046857808026817466,0.11925064536417533,0.029848865551173956,0.03623279492030952,0.18390277738041666,0.23884190075298928,-0.1761990170949621,0.09549844493876411,0.27188754199390314,0.8341144413861348,-0.22704655101793583,-0.4220517141533132,0.1989492695307403,0.19706777750742427,0.05948226429746428,0.05042514913485699,-0.048290138430853446,-0.2327597276180221,0.33430886834955303,-0.028251155767000855,0.1592854965563491,0.04285271964505415,-0.04555376902961022,0.06068836780329994,0.013200434992025573,0.03681545038707722,-0.07495431389957688,0.12832624243219964,0.11040042410392238,0.03837927991351293,-0.020706386014621367,0.0008369040036259579,-0.019189812186832585,-0.08585516624806049,0.08903866080428278,0.038569739033743916,0.09867754945675136,-0.05791453111963913,0.10949171429724389,-0.054990826702714005,-0.17312602783635217,-0.011867674818045848,-0.046469341516885844,-0.031537984203684526,-0.037756575634901014,-0.010453344878169471,0.019128951671350553,-0.1168438778395304,-0.07788860640590296,0.005426137327621214,0.1195604332241696,0.007512401433314823,-0.04007537153390708,-0.0520835641962112,0.019330866108580997,0.10839190512920616,0.006116659966898266,-0.0501994124444633,-0.1292316830193669,0.09103003881328038,-0.3414400128687029,-0.02453561184011395,0.14291114555685436,-0.053786071696872766
118.7114028930664,0.9683990478515625,-0.04896518290188193,-0.17536973221634744,-0.03827698937641587,-0.32745455304262794,-0.026218059358776497,0.41787486720773154,-0.284921046457152,0.4598859470962725,0.09207323554853056,-0.18363467328617916,-0.23318032104312658,0.13128089183297928,0.011345568354569659,-0.0200000119845944,-0.02279294498053137,0.02330746745182038,-0.027493274391783104,0.12099845482320055,-0.09562411335472332,-0.06563278722857258,0.09730521346759312,0.34428035526941325,0.15326454007250626,-0.02213008783020398,0.07823844635563203,0.0562867740640241,0.025481328749976676,0.07632482643900595,-0.03844579780276233,0.1398712657899293,0.08256475195679906,0.06446343936824922,0.08529342875189666,0.032354326876461344,-0.08535212063788106,-0.17691042412741595,0.05011880733306371,0.29127962287547143,-0.03263993821000168,-0.04775745836638914,-0.2803779392198158,0.2246128701300476,0.049086271926413905,0.17394992658451608,0.1916363704355952,-0.6046324053392127,-0.6171144624276427,0.07085274437599615,-0.7011861259000471,0.15173002297936733,-0.10469041678512037,-0.027835476307261534,0.08146936624159573,-0.05262784505073381,-0.23283106575128054,0.10633999618773668,0.08758977133686129,0.028226549113257636,0.006522015259440919,0.05410558288475385,-0.007990425649096307,0.22497061148616643,-0.07025573260650013,0.06079970350411946,0.026527169199483842,-0.2670090295286588,0.03522124473822853,-0.023894397503778753,0.009476440211909836,-0.0553135135526126,0.008644242682277826,0.013911115403015118,0.08764555871070533,-0.015395276401099977,0.05187031345126338,-0.010174564522446522,-0.07902485773149932,0.09871757454919383,-0.15900679429475345,0.02644773468144128,0.046076691257764764,-0.03371137158126919,0.04209512154282599,0.022799574147003707,0.08446266151747482,0.009635680708382763,-0.0070144565512075,-0.0624632412400864,0.020965492439755422,-0.030323529705472543,0.09930242827598809,0.15394318025843448,-0.10806551566192953,-0.12253558836964744,0.08651699330008887,-0.07158495137341675,0.12215144428893121,0.06617599971379452,0.14532497444142606,-0.09106517864680119
119.67980194091797,1.0391998291015625,-0.08959315857155672,-0.08418203628657844,0.03578563202575621,0.3633756816512851,-0.46621154079841093,0.41209563063754456,-0.2988173749105795,-0.15409096371429518,-0.10952536104969922,-0.2958043445766329,0.24803648886366889,0.011839022948027845,-0.08769455590595618,-0.0651298582525191,-0.04397941694283662,-0.07790574135645693,-0.03553231284837082,0.10443172089366272,0.09799195957033618,-0.11138429029939793,0.02007338762907291,0.16210545509466068,-0.00014720160696639795,-0.12402507026538491,-0.0687941933430972,0.05403971095312099,0.024249088119900942,0.03645742063005646,-0.05991395268318994,0.1485028823108105,0.23605045205162317,-0.03361628648309687,-0.018624745200562697,0.16835639658807133,0.052219387899766705,0.07287684490397044,-0.06273539576747876,0.0315901166695184,0.08790050361763782,0.5087838507871966,0.14729375833140326,-0.3500209986774018,-0.4027930998359707,0.052859891895469066,0.10026814107196946,-0.29294498594847374,0.45287244122594483,-0.08561695502360867,0.22856061854895945,-0.006264497097958229,-0.019435879458143013,-0.24337569056078998,-0.08762051405437382,0.3520830803792074,-0.4098700676206774,0.363212204011585,0.3806358144484599,0.09522687592111954,0.002435893420722882,0.020092364023769644,-0.013234605491540131,0.0194528766531617,-0.2655580950709091,0.21406639950219614,-0.18673252275138005,-0.14922407248621758,0.07067266541485388,-0.005493818812718532,0.02269106853717662,-0.06531597082844492,0.03699745278802927,0.0023057536520613275,-0.010882715026978832,0.006452856043933298,0.10429988890879444,-0.056470744719113015,-0.051234062077801235,0.14145489959375424,-0.20284013816754914,0.08708558833698182,-0.22962400447986586,-0.023045219214943687,0.04085097003434718,0.06958534487357415,-0.05587799094533664,-0.08956389924351624,0.016106740501561096,0.03988744888038152,0.1597330730559385,-0.003661737301085886,-0.003382736308753018,0.02231849711653735,0.10204146899675287,-0.05762982938652963,0.092050490320431,-0.26711087597949934,-0.01597592577719527,0.11946921886756158,0.0025655406895925548,0.007981389068952946
124.53469848632812,0.968902587890625,0.0938012812853449,0.019240821655161985,-0.06416105063798756,0.15093642218182046,0.09234776592329463,-0.019822787548800076,-0.00411598106524102,0.16543290588162088,0.08469706086534254,-0.09610162156758194,-0.1346013555756709,0.02111984660505803,0.08583483523088807,0.08888121289980343,0.048668362996608844,-0.02840150878231662,-0.007860805150882333,-0.06063435745116097,0.06801246569174904,0.13783985476213062,-0.09245409333883477,-0.021057585166572444,-0.1385687118208631,-0.07514197121092965,0.1662999769102754,-0.04421544169241519,-0.018150242514649494,0.01772949897059478,-0.011441288830341824,-0.05866408481462365,-0.10132026779263613,0.017283022809926517,0.015028604235123318,-0.12120375136255886,0.049462733588789054,0.06255115698096948,-0.03812223777666421,-0.018171513682001775,0.24771723364156334,0.21116330293986482,0.005008263434750653,-0.649604306679342,0.5241130730778925,-0.2292771506685089,-0.02926072457093254,0.2121768645318906,-0.5987944564748999,0.08871719405497586,0.550684584850502,0.189979078824616,-0.031999457798240746,-0.07150910134334289,-0.12347925335266224,-0.1949443757741503,0.16746590672172137,0.27667397293576246,0.13495695871985197,0.13115706312088327,-0.07973136355319348,0.12374048816094499,-0.05591323258415028,-0.19810501162324531,-0.09400952108783221,-0.08868723479685349,-0.06843591824200455,-0.009709941657817241,-0.06702177216346836,0.027788322509698284,-0.05219276018707903,0.051296940003266865,-0.019821326315115295,0.042545583906909885,0.0522903442448407,0.04831991809211043,0.08969457582168182,-0.07699005102864466,-0.01361078067245611,-0.22689170760642038,0.028891923927038505,-0.05637883964402251,0.03390005362437711,0.023985285018938172,0.11920033902330736,-0.091242064362907,-0.048544751111342564,0.13747547026746043,-0.03255882852685092,-0.011308590679487111,0.10032745564788753,-0.042446569033161866,-0.1644304986608946,-0.01392192446569849,0.08912481704165125,-0.08060116489271683,-0.020715801595410133,-0.13014292353764442,-0.03333042994487279,-0.19778372708208425,0.09325708140536519,-0.01881650420367567
125.50360107421875,0.9787979125976562,0.09728851997453634,0.07936340801587864,-0.21228775382357892,0.27109215120901914,0.12373922176733107,-0.1730010651187266,0.05971433921346121,-0.03774999199604703,-0.19005657483244023,-0.13342712019873199,0.10298387465876381,-0.003832776199265911,-0.03886437967242126,0.07758418420373248,-0.03164236610700193,-0.021438806532675256,-0.3056672237031152,0.10222035216300411,-0.010818560139487943,0.04611590938615441,-0.002986261955603413,0.08257196784756533,0.032409505292442,0.019667679828566778,0.29193014826428154,0.08729649120250425,-0.05529658965354395,0.047715103002245976,0.2531715318363333,-0.04019018680875143,-0.10861239976872024,-0.0006293253425993101,-0.05946546390006459,0.14123980941255307,0.16962998259826095,-0.1035276233758334,0.21468455808010312,-0.17470447984478316,-0.3903966581437322,0.06139642646103694,-0.04201531463467361,0.3559418068309884,-0.19430967658499854,-0.5096254065828485,-0.45814630184076155,-0.10141097831724416,0.7580848244897735,0.16367326610456798,0.16888829387665372,-0.3677199469336536,-0.04725207257434095,-0.1784510041843281,0.005378694642389169,0.13654530474364374,0.07604953437222808,-0.4736951917075516,-0.0676127017770166,0.0397578596149052,-0.02111456448469262,-0.031838508351533575,0.06867510709416029,-0.024872281265168595,-0.16426233019321954,0.12169799843190851,0.01568489696359327,0.07353210446890998,-0.018004192548848406,-0.07053458473740899,0.022171344016775764,0.03214857761454369,-0.019535894616890058,0.046966722385579945,-0.12401340065894656,-0.021806619594397957,0.0674290120342025,-0.20888230008467296,-0.01883433988916517,-0.022546826701083968,0.026116764145595953,-0.07531227080133211,0.03680442692256041,-0.1302474182727388,0.041487342459069085,-0.04389020011946869,-0.03510587712803437,0.1515664247348799,0.023571508426742722,0.11533430679037515,-0.1420956339497859,0.029916799868817803,0.1244723836099558,-0.006157341356915613,0.04858141500896488,-0.004723062015845267,0.029943234272126654,-0.08939404925621963,-0.12959051525138182,0.18101306724214347,-0.2226931779240957,-0.06555294492805269
126.4823989868164,1.0188980102539062,-0.07227320648206442,-0.3798591957292104,-0.08454948610424848,-0.19924721845688237,0.3295357427243275,-0.32902940153741017,0.03620175318910651,-0.2897346946428334,-0.14292115232790228,-0.012175886514041171,-0.2777032706628879,0.03476086110754203,0.10786680783515554,-0.05397411282570423,0.24924900090923183,-0.11243285096574332,-0.13919089222142048,0.06837782404221807,0.20792335033043266,0.06026745999380409,0.09430003541523868,0.0708159299865584,-0.003080807658623924,0.2438734581105805,0.06092726894600807,0.040990244034648626,-0.08988320154766107,0.06261000732112733,-0.04566815222974893,0.017377868731793037,-0.18724223503439374,-0.03252503683014468,-0.06872448910151731,-0.1565707878838975,-0.18108243954219083,-0.3445345454743427,-0.08707638940162858,-0.4660999618403519,0.018359309256475265,0.4240733182729485,0.269879341388309,-0.5143223290452199,-0.10674739025561833,0.014593799556308542,-0.02663985454812414,-0.23383765497900152,0.09591001138125752,-0.7872447655680043,-0.2878007813682824,0.18425569229971905,0.23968595140142906,-0.236218583508608,0.3624999226964313,-0.3157348459497794,-0.09111212640249294,0.013739201580776128,0.04888479305938145,0.050323841715607304,-0.0686278236614259,0.01482610215051329,-0.06309040928418294,-0.0008524017580955278,0.06193731072598733,0.013234307064410963,0.017337755449631065,0.09520289360303581,0.017154172056840392,0.013734517918875835,-0.05083461662872106,0.023653550346522702,0.05540286247383414,0.09916484692617575,-0.04055920643650546,-0.049718001307607895,-0.0494832927377222,-0.07462854861533025,0.07724518286253493,0.06827053105735685,0.04033669336332396,-0.0427666589750787,-0.002357036967765125,-0.15475671843454725,-0.03105237770660593,0.025258202332012925,-0.03385411279464599,-0.15450843663183103,-0.003894045263108813,0.009430561829764813,0.045254392067936966,-0.13902118584951442,0.04588897237139242,-0.039707565405140054,-0.08932172124348485,0.20602999108575645,-0.03948354571900434,-0.07045052280861953,-0.15808756052647785,-0.27270282067287027,0.07262862872181021,-0.07379453880022925
