start,duration,0,1,2,3,4,5,6,7,8,9,10,11,12,13,14,15,16,17,18,19,20,21,22,23,24,25,26,27,28,29,30,31,32,33,34,35,36,37,38,39,40,41,42,43,44,45,46,47,48,49,50,51,52,53,54,55,56,57,58,59,60,61,62,63,64,65,66,67,68,69,70,71,72,73,74,75,76,77,78,79,80,81,82,83,84,85,86,87,88,89,90,91,92,93,94,95,96,97,98,99
117.08014678955078,1.0095062255859375,0.2239458022838443,-0.1281186407693575,0.024416098413440973,1.1336351138853171,1.6244791363469462,1.5913002465868136,2.45860618332658,1.7245447887954768,0.25111371950155625,0.6531263842242039,0.24888735727408737,-1.3460190356500392,0.04815589471051061,0.10359507305679086,0.0923049382334125,-0.11860574297932693,-0.11596400920133793,0.046949864971132176,0.01858574250403728,0.15458874339833123,-0.3148131686309323,0.7472619107419448,-0.020766454954012203,-0.1025443880189005,-0.07671476104359458,0.04518839797690211,-0.08358443675477188,0.051862437302141545,0.04839796250415683,-0.0034915499094181433,0.08224271113777312,-0.22476423514093533,0.06129949176019627,0.226884970231401,0.060276423170740875,0.027501221567678348,0.10926014550817512,-0.07785006398239515,-0.05254980074079066,-0.03672819139866218,0.16987600603504777,-0.1475423033129957,-0.260774393082175,0.3065392625477163,-0.48092001226919756,-0.4765839373440661,-0.1209614226113624,-0.38781047521555256,0.6758368090271148,-0.2122594756798376,-0.31155812339227557,0.43230354853568154,-0.31176982850806334,-0.4662689179177416,0.10080867996359878,-0.21283766182424935,0.004061130931758611,-0.21836983394533985,0.367388286763688,-0.03946875237709498,-0.9869361982759,0.2093252074360477,1.6629197787304701,-1.6430376638126938,1.0034425363154116,0.6072430345331549,-1.0253274614957368,0.3119857540842107,-0.06989272129674369,-0.12359024909265653,-0.34305293385414726,-0.91047890147339,0.06696234267796422,-0.5339799155715026,0.3195645175254218,0.5861608023004572,0.5728644703905941,0.22624576618592407,-0.4530697954907178,0.12497161252705741,0.1226676970911556,-0.10787293818682915,0.2262192241729022,-0.1736224800362973,0.4395220228809204,-0.05660294603179447,-0.5044344279476877,1.9765836721483547,0.08845254029424207,-0.3360902092234957,0.6502248012468479,0.6752027811571729,0.8672805285560179,1.800396145155072,0.3136162884142863,-0.23259226164969982,0.3741046496918332,0.710283809649778,0.19894062266133694,3.73014039279569
118.08965301513672,1.028594970703125,3.2776670410145923,-2.239223001274888,2.0787544870674513,-0.9180862353466361,0.9320965356351576,0.6262740728381374,1.590090737140538,-1.6022415849973717,2.3009547468615077,1.3763948195863274,1.4175948411635004,0.13720965086193004,-0.28669927601275896,-0.04775664971045414,0.04817476175915643,-0.035414795679206766,0.10345088325928141,0.0016742302232817113,0.22856411080161956,-0.13142819429301406,-0.013398930139668294,-0.03930909225526202,-0.018864036349460857,-0.09161363116262529,-0.09847899203889017,0.0004928302852436168,0.03146603202599402,0.06904134462336582,-0.06456894373907736,-0.028616923229729502,-0.06705457120897645,-0.060214224255505315,0.07465609005155743,0.07190430057547526,-0.010617657967383036,0.26099680794384,0.21359157749087987,-0.29016897578855394,-0.10722274695205673,-0.29976619840610735,-0.2494906938489219,-0.4915696325982096,0.3222992533845261,0.03921382702173923,-0.7681243062048173,-0.12578522822667187,-0.09857581548991144,-0.5286586731063089,0.39683271656177055,0.16592148321170025,0.1775701093230501,0.26280255787943835,0.2657416096656979,-0.04329513587331366,-0.07246435976341678,-0.023907915700907736,0.0758642545506808,-0.002272592396866352,-0.008375988814524768,-0.9318365342989446,-0.7730148898758558,0.07066237571894714,-0.5507002920286633,0.6787601624090009,0.03608795520623814,0.11549140892250569,-0.2019951253112631,-0.0960024765887576,0.10235881594690621,-0.4142550905814125,-0.11550559554764434,-0.3224616239581599,-0.9899312614407938,-0.6694935900304173,0.2615105971950074,-0.36762595964931116,0.18687856447871626,1.2762499570154744,-0.054529274632727845,1.4169362519906863,-0.825934509451911,0.27905739672122665,-0.00138592666673501,0.48188763812716406,0.09070116220466545,0.6489853351171062,-0.20936856966458406,-0.16886509999631086,-1.00802637668041,0.24911716997188849,0.15602197432218887,0.9848800448053793,0.1162706230007968,-0.2757240122550388,-0.05678870207412914,-0.3763882951368171,0.5936685536178056,-0.8759893374685246,0.2820881022365392,0.39087370356563855
119.11824798583984,1.0490036010742188,0.6640583570846786,-1.0905223344967345,-0.017179989150582664,-0.07512234554169717,-0.6605261173080508,-0.49151062087993547,2.3102679844269405,0.5593469660400104,0.834093638754825,-2.205209853950059,-1.6304976938785483,0.2978370803474311,-0.16074682582022284,0.11561355425659292,0.021507708660337632,0.028677708395689804,-0.02441619088376891,-0.03002399973350014,-0.007407904905063559,0.0333631815675617,0.13141314607324042,-0.06431974395818985,0.11590899261920783,-0.0118062784033033,0.09264980637106862,-0.013766029302251246,-0.08101183787323062,0.04977528122436489,-0.03230783734630695,0.004473780285173395,-0.004990931918567025,0.02227255246792704,-0.06409371681639338,-0.03561610124860539,-0.10961536227995985,-0.04598424603406967,-0.1119623529122709,0.22805460376058406,0.2506302010855958,-0.13083816083900357,0.11035518965427715,-0.3174249009960189,0.03269271391040633,-0.08387938493456737,0.39663729318917984,0.5326852057568255,-0.3446856254876013,-0.16840403106573987,-0.20092692769652204,-0.11305716703248905,0.1055798307613616,-0.06976897860462622,-0.09331529233068193,-0.08087216777779772,0.060116621445657326,0.020671933518584235,0.009981098701989544,0.006007927604531006,-0.1258239454449403,0.3346455506777832,-0.08362703476446495,0.24468146814942726,-0.24683787533196475,-0.2294447532436505,-0.17040423735794957,-0.21276419144970898,-0.022746413200531237,0.24712469316129554,0.2746852960257094,0.555562168818364,0.11599764368525278,-0.022998257447035438,-0.3084719994221989,0.8316687847110216,0.19618399636181766,0.027127886124589176,0.53079703301308,-0.4057416157155144,-0.07783111933954992,-0.05164669972371866,-0.8991029654691064,-0.465862307759921,0.09064471387643716,-0.26696196910425257,-0.12865305669199104,-0.19361423199726754,-0.4009147522030965,0.45553306096888024,-0.29166902557217356,-0.4676164506028172,2.2330339503315026,-0.3032071853417807,0.5275457386276493,-0.25500845277074025,-0.48871647648541716,0.6579232946200537,0.40771483000269043,0.21689581977758,-0.39665531480533084,1.1806331116083193
123.33364868164062,1.0388031005859375,-0.22054768286459314,-0.10465858247443728,1.2353618270648767,1.4475009575141307,0.5208737690616744,0.6900967612916502,-1.8914795217732876,-0.41266748709491513,1.7769219611117268,0.31276677681957094,1.7200471306697946,-0.5890614612239082,-0.11358904356249366,0.043537186602732085,0.031418851930040514,-0.17040554854488388,-0.04570936659156406,-0.045402178166969794,0.049988470971320455,0.09013316582655391,0.010340414199382031,0.023441765012680985,-0.00693550141085443,-0.23332586186061616,-0.08052855240567947,0.029281693481358086,-0.010907028647616947,-0.02882452130990872,0.0014800899666822381,-0.012906496114635731,-0.15999224892034614,-0.11350123305620043,-0.01095237306895188,0.03469742337723609,0.10187146294451824,-0.0012566575414725996,-0.022968913994892603,-0.06365279022901854,0.13038481166636065,0.013767713542303087,0.09550755651052281,-0.13740169237171776,-0.06752647599177712,-0.16401019184285492,0.07958755650532925,-0.07887287737712931,-0.1352557757106087,0.025497602766986427,-0.37008911215041,0.0805513844228337,0.28125194603940973,-0.15046676924789,0.03934578997208049,0.0947792938737417,-0.01862634668247575,-0.08134776298356078,-0.009258588773323414,0.10730658302233625,0.03652322462608486,0.045102497820954136,0.5685142664427332,0.253382897851331,-0.050985888028837634,0.12421735324027153,0.4913848894203623,0.7557180497365938,-0.873086480101475,0.6012237092107845,0.12708593390394415,0.2422011604742698,-0.9532456594087156,-0.5000972609157964,-0.31296376236532414,-0.028254953917340758,0.0882934345054939,0.06076401720042692,0.5156679693691387,-0.3290434042847977,0.0699320571457999,0.586620395286035,-0.02788052513370466,0.19620208058953975,-0.20529598868584867,-0.035912024415844526,-0.360074665842669,0.22812732216209192,0.4000367848096726,-0.27552195722844053,0.12746500753001752,0.0005443940297705369,-0.02349011097353529,0.17749186227126712,0.5525030006068836,-0.9461084815437,-0.2632122778695414,-0.09984831337859165,0.5084597762509715,0.6873703632518169,0.5542922604894118,-0.09580081050354206
124.37245178222656,1.0287017822265625,-0.2484102360879467,-0.006058684084011525,0.6715004143626238,-0.021220539782641455,-0.8895462190130207,-0.4399539916551821,0.142295638328552,-0.12549331698211408,-0.09308549998946843,0.1458858393073565,-0.04730846197435465,0.06678456233468646,-0.46047067872725017,-0.37961019412042263,0.5339193551576541,-0.040262039051141216,-0.04581416909925424,-0.008156443162736506,-0.031883565480939374,0.01111271396815882,0.012331678380547207,-0.09140910331465628,0.07585557649134589,-0.09111065338412659,-0.032966929904385586,-0.027662499122438206,0.1894840676462307,-0.05038556363683439,-0.05883147372112219,4.115533881380272e-05,-0.05162995380043407,0.03816334746863094,-0.007394114444911963,-0.007025666886435897,0.00811483874186482,-0.024166393815641382,0.07991849104358544,0.02987342821442235,-0.007080130398123727,0.01921278981526313,0.06153530298683332,0.1021973646128909,-0.07681445361343063,-0.02980447823587895,-0.048384756587410656,0.253026059659179,-0.18897959298525838,0.16592669239442606,0.23173415021512414,-0.15936661006319494,-0.25675070027212743,-0.06979693731335164,-0.024513891942767686,-0.07911155569500013,-0.093814486066654,-0.035988223991406235,-0.1850262342852831,0.012808076035659553,-0.0008561493406507212,-0.08474341723468387,0.07265531505033251,-0.2532740341038867,-0.17656112075281039,-0.07619667580589456,0.3882300514320296,0.5862718631954048,-0.21505045375384044,-0.0313011155636196,0.926388084142402,0.31864625344917047,0.6224414765977557,-0.07943589811723212,-0.49653942124273764,0.11998562139374126,-0.28943758688340293,0.15244827632991997,-0.3646236996771708,-0.27035948423033274,-0.06811608815037958,0.7053602777403807,0.23674536599872206,-0.5309774835397615,-0.33929146130144316,-0.028457071570799145,0.12520291809708947,-0.21223409578438246,-0.008904378432297091,-0.09450551496884514,0.8160866825953916,-0.07997120240154938,-0.2511718108456234,0.3095247911773575,-0.2905419995220898,-0.26690061266455223,-1.7111612219841583,0.2619020812105316,-0.3300374908561116,0.09652924216482375,1.0302938127205608,-0.4210551321905972
125.40115356445312,1.1089935302734375,-0.40081623125692356,0.40289050033456175,1.2496085699655597,1.1904597265056371,-0.3308441772700105,-0.9884781293277173,0.774114900991174,0.5940756404239079,-0.7728439002218536,0.2521061152916068,-0.2542029042408588,-0.047227722218643124,0.04001369462276962,0.00510363758455082,0.024645336545238792,0.008451354745648,0.018926515471552306,-0.008169025761655823,-0.061090565082678606,0.024045257415338254,-0.07685097680313589,0.03512084541922124,0.010563586473515794,0.016212409913288605,-0.02123436983958553,-0.040331520532103336,0.021516955412901963,0.07343391637844825,0.006123577201455371,-0.06745605707961713,0.06302982947852749,-0.07098378355431421,0.08580779949579605,0.09579907585374237,0.0018027454135597263,-0.04457490738261399,-0.09787783628161054,0.014010699925744597,0.06908288387531895,0.10648469870632193,0.1680054766065373,-0.010804705305130611,-0.1705581599522324,0.10073741783242245,-0.0494761835629193,-0.31941863918367397,-0.1511810344608587,0.06627199468067897,0.1602192036538384,-0.13152154817821435,-0.08885206158070655,-0.060218807585409206,-0.06460526584556066,-0.08235947204752507,0.1823513649683455,0.021834610752648455,-0.039258282593484045,0.012402057284111279,0.02813920418915392,-0.05498761327867868,-0.367284157643331,0.48655734752186697,0.3772944445854704,-0.19079217008012522,-0.3336813698228386,0.24105439615078197,0.6816749165455385,0.9002948325400528,0.15795045900096027,-0.49738954966626353,0.14410433789033214,0.01532472460356675,-0.2811858179582545,-0.052644176274735735,-0.2824235238824895,-0.01876273173177024,-0.48135311685181215,-0.9527731662033007,0.08111045523957212,0.41134167485168693,-0.4240805281722747,-0.8711133055483483,-0.22864316002758328,0.23623982212191053,0.15438474731458238,0.4248898760374444,-0.5786971390360633,0.31290468058365656,0.34484067724943995,-0.05983452636621639,-1.5872696843208303,-0.20470179376409442,0.9238507658248164,-0.5536002261760605,-0.37457408306079926,-0.22995215030871036,0.9456674224380526,-0.09006853729866704,0.7557711237704888,-1.150950816613674
126.51014709472656,1.0886993408203125,-1.4053935412948437,-0.12090617683889787,0.09274389375261927,1.3197434283645277,0.2913370420401515,2.8132388977737026,-0.09422986358849461,0.06383044484818623,0.08932140220369919,1.3611342206607315,-0.48716034881312104,0.03162020451021422,0.020254653216151663,-0.00283590518281134,0.05637045472575427,-0.08642485236482508,0.0017401007692793846,-0.04332620909709839,-0.004413037357254009,0.006082326010092336,-0.02343959632061243,0.019276396688707488,0.1803023535947645,0.1932351220151246,0.0158236714158191,0.03612948213141795,-0.014368800486243347,-0.03694020825832772,-0.08239720034842164,-0.024514190231215077,0.029628433076059522,0.03266457300732611,0.002407775876527762,0.02097638905376123,0.003894852252739058,-0.07767392237728885,0.11711231884399367,-0.015731614985043083,0.03315344725489261,0.18147444727769543,-0.0027906847967129134,0.0982746330180035,0.10084553406030501,-0.16298461770621256,0.026122579210671466,0.3407048893235578,0.039190592103154925,-0.24806015570373177,0.1132144546481689,0.13816518467636155,-0.24885093370478378,-0.07704696953492618,0.05267882203303372,-0.010799136839352944,0.11511303801914664,-0.06195757042941843,0.05097048138184404,-0.39444929942522067,-0.16349259621374546,0.15562670719540028,0.6023588577392166,0.1010033573838888,-0.06418940042496746,0.15487436910195318,0.4266309190535286,-0.4276991930670979,-0.38646503588529113,1.113047744508431,0.34285388338565,-0.6621096345135522,0.4806209497937561,0.3867990023049944,-0.31248527331387066,0.657197327164923,-0.44598778039584913,-0.27964204102036355,-0.795776763582362,0.5154159820792714,0.9154093833947822,-0.17839568416251267,0.005063845178360525,0.26494832975904464,-0.0320766468642329,0.06101927730975374,0.009186861001267145,-0.06883525205513447,0.07542742623125614,-0.0023385630055421003,-0.022156021174390927,0.02747767608526989,-0.3037065129081714,-0.25249643339632627,0.16843728650979162,0.11621053618729549,-0.24759177003986507,0.19333262228593298,0.1765982468332828,-0.2753505064945704,0.06620960738047138,-0.08238434776048781
130.85545349121094,1.0485992431640625,0.5567557269651036,-0.11731429272661438,0.03508014082411348,-0.6041805804723268,-0.7457173104664883,1.3386858233487327,2.2180160395499473,-0.18364286379845554,1.4491731535009138,1.8388450182822609,-1.3192381847886447,-0.9125692904683377,0.07821471267771049,0.7873142169292392,0.040759377085123394,0.04428268916033365,-0.066699916748821,0.009683710489094806,-0.04256269113964827,-0.012956478547677223,0.03043803305342204,0.028587015044042163,-0.05215670994714802,-0.0033252064702090607,-0.017249743006121115,0.015995968849906134,0.06716835779032046,0.021137634990748017,-7.463140392260838e-05,-0.018853875664440516,-0.01934621848871549,0.0724397002652582,0.012917618471024232,0.006496664267114267,0.03861096750783545,0.029390452188480375,0.0181359501396193,0.19264828972006484,0.2606402589260823,0.03479533165969152,-0.15608784243895107,0.03976894246740858,0.020950888543217097,-0.18542141211328592,0.30133144647067545,-0.32162332763335905,0.004348756988240874,0.46291547996586063,0.0020064761820843477,0.07828190341190859,-0.2921426560314754,-0.08956876506488334,0.004434808441432882,0.030562256901261988,-0.04906854963855784,-0.09614928497389923,-0.022846455774947053,-0.09192754113797721,0.004461954306469341,-0.16375057816391309,0.13948383481819193,0.37958918389109975,0.19311131992353608,-0.045921360628889435,-0.20384968245930052,0.08512330316664933,-0.5290195832674911,-0.4134501098632746,0.04072490943240929,-0.5093007434034825,0.15589867031594667,0.22277233553374404,0.29216465315267665,0.2524894074830914,-0.7420924975125028,0.07092588447325937,0.13390247092118862,0.9044796458965849,0.2716824793497965,-0.2580918664294212,0.22451645175271362,0.06905408795313364,-0.19046818253667133,0.038979184235487255,0.2049547388436141,0.5135567970324612,0.7998791946487886,0.5877979896048835,-0.3724439165899256,0.051355304786574164,0.037633521801277714,-0.6328442266833281,-0.262309925590847,-0.4120968672048954,-0.25833684798153905,-0.29522467176770206,-0.6611026786095702,0.26683641799118263,-1.8142195096521696,-0.2363083376884353
131.904052734375,1.05889892578125,-0.3170923213127345,-0.8083467665927665,1.0206351982953508,1.2973912995932717,0.44396014494539,-1.0125035722326354,0.9368990906284088,-0.32054516300813907,-0.07064481565045086,0.3681485008611118,-0.3221017364551934,0.12861430688311418,0.06183365365241869,0.018443250229649953,-0.023722181731440087,0.018807137555491394,-0.10331310439496605,0.015943386978641602,-0.05135767553826769,-0.09228659047939312,-0.020895626078942464,0.03448396597596442,0.029828501487209533,0.041666058242876454,-0.10197678514245842,0.02900603101365659,-0.17559521965890218,0.175514542596334,-0.07440211236503338,-0.01188618969208281,-0.026046402761188456,-0.00850263684942597,-0.07612565033430774,-0.030849394423191494,0.09199407002648197,-0.05608589368570228,0.05483997393020897,0.0006374708484932364,0.03750068277607362,-0.07848121014459737,0.23673901538557324,0.07272331945480004,-0.008239798023036524,0.13265540535856668,-0.07113182330017402,-0.14087274590139126,-0.08149370138478804,0.23586610053508644,0.1051078830467856,-0.05434031149637243,-0.1575366559264192,-0.07027676311902151,-0.2331366543369064,0.3362978299210845,-0.050233214808561244,0.06627869637148667,0.009998671632037694,-0.0031719709810513175,0.017041023898260867,0.05896166621096956,-0.24250847832547606,0.4245237281000991,-0.21593813421709565,0.2631307756011364,0.07818274119215224,-0.6040105799486469,0.011742198714132276,-0.8904717558451318,0.06366790016557133,-0.3651771607679538,0.0209934170695317,0.01432844480609605,0.98919281969447,0.1743338273917931,0.025551203478853056,-0.19388694249238744,-0.32242417791477695,0.28720575413438804,0.14004099585521185,0.06306574664041381,0.038952970588418255,0.01246802677563194,0.07694428131857031,0.6887754943117816,0.05494531239721201,0.03964133188553332,0.2711018760043492,0.39673899068767743,-0.1535316237400132,-0.4192852635236583,0.4119903608590639,-0.0017964233110191376,0.5116159551314382,0.012815088523761835,0.3071767811467653,0.21641908710206065,0.18104235035390015,-0.5408410032506004,-1.279710989065252,0.3037326377478534
132.96295166015625,2.027496337890625,0.45385246037767957,1.4207180477383248,-1.760502711430063,-0.45478749247966166,0.11061358849800314,-0.2926327599127607,0.060995779064101245,0.36136928306460714,-0.1960129667125911,1.4286551629538602,-0.48554430660255116,0.1686471815008824,-0.06170022802957266,0.027984272745265923,0.013717995321025541,-0.00713845687402789,-0.025765470225530947,0.03920389646090232,0.05994273447568974,0.0071172721566599454,0.03543081905032647,0.018273295160232676,-0.09532526183802702,0.08683633643585889,0.05554990354882719,-0.08422070340798608,-0.021676433760258348,-0.026670981813152,-0.16978316844673588,-0.02595613243617674,-0.041833948392920525,-0.008209293582711781,-0.007145232663076153,-0.05662188909582599,0.09751419510937631,0.05488205508132185,0.02120482405618083,0.18427843021302878,-0.06877183844475046,-0.3690053345339732,0.044810964426074254,-0.25194842657010025,-0.027402717846854968,0.11630907944146797,-0.20362959577521886,0.07001518988438762,0.21224293928038634,0.2503146067465076,-0.33527705817738646,-0.222908806471512,0.022957524529489643,0.1338574502513222,0.14191211692883907,-0.4451193817558829,-0.09872627249593066,0.017849109353611763,-0.07232824937843084,0.005892805078138394,-0.030574435220169907,0.041765055567539615,0.11201747037303153,-0.25754473155197305,-0.2994227053593676,-0.12888604452117544,0.3780262867510369,0.09203212336353053,0.025883868923233605,0.004717394338505321,-0.044930773437725294,0.226197314616433,0.3044024613569219,0.6691118954914298,-0.08201717564269739,0.9903793299824416,-0.7577685986208496,-0.10745249376757508,0.23060231588552926,-0.06936549352769411,0.2691306180339035,-0.09994354351904666,-0.34967829895735336,-0.2606465477590957,-0.13062359772943297,0.40132152322523396,-0.34522536538860815,-0.36740577410389086,0.2104957853966184,-0.10526918095184307,-0.4256721543307267,-0.4993195131010472,-0.23698198054259545,0.31991433548520193,0.13133645280315548,-0.8321297556824093,0.7699026498746265,0.31718556011245375,0.6930437428173696,-0.8987621373141013,0.4769246171081755,-0.4604066113353391
137.11795043945312,1.0489044189453125,-0.9723469086704448,-0.9494617395882459,0.2379427654013023,0.11595951148896419,-0.6322106269897584,0.35976232497314564,0.14887234069786714,-1.0290841833112616,-0.7857672415546945,-0.2293482326294249,-0.0287512386472447,-0.5058071318381459,-1.26041372021202,-0.040316733635231916,-0.009611281434477516,0.08576451498557353,0.11308610232027545,-0.01775563274470418,0.08664624815416383,-0.003275191468168001,0.09835710774137504,-0.1036480031961363,-0.0762738869733724,-0.0013153016314869162,-0.12440542150213107,-0.12597520310380778,0.005197920584013508,-0.12983727779883156,-0.009203737744981046,-0.006890284069425022,0.010695282124243885,-0.0754145158577708,-0.03311064156514681,-0.07448322583314786,-0.052602645766527796,-0.06755713835717918,0.06147875585128278,-0.155622410345266,0.1643690736582195,0.02707860160543226,-0.38107357047179496,-0.08555069379602132,0.0153808115028468,0.01977452080305231,0.2861855343810599,-0.21174080220360086,-0.06733244374068875,0.04231934179072698,0.27892924839038125,-0.10094853940650717,0.09353747826289352,0.1394862034640241,0.2920055376105544,-0.13037542246350753,-0.08678078478069684,0.04380926444269512,-0.00032081797322291994,0.07632863682096115,0.026750620369769502,0.013182439812186184,0.2251090517163068,0.17320072575287546,-0.3238536078574811,-0.6671309434476813,0.2594885754349745,0.2842334722025813,-0.22408344444538386,1.1089611788178637,-0.029919982905109537,-0.4381357479738288,0.15918814243479465,0.15370005018576782,-0.25577262944074447,0.14740653258635888,0.30409712864964183,-0.026401617263422692,0.5949536489692058,0.4400987893638426,0.03315601875492371,0.20066045732680246,-0.05488361455677293,-0.1691809046532177,-0.3162082846201109,0.3019473338910122,0.11511218546157674,0.35799722158287534,-0.5709159998146297,-0.30587792980984674,-0.19772271944178973,-0.41948783544872337,-0.6678862664217973,0.19258970088556757,-0.2865654057470873,-0.44603840027159347,0.8132860858782623,-0.20510099173444976,0.09288152676274888,-0.31288663201507827,0.5013819065084543,-0.8952395159434359
138.16685485839844,1.05889892578125,-0.8282148197612496,0.8016994123325317,-0.454271064865883,-0.18222496505548422,0.5940284834977855,2.3179557881652872,-0.49240935297175004,-0.3717056771327358,0.4599044493350897,-0.887317269278014,-0.8531939220643635,0.39704946042566086,-0.08992949729080041,-0.012755103157716344,-0.029209450590067756,-0.038713069758242895,0.0655791451906478,0.04933580261442331,0.06005699114103716,0.024854311236551636,0.11072773773769741,0.024075007334398785,-0.054394081462188396,-0.058920043793096094,0.003455899242179565,0.0065696361252167825,0.005076116719478097,0.00973137784767816,0.08942982996081746,-0.13470961897294093,-0.12324609115497004,0.008271475959454572,-0.015948251522544005,0.07570680965659186,0.09397033362543711,-0.08959113974100666,0.01796865958468854,0.0553804918210027,-0.039386231908894904,-0.1274996026560918,-0.1593735359121835,-0.27921666733124195,0.18110702219255764,0.3100987971715713,0.08174985973064262,-0.016085362861205238,0.6419149627102466,0.020928365987468875,0.11224860426964124,0.04767746283786413,-0.0986502237158832,-0.17432092252759418,0.3786377779889334,-0.08994169777145512,0.007616896491174466,0.0351089618299809,0.07474464819479569,-0.09529918981020319,-0.02462976778546383,0.0835904527985249,-0.24329152627347844,0.28253069304074707,-0.05115710506356855,0.06417880689033706,-0.16504279435415287,-1.3191834500934085,-0.7501400649947256,-0.0285741724287812,0.15509398527056445,-0.36963946332392345,-0.587122455188439,-0.25787609447745163,0.42944634041195656,-0.6432377309600453,0.7722431180929946,0.20016686437198455,-0.287318322823581,0.22408679284946265,-0.264729603632606,0.34463765057654017,-0.36984815831471013,-0.10258079213501246,0.7012518246975206,-0.6743801446244492,0.36134114377484805,0.26481184684054265,0.28080925161110054,-0.04466779026071602,0.2956845208615456,0.23973952229417678,-0.5151438548869021,-0.9017514996235871,-0.2808369383190141,0.4498762286302789,1.2497632020244496,-0.22596425326590072,-0.9205432373907357,0.10001775749548514,0.8299817208381716,0.17315098401985218
139.2257537841797,1.098602294921875,0.5508602777078528,1.1181184648046962,-0.60802060690479,-0.9416368093875594,-1.0022403103574133,0.026491781784814927,-0.187470085604603,-0.018823920916567902,0.04810694287829807,0.3737227003009035,0.2791311034126592,-0.0446689123573102,-0.13521844519501042,0.03887712242774228,-0.031089147355297622,0.02875714020726505,0.02273832613104945,0.0372196954193328,-0.006759193126308627,-0.08461974090127006,-0.09533126902452771,-0.07286840094706881,0.014370719519956637,-0.02509007485131551,-0.04874173236852145,0.040879823373393916,-0.06901594700761071,0.005548902935001945,-0.08474585293664799,0.03363085103193724,0.06773151963262046,0.014072288627437264,-0.05002462991608146,0.0072585819960973115,0.06370250358667887,-0.02178934737330599,0.0005357506342968996,0.02027431820718998,0.00796151276368838,0.14473958485402105,0.16496958422360933,-0.24452459601982315,-0.0010854430811444507,0.18535933257559242,0.2983489766969746,0.047323163975934224,-0.06335506095719758,0.1300299075169787,-0.23544419184879276,0.3675541576205097,-0.06628688001335786,-0.19207146457948643,-0.14550874682387654,0.030422505637765124,-0.02957855924770146,0.03853714035332984,-9.279588207683259e-05,-0.007293933648427335,-0.06059294250003734,-0.06452811270962253,-0.1331745529529415,0.6639716576088174,0.06570955471498338,0.09346026186624495,0.20535360100868497,0.4410700414662828,-0.15317811916502505,-0.06269079980786268,0.05976729268384385,-0.09370764841030363,-0.1611493213818023,0.38534657827773505,0.09518861194552367,0.6852287079506537,-0.40256627170658466,0.391423560771976,-0.3577345209215751,-0.21127881963671744,0.04473325717025679,-0.3642191615764825,-0.7310790885857703,-0.2596006817433614,0.7707786369354204,-0.3484834016607908,-0.14884359796836658,0.6246344348710811,-0.4259771809066951,0.31891211208751524,0.28809805254877957,0.18534854601442155,-0.02125669754309062,0.09350801579191413,-0.1702422733165047,0.18857245693038108,0.20715849887288576,0.16089759579560592,-0.7533239460286294,-0.5272808223419632,-0.887224967137736,-1.5667702390822378
140.32435607910156,1.188995361328125,-0.8037947455464116,-0.7578370068328681,0.1550559944024052,3.2302847198134397,0.4072118907758796,-1.0115098656199617,0.6567917157820407,0.3178177124077168,-0.14208102369180375,0.133400919563524,-1.1373952107433913,0.173956327983117,-0.004050255139088162,0.035761646508240444,-0.0595648043102933,-0.032602771853555736,0.06396368497006232,-0.10858143269669121,-0.11101744633187406,-0.017472742052952222,0.005717976510497037,0.024626908473193498,-0.6553387559422994,-0.2361800626681303,0.020010749378920424,0.11485206890816498,-0.005275863699308981,0.004152401158115818,0.07990286202756341,0.003546720772915938,-0.008482086813814483,-0.004125905932395367,-0.029575579562086965,-0.02345534576501262,0.032692160081289605,-0.09080404192686238,-0.021448997578737812,-0.0373699077925665,0.22998589145455314,0.274410614187594,-0.24659340931596938,0.12566298345194257,-0.20695273979083847,0.09024022004778433,0.09281669448372022,0.05100620889225817,0.02718790669418826,-0.06535703146079284,-0.08378131233065332,-0.06637065852577385,0.07996658477774739,-0.16003295525822872,-0.02599130684945524,-0.05009810109097066,-0.03745487862522706,0.03997696307966413,-0.06800100264240866,0.003649382697823827,-0.22913442318818872,0.28035656112974844,0.24551224233291943,-0.3675808161979557,-0.2694741828341952,-0.09503605449283394,-0.1987363000036788,-0.24984128964677604,0.11814780317117818,-0.08996368782939372,-0.3146635658802274,0.3209759320025365,0.4201328299194831,-0.0015037705496458182,-0.40488891647523517,0.008545572032942095,-0.7873448852525969,-0.5893827388262761,0.32458663612198724,0.27988823297489596,0.1816529683909872,-0.30541877816197704,1.4819239604915169,0.3320053217753776,-0.4249893391070939,0.4890319855915657,0.04573357826140825,0.2460641949758869,-0.03507561903757671,0.2753614861002809,0.1008574816831452,-0.16117905245347944,-0.30883690904181516,0.47038811449730905,0.22047692433428656,-0.6485963834342606,0.3374145373932136,0.5320158425739294,0.10648835971275172,-0.38554100704232475,-1.466176530897354,-0.5954904256744327
144.6499481201172,1.018707275390625,-1.1497935263700905,2.143792532985658,-1.2727287916386187,-1.9646668676682217,0.32232255757248096,0.2970865541888942,-0.34361513018416984,-0.2727458548903563,0.34409571400931727,0.0379422002918042,4.134248197821161,-0.1787187771034872,-0.07769125218694997,0.001286035666074054,-0.08026937917119152,0.02863140260022253,-0.00972806255975199,-0.0012983748355754308,0.02376989330730557,-0.09612248534983131,-0.11913815964633426,-0.025227745889356487,-0.041493100298431077,-0.06389672007229459,-0.08439167203163946,0.0025816929833744773,0.10670984978962723,-0.0038063187653136306,0.0078612751672726,0.00647273584523095,-0.013626906149233281,0.03550462333038662,0.055431490556385736,-0.040328880195896505,-0.03290937243953154,0.08169955804542409,0.16736875333791745,-0.03443992068920767,-0.03510079734123338,0.08635659152265208,-0.42117114296859104,0.049808364608904615,0.09095145184339648,0.3046890188048798,0.07128598133350683,0.12620117644443676,-0.26679712922491505,0.12418610699677042,0.34779738590792286,0.06915088587919294,-0.24493663969457138,-0.34521044255457267,0.08296339033649852,-0.015886576691781028,0.13846249317375192,-0.1706589105722701,-0.07493349306029638,-0.008603807646940435,-0.0714391675386448,0.10025960477557837,0.16325516566167816,-0.20343646073629912,-0.05829169125276429,-0.11375031567594834,-0.11349193023464131,-0.5942878403531168,0.2995554222081535,-0.2235193750773295,-0.10309853806133434,-1.1861050571736862,-0.0260254384442496,0.21478809110876879,-0.1207179485834523,-0.2441844338375611,-0.16420089307153973,-0.13165724273011625,-0.2581611792838485,0.762571606395903,0.5989767483883268,-0.7322817351759946,-0.04557442406830575,0.2611115889816863,0.6226532313319817,-0.11188810154377032,0.04028103809238775,0.0910705907686357,-0.2149984140994325,0.2664917653159343,0.6565861588748899,-0.7357173007553456,-0.4646492149764651,0.19865608468800333,-0.35492668221680657,-0.5441887576871526,0.4112196152196358,-0.16027453792747,0.046047379413989536,0.42940957673490227,0.8454550417191393,-1.1673929504644889
145.6686553955078,1.05889892578125,-0.8778555228644611,0.6750466284344394,-0.6896294708300397,1.5053451298954923,-0.08730970133445068,1.1063440021268365,0.9298105913767278,0.9998887915457624,-0.5431366377696023,-0.6082231214021224,-0.8418206972241143,0.059038949691979356,1.5563931399983042,-0.036494970402166205,-0.0751443878687389,0.03479096770603623,-0.03636146264316518,-0.10347763520622785,-0.04157147137782294,0.09624228703532187,0.05321856344298494,0.024378999587757792,0.05093617341442815,0.03580473885602756,-0.008508428904865441,-0.05186092170714254,-0.08630905875469706,0.025224659384334918,0.027543611402906294,-0.030548842043288546,0.004657940558068142,0.0731927592946521,0.045856334168579725,-0.09367354120255592,-0.16105520721916555,0.011645915672957054,-0.012130508204744574,-0.08029857532718285,-0.14237350372213564,0.3200346291850588,-0.1380543101084705,-0.14858001574875387,-0.21312323105951855,0.1487989662909353,0.27595410252063074,0.0005543004876318175,0.020153959775017518,0.6265622102522266,-0.19317854011996632,-0.11965298481026579,-0.17960333368857923,0.0945956560506098,0.16434245081263282,0.132333420957853,-0.058116651955031934,-0.03948055468073949,0.08847283689952484,-0.01563431140798662,0.05979874699673341,-0.22246673192061983,0.0784524898807126,0.20277455334380495,-0.034205643358567905,0.06491782416255358,-0.13940024948811128,-0.03868985713899761,-0.004297607951707,0.12815993885330657,0.07444719914556938,0.25620336205214544,-0.44005602242014197,0.42315771519680867,0.15756130986323028,-0.08551647364433479,-0.2688486988272939,0.07926485155124177,0.009230952186779884,0.9307298452203686,-0.22337161002267705,0.5435705795063179,0.006764261397541729,0.5376912286191423,-0.22598378870450547,-0.5038203948699347,-0.07378621235624712,0.13338229835745022,0.35641403617985434,-0.6170764418956894,1.2099454234443536,-0.1338544300267146,0.15572100826055038,0.04615467602669579,0.1653184199400501,-0.7276700848636994,-0.28105614790612043,0.23969497347939503,-0.33739568641738604,0.5069454477415611,0.3814079188349276,-0.5583921155879058
146.72755432128906,1.977691650390625,-0.17048667569392983,-0.543920207220059,0.15878518550832252,1.0266390616865608,-1.1623675177047612,1.7105313862596565,1.2390861284155006,-0.06904514696070764,0.47696905426973435,-2.447774646592902,-0.1221676695322836,-0.2647563025827619,0.3825404375657289,-0.10267606465521506,0.1835248856675833,0.04162245622760836,0.13461672206889702,0.01894579315611805,-0.06334851242320368,-0.07061076458862463,0.03701783716101527,-0.04035562851533481,-0.16519953352910813,-0.06268213026417814,-0.020341374953233654,0.1353110882550846,-0.004601970172742724,0.044604456612798674,-0.14056356940366066,-0.04579610510290862,0.06242703170263967,-0.02290444865690545,-0.039499470828911115,-0.02171192436519591,-0.07370683507574083,0.05259453561462647,-0.08684761504562348,-0.15648180041300458,0.2457742577478403,0.1657896323225142,0.3009828750783623,-0.24388521244623826,-0.16920933922197662,-0.20352448566416334,-0.056104789519921476,-0.1507248513880731,0.07681989631848797,-0.10154669087059973,-0.12672555509965927,-0.2091277305682527,-0.04079887790156495,-0.029734050435013922,0.1894352035615768,0.2167930104374401,-0.1608611255787455,0.008127172349663182,-0.011746322740675764,-0.04602709824779523,0.0025856267545034117,-0.09338098434693809,0.41419240936574087,-0.12688659227226662,0.23817813676940516,0.03049150213491532,-0.010417698392000282,-0.5173952815569868,0.24767023299956123,0.32794176120912544,-0.09213548185907702,0.0556957450869501,-0.07943522653372279,0.12070937626873447,-0.4561113518648256,0.06802654023851867,-0.7012428937325192,0.5394869900247814,0.2757594283741063,0.1567574281177197,-0.005456922268684841,-0.6601168777383039,0.3173484641214163,0.25078191484029183,0.7457865162298829,-0.4762325893110094,-0.11096963067613178,0.325939450182041,0.4297594422214192,-0.06988905632508555,-0.6292599281105835,-0.7398383316002539,-0.9146337763371928,1.0250512843721558,0.2536317322737373,1.317568341900126,-0.31891654228425925,0.7959269525280762,-0.10586682320949867,-1.0439539019305606,-0.48064458071915284,-1.9210729145315122
150.78294372558594,1.02880859375,1.5703403950056227,-1.1568445481066025,1.107822434171472,2.744894661778946,-2.5697170346916587,1.5922719864000654,0.8417547184765775,-1.2798576036041402,-0.19947819248316642,-0.5294283196769454,2.0722556593289028,0.606218708625414,-1.9268871728293122,-0.22018477563954583,0.12951796674738064,0.0285756531246056,0.005324540037059009,0.026236132496868472,0.2133773994928694,-0.00902724705304372,0.06341950894088125,-0.018677651465572133,0.011115671067200412,0.008352821857671888,0.13238020642690002,0.03409874376388802,-0.151742823040535,0.09893737426160441,0.10420085357062797,0.02951876690289064,0.15618967076340834,0.09135420754093179,-0.14961442446540174,0.1996824610147161,-0.024902196856229176,0.035309326733770456,-0.122107657010755,-0.22355687758685142,-0.1358949546016304,-0.0742312025467086,-0.10314279294173484,-0.11668979549020701,0.09112332495490191,0.004362089062231664,-0.4126843317298007,0.09776160622795893,-0.2680517853631892,0.12618696000874632,0.103443499566122,-0.4843069653550056,0.34738130591957117,-0.1712756140178014,-0.08993497829247944,0.2565692391623713,-0.07203406458949693,0.09059315554017232,0.06943698176436773,-0.04812851156725696,0.21856764827508485,-0.02380005321514265,0.1831422236521147,0.8372219183220541,-0.3677048263465357,0.26902108765240806,0.6142132984901835,-0.21051014802196621,-0.3007734252688105,-0.7475865086965662,0.2528634396514791,0.34402264149275275,-0.15914140321188366,0.8624850283235821,0.16186856881696887,-0.6255745194542881,0.04636414729428824,0.11945668633136802,-0.19111239355016152,-0.02826839715675185,0.13512981348246525,0.7874867251101763,-0.4394914812354864,-0.22921855827058302,0.3921637211917651,0.20376935272446384,-0.36953588575343255,-0.5870295456336141,0.0289996548580113,0.5038357225463194,0.5668959607422321,-0.0766227332808565,-0.09073869826687692,-0.6937067373346911,1.490521360185502,0.23023817504711597,0.02722490768384557,-0.2613394743635372,-0.20728299529930994,-1.0640868133673165,-1.4440156616058917,0.9492298929863046
151.81175231933594,1.0489959716796875,1.42102639133995,-0.9649900297620574,0.1161806001176875,1.2401491837287397,-0.43836807428483604,0.19440532077163974,0.23971485231529602,-0.3273073324541014,0.7961722119847837,-1.1459903251247052,0.07317393640577738,0.5621902231095341,-0.4773211644800186,-0.13733986126595996,-0.590847470522247,0.050595650678341694,-0.05768505485683939,-0.010380166279619357,0.016500456024053464,-0.008398040477345508,-0.08098199268534316,-0.07033860806366062,-0.06446551707932349,0.0025781408793774077,-0.008473617876754136,0.005929169616524257,0.0012561564217648767,0.0011114378939614377,-0.004412570604166739,0.02463987132599166,-0.022771082234988953,-0.06169483213192736,-0.024703860826075615,-0.02695581094579141,-0.13927126104090576,-0.03807161813722974,0.061459846163270326,0.026944015444727985,-0.30882392722326063,-0.18689129040670344,0.4367337553894594,0.18488833866519613,-0.16272423279094272,0.10839248541831163,0.4837997218138441,-0.19597289689905506,-0.1360813097236908,-0.3056411773079159,-0.1483430959437403,-0.28914276531952576,0.3583528592560276,-0.07000979916600825,0.22468710233156763,0.2688149738357229,0.24366198715160034,0.4757864922250167,-0.032339472888998216,0.018163381965620742,0.027024485927051384,0.0019774555408757443,0.0032959613017511697,-0.2287407580749356,0.14595896855503637,-0.0990090261187508,-0.32747093540499583,-0.853924767910273,-0.49003453816868414,0.2990261246542483,-0.8423215488153298,0.3658719601599255,0.1141954684505062,0.255379784217936,-0.1782050438401271,0.030689343656289572,0.79771978684893,0.07486873039685502,0.7449860804510167,-0.31247745482184425,0.3077735785101622,-0.014142553789766074,0.2390687020966082,0.007637842779321301,0.40723961382021623,-0.23799937755053902,0.1134043297246243,-0.2746240697245903,-0.7620779341910141,0.5074767798943497,0.2805597455322382,0.018979204891088675,-0.6333236088721182,-0.26160573667581427,0.32822032446322585,-1.2863952687842226,-0.030825498294621643,-0.752307233704841,-0.3099857821651773,0.36470669513339593,-0.7797132482129905,0.619192107569098
152.86074829101562,1.0988006591796875,0.7641376735410875,-0.6783038734907989,3.471935235687336,-1.4206340531593806,3.3937785595278447,-2.085231447952713,-0.8601937778670866,-0.8022727919616081,-0.42590127341239514,1.7512160847741303,0.7909357420709171,-2.2929119938990024,0.1553812430506302,-0.08515805902503051,0.010978755919724206,0.028596542869545674,0.003280788208344987,0.01968852019425957,0.004600041426481799,-0.03387028269271753,-0.02810576667653266,0.020636815676151412,0.05207118876377775,-0.01375253770013073,0.09237157383465239,0.028664801138177327,0.03280020300638144,-0.07237862253706154,-0.11917601220894199,0.010267166444304872,0.031845773970650255,-0.05443999797826073,0.020682999760752743,0.005122129740938191,0.04759074002392221,-0.02525024635150506,0.08716928973202079,0.03818560643007134,0.10443503435177888,-0.04981386360947618,0.2799865832448448,0.0060101565597360795,-0.052735511465951616,0.18524668133821162,-0.1891007438474759,-0.37545143371800604,0.264847609450609,-0.11196639300922528,-0.10861796264906806,-0.2883746687678154,0.02617691381823773,-0.022625019760435284,-0.09169377957165281,0.035770663305806256,-0.0475168554048605,-0.19051579963238363,0.016694130265254906,0.039258513336231426,-0.10312670239603543,0.20271677764339346,-0.19994938729837872,0.12238571862326077,0.1426357379301761,-0.26606246881875895,-0.48843314663986775,-0.33139072771492023,-0.7999758219356314,0.6015431348334375,-0.24822687863244747,0.3986061955740373,0.07588669920935275,-0.2804024167870877,0.2463565079963715,-0.11988354986924507,-0.2754183115224213,-0.1480386636051961,-0.7918315083373062,0.23368614455624004,0.44464167947934036,-0.20841662846251563,0.12074498715196394,-0.06064501344780368,-0.14417275350604808,0.06532150641891932,-0.5072666200391804,-0.2354222761059498,0.5428434885529789,1.5287656991679033,-0.3633023162780242,-0.41468878613899385,0.09169987540776665,0.22118923092974313,-0.05226764776230315,-0.6635043513007972,0.25362112388414965,-0.2875541983964687,-0.30026398654740305,-0.18101887762409816,-0.11706404973543699,0.8072360048374805
153.9595489501953,1.05859375,0.608577263339321,2.6889630033927423,-0.7704562290344388,-1.3170958438748783,-0.9790255287524138,0.34562120731811824,0.6196040512813568,0.5324207266106666,1.0301807426553689,-0.7538248999106023,-0.019327281310117655,0.09316219523582613,-0.14080914471458436,0.016264782697955196,0.0673540805533927,-0.026990375381391936,0.024778459105840867,0.11426605990278141,0.1094901352419104,-0.0175908553472053,0.02525318985157418,0.07022097233044684,0.0006733378632434311,0.012569210281989672,0.1747196707868612,0.08875056319273837,0.2690776646831918,-0.07067344351023269,-0.19513837334606435,-0.06387328362320609,0.040719274403697436,0.01116273230322347,0.05801102412863485,-0.3083961184382414,-0.15075296616592787,-0.02462830299722913,-0.03163667350166783,-0.019895822737481805,0.05611518594641214,-0.001313312880555399,-0.04502815400021868,-0.1360205425573194,0.10854425285303582,0.09203877993292629,0.14623726529967496,0.0452479760270737,0.01020183944864278,0.12614177121211367,0.02034247395382921,-0.008741553356070172,-0.041080810916610616,-0.010129721228134006,-0.026032214267182198,-0.07781575030451629,0.08825686286811606,-0.01989133198566845,-0.004488963326508695,-0.09140620218874491,0.14942717997076305,0.3454826152540613,-0.18545268123824904,0.5462303485180561,0.09006126225880548,0.11455974784811103,-0.3392235127003142,-0.1354453405083369,-0.23133761622442847,0.8985863391152379,1.0025654827098185,-0.29204931396530537,0.1348715767038254,-0.1331255780138407,-0.23406819760827471,-1.0391956204756352,-0.810609623466058,-0.48708857777125375,-0.19252482974586219,0.1533133758732002,-0.029966138361639243,0.14143279653594942,0.04614181297012961,0.01795548335794685,-0.09649844720121717,0.004423344073315429,0.07326050295123462,-0.019127062089952025,0.05608362011162067,-0.013946888457361578,0.08854121191673138,-0.015225858812418436,0.0061784518874107575,-0.12356322474438435,0.04025770525419497,-0.6340861073228656,0.23846766664473312,-0.0037331711652499183,-1.2137618746487353,-0.7771341230637347,0.32862091328259135,-0.573507226730598
158.21444702148438,1.0391082763671875,2.201806996387251,0.21576613805493347,0.4178713241304798,-0.3081046145636973,-1.1823969080415564,1.515341921140093,0.013254403819258492,0.9407735045645096,0.12513948735827377,0.2500302293566733,3.8053981623998614,-1.270068736377999,0.1538394686002501,-0.5646083211013015,0.18518695740152974,0.031265670499404555,-0.013815767583156292,0.04771908814630872,0.0669713961282363,0.02556853779625052,0.02419609790721699,0.003649396555042376,-0.05082328975669985,-0.015613888150733871,0.03389253614221747,-0.061812543364050995,0.13339009864110113,0.08415695773900408,-0.13801204874848638,-0.15449353320915027,0.030057073427966745,-0.027432757478169065,0.06800572547798514,-0.18382936240284142,0.10019636443767771,0.026082028784627117,-0.07841458915442866,-0.24454311018143388,-0.21090207767508182,-0.15621700862731983,0.1906812218486508,-0.03850659449358657,-0.063013600603832,-0.0008962283034522588,-0.3394946503086974,-0.04082940553922394,0.1506609031743965,-0.28357566155570285,0.10888554205907283,-0.03677197793173799,-0.048311679486746306,-0.052420055917534916,-0.16122232685490762,0.010039642207319795,-0.053566579052734875,0.15515217237740714,0.13020526258385526,-0.04266779192049622,-0.06641988633375905,0.15687317529885836,-0.08872054875597302,-0.331448205352217,-0.8697516603012566,0.7300449092956157,0.12297212025333366,-0.844821039708193,0.4084688446055266,0.10012769994812043,0.5341567382755128,0.142293300279818,0.13817671556982328,-0.22779162937230105,0.5443438298285508,0.43149977060935907,-1.1411536288708828,-0.05911831390810965,0.3960852714107568,0.19808696095137135,1.398722970285412,-0.08095853669637251,0.35145263749476807,-0.5474033715016785,-0.2489825142329754,-0.14202048929908978,0.1100152994023691,-0.2210676040177071,0.011909150693493693,-0.6060480031421829,0.6076953697336949,-0.12200928742412015,-0.2963409717690078,0.03352697931916587,0.2779377901074672,-0.013827757457913883,0.18563778767638373,-0.44331917717552954,-0.9450284805527956,0.010834133591618583,0.44320945948419926,-2.002987711584111
159.25355529785156,1.04888916015625,-1.827147451343625,-0.4051657597776671,0.4391407506110532,0.8363244585534337,0.7444194477119024,-0.09086615857358793,0.6562195264503686,0.38495458677272054,-0.05362149569829827,-0.18661092013989686,6.413053865533623,-0.16196241849893872,-0.12732313092019734,-0.0276533064684253,-0.06480642146078774,0.06480115891627505,0.03255687053855619,0.014361306292139248,-0.07220846494925026,-0.002456915519259879,-0.011797396337979646,0.04159731797215642,0.029126421735435552,-0.022899036588412483,-0.10002110915684989,-0.055287231407813366,0.05214582154077248,-0.008755145693626558,-0.06791258197558823,0.07679033168236224,-0.0207329696209676,-0.08483998748658132,-0.019497703838405475,0.04331099831810275,-0.0528982521982354,0.015804741398010712,0.014025115770038154,-0.03591666428215796,0.18476542437680835,-0.08946958168812326,-0.3831563883706767,-0.03456654554135016,0.07252464810909157,-0.16644029911886693,0.19598621037493838,0.18193024451272471,-0.04738430964661089,-0.05990970332368236,-0.05603762710597136,0.1338668171549882,-0.19898137988607364,-0.01195528535817185,-0.018187287228639562,-0.055862973735895764,-0.19213382873707996,-0.11772872475949656,0.04244224792201125,-0.016781893329537088,-0.027076696341033945,-0.020892042574279384,-0.11986190841541992,0.1087044384148192,-0.7247229347172975,0.17775563092334307,0.26917648681857764,-0.15769758392302152,-0.32651056483285434,-0.46908391056671905,-0.03868904109721072,0.20382676439570901,0.1107845591048037,-0.832174637499021,0.6684911946556802,0.26201500488115415,-0.182315081627966,0.7889370814008789,-1.1828407607322728,0.534446347379235,0.3171747632056411,0.25094345750450964,0.17323887038727742,-0.12707815085790727,-0.025942989092277685,-0.04478306207653181,0.23022505090880283,-0.4006511522831103,0.7445333319390409,-0.18279065312664367,0.3443633552326925,0.2472440924148762,-0.04493938028453338,-0.8295808067729243,-0.16749472365366375,1.188932070485116,-0.055251124911168084,-0.10103133789402903,-0.3542186966915937,0.20444307150027366,0.03345627621015108,2.2074867738684225
160.3024444580078,1.0388031005859375,2.8623143344479676,-1.060483273789937,0.12447881777109865,-1.3614021211335139,-1.4973430954897207,0.5378936586246628,-1.3166133217022797,-0.6386595832551072,-0.026898009873365825,-1.0787940117301846,0.15364311305097236,0.20004335761242922,-0.029598190448813032,-0.07871981383633976,0.007933670910485907,0.016018319503242482,-0.030610330586281848,-0.05368247380098262,-0.04135498297476038,0.05641868461964604,-0.05067355362489684,0.36029692921717027,-0.11028290399348317,0.13210570554324766,-0.05015776740785257,-0.04013053163225469,0.058375270237589934,0.06679196743414119,-0.08401223828929633,0.007298933066339351,-0.016032503127445457,-0.022882413580332665,0.06143040915864553,0.03595012857302288,0.048811134710900164,0.24813805560218724,0.11816125348064557,-0.09753411099452362,0.05416589923033839,0.3507759344663972,0.03515303913660012,0.0019680098965537875,-0.30895158180507215,0.16781164409980773,-0.15734282157909388,-0.07214128623526687,0.0465049525609156,-0.23583375728686082,0.06173485492720248,0.2720580014647341,0.01708576610970824,0.013977619298103375,-0.09575943087097015,0.04370273949447929,0.07188892799119782,-0.002899607994296031,0.040465023709790736,0.0007959348647114811,0.07111997381233652,0.0666859506576295,0.04741193024406704,0.7174203494541981,-0.2389312887612658,-0.07315721375947326,0.18114132939122812,0.3667741190243226,-0.4044763959066522,-0.19159977525899152,0.15526509730777846,0.12876905030500613,0.22944067317615952,0.13012355753424112,0.07602629589793145,-0.09326801184247549,0.3729852939397171,0.1151879049261192,0.0956774985972884,-0.29358132279430404,0.07132479098708727,-0.30718837630512574,0.36583588967176806,-0.33537086804024036,-0.24821285160490006,0.1876060972763616,-0.3992976929382725,0.4121916797202403,-0.44684280483134725,-0.7016395967102812,0.785607827156144,0.44552888678297525,1.1207672284476073,0.3606687582010819,-0.8300150850746874,0.21768469127834095,0.7259154293099875,-0.14881332816297976,-0.21654607370245424,-0.6156974456748306,-0.4907703494279781,-2.259737913783413
164.53744506835938,1.0485992431640625,0.4933277137151433,0.497344663732465,-0.038337909146583055,-0.018498444378147915,0.6153599625668128,0.7030724519516541,-0.409296337043769,-0.35172174986359994,0.2997704892985147,-1.743870334343423,-1.6439564143858332,-0.8329315565529894,-0.005331285498724719,0.11197332096503232,-0.18493078531800564,0.04190576655092504,-0.033418417445035854,0.019677179410935716,-0.008698188151690206,-0.012888991433435826,0.09073466163712958,0.011762173169523832,0.16958239997176042,-0.49076615743348606,-0.5780742634004798,0.3548175873937604,-0.09849197106698315,0.06461358943082533,0.0025131500117196786,-0.10007297135879564,-0.06447149077640259,0.09024517654872596,0.026566984739205945,-0.09647910315790004,-0.10302205132634096,-0.050371654241698156,0.017876637648327025,0.042676279943581676,-0.0032341438489083465,0.04899841592173687,-0.008477745343804716,0.27974082280730966,0.046335829378134505,0.07293681062338121,0.0429011851116423,-0.31910885893958,0.07861980185758397,0.3707491606255716,-0.23455408033639175,-0.1295811215410003,-0.3165138172321175,-0.07303770657182931,0.0014077786065565976,-0.07733389114880618,-0.05374785298281515,0.028482218075761886,0.005464590297443326,0.022055814989138264,-0.036681220687692584,-0.001145092056485168,0.10424068056179038,-0.31890813145772196,-0.03707425902313976,-0.009457022792094094,0.48111223688913785,-0.012361945288853631,0.20469866730921799,-0.278260535631052,-0.1089875390242378,-0.10779389565467073,-0.5050278103427882,0.1518399545689255,0.21586423438028465,0.003999560191436248,-0.07499366017872433,0.05069531607805474,0.7224674406496472,-0.2793849619394308,-0.1482050773684284,-0.6368065347122421,-0.2790638177153353,-0.050428530587523765,-0.2788762276486101,-0.2135191050304336,0.008599023015795723,-0.06184881506716482,0.5196586395609345,0.8624214193264095,0.7228357589723043,0.10227904593186021,-0.49064942378645143,-0.4626942028947785,-0.10617720071121725,-0.06395591534518162,-0.23995127824293638,-0.07894156416645111,0.13822232785657346,-0.22931963209103412,-1.716157206120973,1.1655521751662656
165.58604431152344,1.0893096923828125,0.9296244703714585,-0.07484360885387425,-0.42190795162355227,0.3324203139255971,1.3810656860409032,-1.4544026438874915,-0.4375966921063298,0.18948248551870267,0.4477023458300165,-1.104158323120221,-0.8275591646751806,0.9398895367041525,0.29832072314372815,-0.14713925830156782,-0.02284806910041787,0.004126472560166282,-0.04363130600893149,0.07715122476275886,0.06532862488913095,0.006182132075568461,-0.03845361680129,0.021582806424693946,0.045678697163739186,0.11350587159755031,0.010786037895246374,0.33893494249221406,0.014908011376979263,-0.12428248932195429,-0.003296283484755894,-0.06965168804570351,-0.08780988467952552,-0.02496854340042014,-0.09382107856484576,0.13781514173465997,0.051793669361145336,-0.03765517824545374,0.06919472926717145,-0.06636062146740358,-0.014182894939609628,0.1168387752200368,0.05965948546535952,-0.2003473982443217,0.027553940328338633,-0.1850623570885568,0.0419110677771494,-0.07644267000747518,-0.13900479488639886,0.4742351387984639,-0.02798315237921114,-0.08519590094378139,0.08957709291914043,-0.018396586280022952,-0.4959968540323464,-0.1062422033409243,0.09882431313619998,-0.006027912967213394,0.019952287409819535,0.05884156822895959,-0.0004563303952059908,-0.010429686106813954,0.0909025601689121,-0.025364788814749843,-0.8110228920015458,-0.09516164186540825,0.2339615906235604,0.12499125597237537,0.16737042114595393,0.06834314975610017,-0.34106160167379,0.7768950534876266,0.22905281681177175,-0.762039695982311,-0.6071084837898787,-0.5583321777048421,0.2650754674228845,-1.357877492760072,0.13804155119923792,-0.047647567835267836,0.362504726314043,0.9693098396138395,-0.4187932298086388,0.33798432269874573,-0.16582049575153907,0.07807774380459481,-0.04176656798185159,-0.5726003912933216,-0.28569384505128714,-0.4582281916553804,0.0668844800826403,-0.42166017875129513,-0.69329858486579,-0.7353089440260038,0.029395102304627926,-0.655189884406048,0.052403623343810685,-0.18680491207904337,0.014724833367170218,0.25723871287799516,-0.27457857419257614,0.234250921946553
166.67535400390625,1.11859130859375,0.3932799094862638,-1.012537876824706,-0.5938234580078238,-0.5678004018567467,-1.2235240804103145,3.2156832344591684,0.8867806376825874,0.002408943416845343,-0.20179619747752708,0.0819967153942871,2.269556533510372,-0.19405663281848945,0.015703329975020327,0.012212561166350564,0.04446272116162574,0.08545815733115304,-0.010171476393439885,-0.051383395860596946,-0.12485813500151123,0.020887951569256772,-0.038378077207298626,-0.12857282958445215,0.012239191335032516,0.04061797949597831,0.0011955686376031466,0.02431989347919305,-0.038432320886516394,0.03504333938330177,0.00881002659099761,0.0642065470521154,0.04142424529797938,0.020159821103532,0.001049190118775743,-0.03586877935504447,-0.07337592234109128,0.05064366230615801,-0.06679446332306087,-0.013789740639205527,0.1479281569924584,-0.005804203032472512,-0.09865795875813271,-0.09944786979294183,0.20991417201643656,-0.1751618704805862,0.04414250825780776,0.4122421554041214,0.07903076817591152,0.13890955363037324,0.1089561295796693,-0.03515369683125043,-0.27107734976813846,-0.17714985291839647,0.6015577866564071,-0.07748087519194273,-0.3451800673790932,-0.1966613549042201,-0.04821111608979691,-0.13307686459602075,0.0018894155258298853,0.0016650752949287366,0.07954799985890292,0.06418798391251362,-0.023290466942949103,-0.14630771552645283,0.12839208835189495,-0.27996633648973956,0.2977662703260442,-0.30954009953285333,-0.024555712671561113,-0.381822724949617,-0.4204983463758169,0.03305394550674151,0.05276384516368414,0.33758883652663113,-0.10638661655907548,0.7874559891033802,0.11599041747314176,-0.3231337796680641,0.06973757103205783,1.0000292978460066,-0.2671516519305351,-0.07029269097559157,0.22075391793184712,0.11925235601084061,1.0683387195432459,0.3532396200080248,-0.8250254341155471,-1.5339512789643974,-1.0028510373929516,-1.0375714888071914,-0.12997047011436846,0.15084122760395569,0.0985699004589059,0.35977788934274474,0.7353009079101048,-0.5218822198814436,0.3245418806416044,1.4810723610040009,-0.10674995192255629,0.7841517447603364
167.7939453125,2.2971038818359375,0.9356611947732673,1.477005795609129,1.4686518243484887,2.0684551315800896,0.42139189590555487,-0.20826550778833408,-0.6159566982871351,0.18757694952085857,0.4910834968045576,-0.11759646821206049,-2.4249955127885414,0.5369945192135344,0.2620038424982111,-0.0378525790758026,0.04154504175688134,-0.08332647190675323,-0.06845306680139862,0.014956492507159913,0.0006160575799868989,-0.03276246704888189,-0.008195711312427004,0.06332932471047592,0.06969955985827035,0.03755886316352376,-0.052255410943727196,-0.00521486280150506,-0.14078047762286494,-0.09414432131632437,-0.051793273616045195,-0.009759365515323963,0.02415325071691106,-0.024166345221935122,-0.07596702098667855,0.009424341534222096,-0.017741829445471122,0.03791771582213848,0.10159625951104928,0.19036444498106264,0.038005772257669115,-0.16759583036658401,-0.058210917195055244,-0.052705867415911864,-0.23339372848941786,0.15246881270152793,0.058890264573310154,0.09081019180973783,0.1121336996208892,-0.13962400734116487,0.022576449413850255,0.017765867148333753,0.14478651565468156,-0.25578724594903324,0.043419565289395785,-0.011159165531761696,-0.05575875139178973,0.021370084679633063,-0.04960562148968533,-0.06914179369674843,0.2845814564868545,0.16864362389360676,-0.004313303113288855,0.08948305391091083,0.0029281966227711433,0.14170236421140622,1.4585831616354799,0.04010175598109471,0.402155190549661,0.1303195317231427,-0.020169603001944703,-0.21921245968397127,-0.021079827334756995,-0.48105881602341316,-0.18160995166279437,-0.16822051656577264,-0.20409431113555498,-0.7412262597420902,0.20211108402765915,-0.2474109659175697,0.865864541636225,1.13676989315815,-0.5235842796603634,-0.04017608397647087,0.03009495488613613,0.03112067720857104,0.17349910525914453,0.2196981766817994,-0.012004433499859045,0.15338387033580086,0.0598460707541496,-0.14142758547652257,0.1951183182580769,-0.09477405584634843,-0.72809338622455,-0.5522888083016637,-0.9709116367769376,-0.2775082272204316,-0.6870529516912247,-1.6189436415527587,0.7659249757677629,-0.1336913981676237
172.18905639648438,1.068389892578125,-0.22586229907021615,1.0005371926611342,-1.3957538321206562,-0.27221313082487897,1.369441418834538,0.3585448017593575,0.6095180924142387,-0.2515074124735974,0.4009737104189967,-1.5220334461353517,-2.293395177832601,-0.5392214659716119,-0.20891244684821372,-0.40091155627953745,0.2172775739396123,0.011593322335723605,0.022226193008951307,0.1046542977393287,-0.22233960119974241,-0.05664092146434375,0.003157099626685691,-0.024895240856686998,0.04946765254408318,0.00025269469590247565,-0.028921856258990172,-0.03177071480754804,-0.00599459127678402,0.032708668079777264,0.007950989322163125,-0.00410598656303035,-0.03644088014609016,0.0699595610163187,-0.15524283915361353,0.061087060572935406,0.03923737410513262,0.08536140043308171,0.14057070604712352,-0.17209554159513085,0.006198268602212513,-0.14773265982633516,-0.007670554556141039,-0.19367070994843713,-0.05693836122527986,-0.448899419222218,-0.03979061514973765,-0.30921926707473213,0.08749679942172017,0.4997327601089396,0.1066331073130625,0.023571602885378976,0.09134957889389363,-0.041400682358382616,-0.08701738794959797,0.06605197094081838,-0.012899580647409634,0.048060189111641005,0.036169441863600715,0.039133384929454826,-0.03920948866486129,-0.4109331305362924,-0.09886053660235969,-0.18717461242737032,0.4305092229167383,0.5325231361341697,-0.14514612016763717,-0.09766379000247584,-0.03956134141892742,-0.11920655969804941,0.1767835111664855,0.09837984304829918,0.2056611687984088,0.1379230093717914,0.08648755047975089,-0.5111849664641999,-0.14398359362416638,0.9089987293296554,0.20626235734628365,-0.024557942039764163,-0.773346083465439,-0.5233349348568964,0.7976383768716839,-0.623821588427386,0.040167973611033594,0.21514005271218756,0.4231806020652538,0.006449175558144497,-0.749662406915456,-0.36850739272331673,0.618096326598136,-0.4212469786217162,-0.18718675734304763,1.4708098210435918,-0.6695277778134381,0.4231922609666724,-0.3057103507217549,-0.22289513271825553,-0.8790125958847192,1.644289493521442,-0.09959683917277534,0.5602668494158916
173.2574462890625,1.07940673828125,0.6098625615545625,0.2516914414792776,0.14641516371570978,-0.3076664290249091,-0.9402916816322185,-5.590192422945678,0.8519529574533501,0.7567047262526231,0.05047893523282394,-0.4408029424054199,0.09958991045721503,-0.4602715029446789,0.17588665248680083,-0.031231212860913085,0.07375187937910208,-0.04952553921692396,0.08580275438205945,0.009324337123428752,-0.0828634269244996,-0.00664123237822907,0.03272796914469754,0.05384512356319584,-0.019168826707495357,0.015227737011455831,0.05173455779521493,0.09713472587808641,-0.02068334291661637,0.012047135691190543,-0.01039424900176074,0.04375554902207221,0.00018439640323666495,0.05171174162035598,-0.03354177677698351,-0.08612124613595637,0.09954457748105046,0.03717879778592084,0.04457006591867742,0.08185239051279408,0.06662090431970442,-0.032484598350092694,-0.5722951717097796,0.21570469858493713,0.27603978529406986,-0.2196223329204046,-0.07078049838687887,0.3630500641841108,-0.2687905830401869,-0.22389612240727608,0.33135811927544134,-0.1733233277855918,-0.009952080306914449,0.07023128341268323,-0.057036386861075934,0.2964533014549073,0.042650406150808125,-0.20155365505515976,0.02760939647211277,0.09039613796804058,-0.12097542204581271,-0.23491327352319494,-0.44134728245401306,0.5938481043184674,-0.07529372661535691,0.18143563925125927,-0.7868274246029082,-0.34928293120086484,0.08774498421882142,-0.08433296335585157,0.22013479094374494,0.22785217802777924,-0.12333170492009426,0.12092077370204077,0.21865280006573237,-0.013796673251210714,0.1610246430891222,0.16780906855091662,-0.10379714044925,0.039483500351197826,0.5372151311538967,-0.6320695310283653,-0.955572622864035,0.3993715443957955,-0.1301710529260659,-0.3073738457537962,-0.1716590876442389,0.2262723953678835,-0.3417383643604063,-0.4356217953760526,-0.011774811345341349,0.4294868007332211,-0.8100716171436795,0.2950321308609495,-0.12856973284694084,-0.3011052628816719,0.22823028745412882,0.34758121563527977,-0.24852221282465703,-0.399954095295714,0.2326004246044092,-1.3792210160821556
174.33685302734375,1.10870361328125,-1.2094427178053375,0.5536271395094398,0.7611709857862682,0.2800613221977691,-1.1300464446373435,-0.5924783827044988,-1.042279173629004,-1.3511789175064874,-0.07005271797114832,-0.01361204912787771,0.39946942508542554,0.49358705853779394,0.04794520891276425,0.06228459306095646,-0.022004635021595054,0.026461176381849257,0.05253845589834949,0.02127848354655581,-0.003612780581353502,0.08773679515452709,0.006886815475553382,-0.0020585374373495143,0.011126622706557883,0.0018041426544648592,0.0013084009759055755,-0.037409598649097715,-0.015269532015305511,0.009901040641372594,-0.04994562499157847,-0.01697936680810343,-0.006747136669215116,0.0871840801325845,0.023984517096839027,0.1085407147828482,0.05834767598001413,0.09518202161678682,-0.29526424785650157,-0.2921150564758654,0.0018714670495946614,0.013953393976537878,-0.013437780375226333,-0.2364445793319286,0.3049175863559421,0.6213658831048979,0.07409998679894919,-0.01309387929088705,0.1496757468114389,-0.04295927840111619,0.12700916773875648,-0.3209863125054347,0.03884058806250988,0.11217741437267151,0.18589844488862634,0.1320936190398049,-0.16967330871401726,0.024391524524790677,-0.08492677618243333,-0.05383911808964772,-0.07984370160602913,-0.36022844987928415,0.3959381705874086,-0.3331779644796871,-0.19480075568225722,0.08207650814624846,-0.06065986012359968,0.1658735744119472,0.023287447170365266,0.03613226018832068,0.34920023184088556,0.1346445610179851,0.05012334683779235,0.5774493437399661,-0.19859519467799852,-0.2957596484606829,-0.18590015133246662,0.2609152451025867,0.17189754012018207,0.06583260617777081,0.33287754850713275,0.10031886550608086,0.1782384391190761,-0.47764237210601423,0.7548838343494556,0.02871784849320267,-0.24118617939178913,0.3245304193219639,0.5424182689077295,-1.0975033964644325,-0.24946668261212704,0.3121482427104652,1.2921500325409627,-0.5592051548452855,0.0025215672725448085,-1.9127276205463777,-1.1164318683151677,0.44591940974775734,0.16060226033476976,-2.0478344310069723,1.068021629405685,-0.40821812947917
178.8614501953125,1.0691986083984375,0.21223523567298785,-2.2771353292886145,-0.11201002904652699,-0.1853638414237752,-4.462637137878262,-0.6820201391428058,0.1770366414634088,-0.21607695255947745,-0.7697364053459662,0.26478533545961347,-0.49210610587679393,0.17301934103992625,-0.09327770654984874,0.12209189222759778,0.09954895895743061,-0.04411445994097141,0.044506939551469345,-0.05363203251411275,0.010927733085703498,0.08152042244587017,0.008210027188164888,-0.10015579243185956,-0.027034168324328228,0.07691495130888874,0.012805394320562855,0.028000270514367584,0.16659149967275416,0.061139732355001,-0.08352872997862729,-0.030145868991694087,-0.041503243709741226,-0.03931002447965858,-0.11185598555340646,0.009762326857534795,0.07928494070582881,0.025574623320921298,0.01029975779888249,0.05210232745355997,-0.005076611338968465,-0.07459582550861646,0.2846331747542216,-0.18272206352828546,-0.03462523337323406,0.11565887045102327,-0.35696566964983584,-0.2464778367490567,0.07544280406345147,-0.44021419334438766,-0.20452099523816777,0.46245967371969093,-0.06690364245558604,-0.36591556338820264,-0.21623379405313375,-0.05805022688869884,0.08671268034438698,0.10128263713156313,-0.046918270829838404,0.09287987232904828,-0.03212479007018093,-0.009879931665076025,0.1990729518579115,0.06699375516575484,-0.6313790822250844,0.5003178505574332,0.15677964509246545,-0.20116850898859284,0.5051408212707353,-0.3664084949268239,-0.614762307516714,0.3799408239790701,-0.07420619000560114,0.3490658478287174,0.2573645925081764,-0.24811801703000683,0.35247303826603843,-0.16071058470204921,-0.4185762175057422,0.09071164154833924,0.7319294707337691,0.3157615262142052,0.3331681159464512,0.16790192925853417,-0.3706523449712447,-0.18340789874039878,-0.2116351901388111,-0.2521186282052221,-0.15714489905462917,-0.3536037378404307,0.4851493216168338,0.3392060832720855,0.10354985436552246,0.5360605113854469,0.22002253162979193,0.24154651337715638,-0.0654208131543498,-0.5500272347674041,-0.33972522169140146,-1.615842066076182,0.3396752556998,0.12546764778977326
179.93064880371094,1.0785980224609375,0.44107846105648096,-1.2840255308989548,-0.8927699621131296,-0.4370985809286713,-2.285965719388974,0.039868740490162397,0.18835639401671087,0.05610585139965696,-0.31910950328032633,-1.144646034399164,-0.11977001296705285,0.6620937564065043,0.18116251336242165,-0.13170083712347339,-0.0009399308421465411,0.02332316724552551,0.019291301825386263,0.03526624346051212,0.011897226183638795,0.09378879053490181,0.012510594642817993,0.03789466060441646,-0.04951146982827716,-0.006610487019380687,0.03112522379309578,-0.049267579932102075,0.021927780701200834,-0.013942084786062087,-0.035166992363362216,0.021754987707093595,-0.007671919694989381,-0.0027976693850402493,0.07053605168284918,0.008842896151943079,0.03439952745871798,-0.05615948547184299,0.02426307557445695,-0.08538123962275161,-0.021424797210226512,0.23086931117965195,-0.09852141601065961,0.024273872100028987,0.07293779791789884,-0.3555232451771373,0.06403348410774785,-0.18358693236109105,-0.20982021487965175,-0.18498365762121668,0.14940593178991723,-0.03103288484023861,-0.01783900946573483,0.021504553065711376,-0.014774893009178988,-0.1191669047601171,-0.025284762840584694,-0.045954967996810564,-0.009037087570454317,-0.012660029852170882,-0.02512776584386901,-0.15046731864373752,0.2345933405652024,-0.282298603976257,-0.19890604926015448,-0.3084570791140687,-0.3416514479209913,0.186327026699049,0.19541228797134563,-0.25481870606279616,-0.0258676774309705,-0.06323943567749056,-0.3227550633542572,0.2952291588682479,0.13980510670230253,-0.11215762706660878,-0.07470840948638933,-0.11367821075708821,-0.07564387581914027,-0.02922928122013834,0.3533932271217027,-0.03294553042186362,0.12673361370571137,-0.03524043480829965,0.18555088959996255,-0.050919886918622856,0.3308543751246924,0.043460444157999496,-0.0840468609779256,0.45871261540843755,0.23123307060759768,0.35958593290711244,0.14062497924596892,0.2757135058634455,-0.2987700457909182,-0.18688262804977512,0.5186350585598755,-0.20744357684144193,0.4931214365314373,0.3782001605791797,-0.22012351930609525,-0.38869194152002123
181.00924682617188,1.168609619140625,-0.15641114583381874,-0.44494811066202733,0.5135288462426869,0.4325923792968813,-0.4697344821221223,1.7280636470887594,0.5704734782690515,-0.1616399357564694,0.12984373841349084,0.7587547612091863,1.4511165251502507,0.06167666831245436,0.034315115075634256,0.01033680131422042,-0.00899343774613954,0.009587608851424087,0.02513551526110573,0.010529816346401343,0.0014892755438005167,0.03444878396791582,-0.011512468668220284,0.04110490683852029,-0.01154528070807323,0.037119604913066116,0.02527050610770745,0.10468773245468202,0.06221296277246751,0.0006488035515988609,-0.027565521985547604,0.032241102176620566,-0.04394844165715325,-0.023867784817972384,-0.019728901372742205,-0.03924207489015781,0.03836234168382246,0.06344242787486203,-0.18199073854657286,-0.06592726120950503,0.011880976263506374,0.28054158197416623,-0.03213022380461906,0.07666069856417887,-0.0040951838735798635,-0.1367473026045129,-0.11326301920073646,0.05914196580072796,0.0643098354749147,-0.15710526691442203,0.19011171488752587,0.010643593547068484,0.22781921343856826,-0.05411292821016179,-0.09514476490964177,0.010013889475197133,-0.008147872760545592,0.1368904825165051,0.2479632672397921,-0.05658586280710363,-0.06845964763428242,0.006647314626491624,-0.26441710707863725,0.27586003411040555,-0.015660500215201406,0.2182488159418579,0.29945091105272226,0.11246463081476357,-0.3798997009620805,-0.25291631479330523,0.050584426602249766,0.12118946318581766,0.6576148426786523,-0.3560380784672797,-0.16815752999322178,0.011458593493881673,0.26958091602895384,-0.21504748926079184,0.125022058671254,-0.13821504211855196,-0.3734313556099846,-0.20477434461594207,0.5940117442732713,-0.5119371872885746,0.2659559577141029,-0.4174156012876936,-0.04723756234927713,0.6735458796208238,-0.4838848320412818,-0.24722106285890982,0.8147307297276298,0.09050191208382771,-0.07308035981927415,0.3130620386265076,-0.17507614149350803,-0.11776760180794482,-0.5509728688905645,-0.2851384523161386,-0.022659909267795278,-0.0037339842249644404,0.2410983726509348,0.07750082857024122
182.1778564453125,1.3485870361328125,0.04323503055530334,1.1468268359566456,-0.34883946427238005,-0.5519749717113308,0.8877147368662652,0.7364255840846359,-0.9445674216311687,2.073945970030231,0.4476096412769686,0.2420792424597054,0.9794069219710552,-0.05014797495954759,-0.02262432753211754,-0.06304701593076792,0.026167831015533712,-0.0034131180057038624,0.0010463858809146665,0.10190441541846532,-0.04477729867974034,-0.029649347658454443,0.05705313569791938,0.03400828984544613,0.00880543597929502,-0.01834877759876141,0.012277062776932279,0.005918346963601874,0.008060980696751575,0.02104247211990879,0.009907605024672889,0.039501487397877615,0.00721877096577794,-0.005890794960743766,0.03742828321480951,0.043076275617840866,-0.07993004903568839,-0.037845733125709054,-0.043225714537934584,0.0751606188212027,-0.15060047625728354,0.055501911309835755,0.20658479196843973,0.013101521228026283,-0.023440035357766974,0.020258476423218624,0.06978736741522304,0.07296016862367276,-0.3359710476973363,-0.039409355446517406,-0.04565271671306033,0.02179541290404268,0.08262537978221224,0.02226092846825018,-0.039440687993961714,-0.022730723655520854,0.09082429462861137,0.08049376501602466,0.0006546759892216729,0.0642381349455905,0.11390793485590102,0.4387184477947309,0.4296141558015695,-0.09593690527520818,0.09972310421230202,-0.03082097712059936,-0.29002134689906006,-0.208858586837351,-0.48882926866731463,-0.087508129484943,0.7335388342046585,0.601776776874995,-0.38032507895099826,0.2500656082762578,-0.018125821995608776,-0.7080910562492603,0.441458871736198,0.8605274476296663,-0.21557806036101604,0.05435784949958739,-0.3136724907330918,0.3066088103721933,-0.18613033555383007,0.14731060123244602,0.23806583747119064,-0.4825385604426411,1.440248054946997,0.4656822730970473,-0.0023845557418292994,-0.4800218661932636,0.8182834107222638,0.480512183733215,0.10221670089010429,0.2170976452624707,-0.5223944492526172,0.2085484530355486,0.17744832984659406,0.3080652039491613,-0.25479391212782404,1.6748850963938762,0.12034218429067402,-1.0095242739642738
186.9226531982422,1.05889892578125,-1.881262621584828,0.7255488642415506,3.6246204128752275,0.9143665136553625,-2.1658139801740877,0.2410030963348194,-0.4317239131674205,1.084235208417171,0.6667565883234057,2.9579004986534625,-1.1737035175402935,0.2773808279518006,-0.1891632994202928,0.01971250879897888,-0.40181577485165165,-0.28507002692660705,0.013182588849684443,-0.024787522388531758,-0.01623215627950957,-0.015906779222885817,0.051768562493134586,0.0024934909773978243,-0.11711831299586403,-0.004841354388119935,-0.022467957968455576,0.044090521140641714,0.06591090311739371,-0.29003841005762493,0.007459795453271245,-0.009086870849509529,-0.011502654958001889,-0.022530749899910107,0.0013453247121643648,-0.010329542655621622,-0.03462715642921724,-0.013339866360820211,-0.013502466440840681,-0.1393557663255461,0.042560756408057204,-0.08462203101866297,-0.40448855758008423,-0.01871959032060483,0.29828403693685873,-0.07243758746238486,0.10625643774728917,0.2649605584677951,-0.15997229560917114,0.32712469550219037,-0.15798096974125544,0.18526048157074781,-0.10313791300786777,-0.24939291612669415,0.1973951202178701,-0.09575045145492923,-0.2445149145974339,0.03594035558571547,0.0540666515712806,0.09921800001252028,0.05382965805533503,-0.00696945181847545,-0.11736992309280704,0.14168015942184692,0.5373233466517153,0.11212484898076436,-0.12165756972046095,0.09202186460445437,-0.19731156058156085,-0.3392097346187599,-0.248962155336362,0.14916156855294058,0.17766433643402965,0.018289956059213436,0.21571639918704053,-0.3371579887550429,0.10545515413008694,-0.624531913618178,0.7514011270700769,1.1221249120316712,-0.28235866105315927,-0.06941550815428611,-0.5108732971443547,-0.7942589136729211,-0.4111053870645325,-0.10788933263387693,0.2642150219931559,-0.7651430413575775,0.0047962639329357515,1.6337523365666429,0.06289850581607426,-0.0800772012443487,0.2654156615994202,0.08705024066513471,0.6005045019239602,0.35393465967233656,-0.15614773800161547,0.07335105631734572,0.0496907289106957,-0.22483855629638028,-0.8237578370792578,0.779424332122335
187.98155212402344,1.09869384765625,0.6795628924032909,0.9999681348059177,-0.11557754367810547,-0.17347524781471046,-0.8676958650019987,0.6626462667641784,1.7028744293164761,0.20992980075134912,-0.3289261253311093,0.7411937644295872,-0.9564240814956237,-0.4296041826056951,0.03815194789905513,0.07629188355695501,0.05063594664076429,-0.04490822716582869,-0.025556977050588316,-0.03318602128754659,0.027466091655048826,-0.05213577574537062,-0.015405577712411508,-0.009755697491673947,0.017895549580432605,0.008338067120438632,0.031450204176499394,0.0071952346154439,0.058255805850108644,-0.17219865697570808,-0.039902010906095624,-0.11249338436440395,0.05706305107363309,0.13384122696034764,-0.052658589316595845,0.02214615753201317,0.05331558462244117,-0.06957917310322649,0.04500238216280562,-0.01911272921521813,-0.017407040462389535,0.012718850834217407,0.01603849756981035,-0.009909480520421662,-0.3733320820072371,0.02772000899337826,0.22914914650061055,-0.23943257431464762,-0.1952955992288268,-0.4984486456426603,0.3782605414988407,-0.22068732318497264,-0.016263750027628164,0.015402066381009901,0.2588756749222202,-0.07568933877529462,-0.03708171250813213,0.09983529657789392,0.033281071732708264,-0.16194541915120375,-0.09314217101465008,-0.0676150064194431,0.031151248380642725,0.11620650684348807,-0.2663557099555049,0.149505278692303,-0.2340367963025159,0.25253700827253867,-0.10002381386349948,-0.5811840256967062,-0.29315657769563297,0.4133842442721695,-0.3722311333481914,0.17684006564323837,0.3197379514559967,-0.09674286578720609,0.32950879426210555,-0.051720760157545634,0.5252318507654297,-0.3357405501721589,-0.29884334028699644,0.6701111190175353,-0.04017529766976818,-0.03226681616106458,-0.570647193747689,0.02441932344790694,0.11151435381655012,-0.032473670825891116,-0.00886612965844319,-0.33555509099714764,0.4217367791315181,0.24878450280420955,-0.3503546333251481,0.2560414838936454,-0.9538301065365576,-1.0774904516598378,-0.060537276530230125,0.09284959350264539,0.07578482429085136,-0.1695001541999669,-0.11848625560732103,1.0052261787237717
189.0802459716797,2.037811279296875,0.586590586771243,-0.20317623375159272,1.4218272161129861,1.2980006179008408,3.1008492919792334,0.20414218161036501,0.6088916712732253,0.7499752313334559,-0.6364267549808231,-1.3242950826824818,-0.10411640981007875,-0.6263336345498091,0.0743689811553791,-0.007190678909161036,-0.025902053404059686,-0.11634870342676745,-0.09674755182356988,0.01920309637184416,-0.035202445446600075,-0.030776532038193697,0.02288001186706309,-0.062157212177848246,-0.004940687941064878,0.06449869671135615,-0.046327546910122856,0.003634122809743993,0.01617272756545897,-0.0037618069274587707,0.027580407972480375,-0.04722638374605515,0.05185954031614358,0.04556808972261405,-0.010300624981850675,0.06615346450468107,-0.010078555477458546,0.039015122288374005,0.13325710376347913,-0.0288895290131874,0.16394128898144728,0.2906895824381041,0.38291596701693653,-0.0920706062651501,-0.024659953240137547,-0.06260142160093694,-0.10913419230293017,-0.2766334692383695,-0.23556423055101908,-0.3105150574704121,0.22486555639471054,0.2914123983022356,-0.023472111440332084,0.07530846447339279,0.10442158703041397,0.004624699280606278,-0.018666857351352165,-0.04271311418266971,-0.03093154659511778,-0.005178404150452808,0.054344216585818964,0.06847974913929207,0.022955310148255137,0.726272972885063,0.1375490825362418,0.2621136109452724,0.19830663882149438,-0.304981091637811,0.13617711184358944,0.13494733466684106,-0.03526326751630804,-0.07068592103781889,-0.5568060737248595,0.5889327167276653,-0.5640816535049884,-0.04113267553337954,0.11265389209816758,-0.2982065967348906,0.7101597318753625,0.18921628484414826,-0.36891344960238637,0.11152061689556861,-0.6180576238715721,0.47623124558307217,0.4512187141631714,-0.6532752188255241,0.11887118594274172,-0.16983430954559972,-0.4267706548999225,-0.40054562083161194,0.4722892195953934,0.0648514518361949,-0.5005251408237692,0.21347732778193926,-0.170318426415493,0.28028439581882636,-0.3806554030013311,-0.19736517891309896,-0.002749022733583878,-0.3460421229882704,1.4755186161855276,0.7991269868745403
193.25575256347656,1.058990478515625,-0.7315707855544502,-0.301412256191678,1.068251595062021,1.2183151858891506,-0.9600477305785048,-0.8644898318437043,-0.06513284478246707,1.5327757813846707,1.1284759972878744,0.3629530136823813,0.016234341361922137,0.5742944730908855,0.02677854073058389,-0.028295977768708243,-0.12745779191899018,0.01710294567952625,-0.031156216054644102,-0.0387692918870363,0.060921686861475144,-0.017971586525782964,-0.06404895274908452,0.024830927951814546,0.020694156003583153,0.006845849416427285,-0.028093186473227918,-0.06261918699959489,0.007470357021969034,0.09452641367214842,-0.04059719751475909,0.056056310461604274,0.06273956164151066,-0.047485718941626856,-0.04029524119816623,0.07557699251136592,0.13139196308288967,0.05816111329001833,0.038958137516754865,-0.024726683445578143,-0.2478312067239931,-0.16170301943912904,0.0011729043565577024,-0.13299869691436064,0.14087378417505028,0.26387212989943115,0.21954209641290853,-0.363257430369101,0.3376028025919876,-0.01880438024337488,0.08773196063470735,-0.15823595629035056,-0.020983381349280662,0.03874676883680484,0.17127278177511412,0.10566285048817367,0.10329283595945983,0.06991161408820455,-0.02038697256378431,-0.0076119817105793994,-0.10746669525010852,0.029501214370096805,-0.2494383447837489,0.19985659010267887,-0.15737807957579705,0.11839344815502799,0.015657104114355072,-0.03881745819498511,0.03207623398635667,-0.24123801388437316,0.040238069513250256,0.9091121331923617,0.009901415742814262,-0.18210068202855978,-0.0016939327082456102,-0.17036556850448598,0.20791704704291689,-1.1074972126464706,-0.6443969342499458,0.3254813081630756,0.02846848735912689,0.42343267438000404,-0.05976810474193092,0.5562437349222594,1.369243023976977,-0.161116728195521,-0.19371617748838346,-0.44984958751376336,-0.4375067151818227,0.11929745915694079,-0.11171101398230354,-0.41339583928936496,-0.17967704145641872,-0.008094372531339539,-1.1599647442812362,0.6811586487696605,-0.33091512277836266,0.0703530762131068,-0.10314504251873145,0.481350451456481,-0.3106153940873057,-1.6715081050330733
194.3147430419922,1.068206787109375,-1.7078448847273877,-0.3109330207600336,1.8862681654882731,-1.3324357469758155,1.7502131241934336,-0.4899602928718381,1.6757883581601911,-0.07157980550418153,-1.736458350174848,-0.8944019121229433,-1.6997379961152264,-0.24477059054997535,-0.06092700877583718,-0.023776887498085313,0.052810614007318527,-0.029056582623449546,-0.018025874704875804,-0.012689285470258329,-0.06042412032253162,-0.012637094582102687,0.13533800062416002,0.04775559800973444,-0.10223045756047491,0.00021983789092875863,0.008753015739842733,-0.030521507542051567,0.13471039348303004,-0.1650985670557043,-0.041280412153255674,0.21457775434819043,-0.10980377829541238,0.015286321928573167,0.04935750439383095,0.03625700517916688,-0.04588840187546507,-0.07602884415259381,-0.086353374686514,0.09587348394050901,-0.1180334065815349,-0.0665699631582329,-0.14532193298290422,-0.18071528033396395,0.3686193728410323,0.21124378148214018,-0.2095496230285483,-0.09740013208880965,0.028787790834849877,-0.42598513552593387,-0.17952534638659026,0.13021040561970146,0.03605305243429703,0.15738421368012961,-0.045871088276835545,-0.23545801958267928,0.18413980427975937,-0.1092875668772159,0.005885677890427377,-0.0015786747948154795,-0.025536508846780367,0.03636262592236714,0.16632428794675383,0.20162849373273903,-0.26340960138568287,-0.3065081578095498,0.12310417085664517,-0.2176465152495267,0.10844615885635983,-0.03837100885992157,0.14270605511423892,0.19577242148741694,-0.013353479731912293,-0.6615441836352562,-0.0481744965169517,-0.15663173799508287,0.38376952820293764,-0.2300904666882586,0.3862756228952077,0.5819812171629757,-0.3707367867055339,-0.2889920922001583,0.5926528021898926,0.8517934478447794,-0.048907919144468945,0.39065013714636165,-0.14147901118768985,-0.37039529635616836,-0.21996197529090206,-0.13852380275344361,0.04926045671970311,-0.42419180963901315,1.2323029078303398,-0.5884357570433887,-0.012944870540429476,0.5557161570011739,-0.67810449417109,0.5981578795882359,-0.6931333625929146,1.0327419199416987,0.1831965525169157,0.5477199890442088
195.38294982910156,1.1089935302734375,0.47766997678391687,0.6004062139086084,-1.7719163199482808,0.04212132360107029,2.4735209903846465,-0.8223946853759776,-1.621443168776307,-0.8765702686262115,-0.10279508425118769,1.9504728982065167,1.5356655593281754,0.7813040977808529,0.28955047751861895,-0.11450717501427307,-0.01593067337136992,-0.016836920082250514,0.011247620552652078,-0.044923824279414645,-0.005629889394067705,-0.011464795961385475,0.009627377506853666,-6.150112971036153e-05,-0.00927761805485286,-0.0005324653049504768,-0.07940415531159932,-0.025935854873529233,-0.07211830373092966,0.13805368688025071,-0.04105643277696671,0.09817865449201882,-0.028538130171389883,0.061440884477652724,-0.028898658770516113,0.1429595905512187,-0.03612935490332295,0.008883718595920383,0.028193585498385253,0.01255892784890109,-0.04560891403557274,-0.11770582012101982,-0.10785000219434164,0.07935363994288652,0.3013587399531209,-0.20490554669016944,-0.2936413063417523,0.4575170603963242,0.02412350697514612,-0.01958323335116833,-0.2102584937167353,-0.048136863005381586,0.13750508679404916,-0.1654612666329985,0.10315515724525923,0.2773232432417349,0.020923419705784874,-0.008758449976138255,-0.01293994905572645,0.015159278511537845,-0.0005139605679545349,-0.06149004604336817,0.12268318905787244,-0.27565019390226825,0.24685708458059874,0.3261262357316842,-0.6475718734734445,0.04793150602010732,0.27815204949151395,-0.1071810694838902,-0.05472328776174828,-0.8630937726584674,-0.26966046508816366,-0.19030950069934416,0.22871474519212895,-0.5758347095934154,-0.2016211647682109,0.27756376921558995,-0.10432697364004782,1.1442877245485952,-0.438453981128423,0.45939924873076754,0.7846468972526522,-0.3379743055245944,0.21520075120767107,-1.0274990884515511,-0.294096632766104,0.198523823308395,-0.28055077159397934,0.10367358739087254,-0.01106645768395198,-0.3892689189679046,-0.3387242891537764,0.1677642558218962,-0.10224159634802887,-0.13609054909603874,0.6478006003846509,-0.6057605290406016,0.044515442322679954,0.23514069702916243,0.8533956398467895,-0.9384938842076125
196.491943359375,0.9585113525390625,-0.6652919988667241,0.46608759058532223,2.785188807068057,0.690878193788937,-1.09091708112563,0.7634075893915626,-0.5892356772301092,-0.544964843134737,0.19189091269714048,1.8134494248064361,-0.17775876897148024,-0.6954026478009645,0.21052330563653543,-0.20447294648695769,0.0478046470507074,0.014982312405897024,0.037083352082522884,-0.00717675843565786,-0.021400511671352918,0.0720269210770676,-0.038536245855198305,-0.12975936081315292,0.03303506683565895,0.014166375000253334,-0.010397549115371153,-0.021005988999824962,-0.02027416437069969,-0.004356018581344344,0.00318421937448286,0.03969074922777179,0.08435282078455064,0.10490803478181121,0.007728382093476376,-0.012157791503534531,0.0584294427520089,-0.023221707693212707,0.03834033537653065,0.04399866094164857,-0.010468064225795186,0.01875608897318727,-0.020066838616611057,-0.15628933284777044,0.06303045935970028,0.06215679849213915,-0.2002245900521331,0.057431438544405626,0.07599519545949347,0.18654297311565227,-0.4522780216041455,-0.11290489063225272,0.09274442207431156,-0.04446631143886712,-0.04820136144881211,-0.003791540624932561,-0.03159968624445532,-0.03613957323062067,-0.001145571429384373,0.05335930576432936,0.04405985776635533,-0.017477061397522444,0.12073685773371973,0.406887518534808,-0.15217278188936265,0.06980371288931302,0.13818352663472214,-0.1187151899891015,0.043173300576486,-0.0862517849167083,0.02059507586285882,0.3836996411944391,0.01821216911757887,-0.3048531242690177,0.2517626275046344,0.27477769087350273,-0.6525572126293975,-0.6294820194745928,0.5578265970552472,-0.3866934923910127,-0.17082970748278062,0.2680792669273996,-0.04954808506382273,-0.20545537855230375,0.053003366015173047,-0.16599643521569094,-0.011518578855464864,0.03324795495804332,-0.020709750521728805,-0.09137446817369461,0.12094335681492,0.034257051587756014,0.1581711300932729,-0.3527684905230931,-0.5510904183249606,0.1677075569964191,-0.07019196292985791,0.05030894890993644,0.3896768776771252,-0.4446594356284142,0.05435176624486379,0.1684546717633883
200.63705444335938,1.07879638671875,-0.6292881496737557,0.12343109319880097,-0.2998343086714037,2.7796096556717087,-0.6081191546627578,-0.6434935328882064,-0.18074493152293958,0.8174987422495064,-1.215599226476111,0.20150662521874613,-1.0505854929480236,0.4050046578513803,0.06285942127640338,-0.13529376975364804,0.034548265628208744,-0.06436510157457749,-0.013319178133808219,-0.005018105893630741,0.050275641696594854,-0.06138123878301476,0.012518624972926431,0.08649275530925164,0.022676450350346766,0.04153406602526205,0.04973207912898263,-0.0439744418434577,0.022047654581919353,0.004819071632898949,-0.030873598927454553,0.010901761125573842,-0.08384180213728663,-0.011630328215291016,0.00029682729411201463,-0.0007037523844892167,-0.061550593054622675,0.03613878835052387,-0.11285446643853932,-0.02827619708518628,0.222122210972379,0.31590280583606434,-0.3034493089647196,0.3367925940428133,-0.21116524331171488,0.06692190745538397,0.07945924520361583,-0.012842522174509548,-0.36735021455928935,0.09326370244648494,0.13208592847809464,0.03262776070059254,0.36804339923208274,0.03599952805760968,-0.09378428033922902,0.08991332341798468,-0.21629903125914285,0.06167855770735428,-0.0038776581387993964,-0.04552806382028998,0.04059154545923083,-0.08799258833609144,0.028226731641723665,0.16149396681597677,-0.9379391716527314,0.8831694187298408,-0.49253054543528274,-0.47859666360632824,-0.025957786540452166,0.09755321965211844,0.19204478759964982,-0.08313372870741688,-0.5931071269116175,0.3334730829390823,-1.6177731538555045,0.5359051641833228,-0.12101909176799701,-0.03514644308435695,0.0791098106451683,0.10978657259586441,-0.2769955743095731,0.37517547139690877,0.29017275734468945,0.3459749103918274,0.43593327812753085,-1.493759986074323,-0.6739071890570678,1.417856759757031,0.04621353632141905,-0.06735003626900049,1.0992700644669349,1.965112198532123,-0.3421468940407066,-0.8104209499284192,0.120882074955074,-0.1367485889676898,0.05479480185944456,0.4296749880770951,0.14475930817985816,-0.3855248001651631,-2.0405475958246795,-0.964094889031893
201.71585083007812,1.0688018798828125,-0.16913255153233644,0.07427158044029766,-0.6744849418874106,-0.570848189965204,1.39732865289551,1.4545252853719828,-0.9352548504976396,3.597104988135146,0.711360644336339,-1.7699442088228885,0.21962630604987618,-0.10575731771952956,-0.21754517345764923,-0.12122245862851667,-0.03222033969769378,-0.00585405591498463,0.001661852122271379,0.013670807932514236,-0.00032979035450774775,-0.053510731165646364,0.06050931172180575,-0.019382687925152853,-0.05070754820653349,-0.023275095056442874,0.0768387038474713,-0.01702918581770938,0.0029543857480230397,0.029274298574227125,0.008234849148039432,0.025746918314950903,-0.014155781008067587,-0.045136101369921876,-0.08039916849286768,0.168093368659896,-0.3513460100969735,0.01757374890078678,0.06785263343500542,0.03841441623150887,-0.1941990957768581,-0.2760215591374602,-0.25583024167961294,-0.0510813556919963,-0.16413156815713098,0.0530073852732981,0.19654825876591397,-0.10486826181365973,0.060008449370614475,0.007111629599250527,-0.2488170387193913,-0.012057082813893418,-0.20262376522444936,0.04775129507761938,-0.09331851956440324,0.10262826800184646,-0.338729622386872,-0.0053070985970415695,0.00907591611117615,0.005468863556420513,0.02706500679032663,0.059307936579617186,0.22718966121695308,-1.0795435306337453,-0.6411658338888668,0.4870198233929928,-0.20397400985326286,0.05093148406471336,0.2605491522369099,0.02549004267796021,-0.04149491267812037,0.12245788846241455,-0.0356103609317925,-0.022207059768637953,0.14635891916002802,0.622371480210447,0.3579192026242723,-0.015389351877975382,0.2629910046199633,0.25050874039767,0.036598079044290584,-1.0501687390689505,0.12457835485045442,0.1634849584081093,-0.2586965151266109,-0.1336421516466382,-0.5251041923545392,0.12571908207448435,0.3774255796651644,-0.055414051078480825,-0.7264623058217881,0.11149239202800447,0.22128698842007785,-0.6076654822428337,-2.33756326170572,-0.1855681906433344,0.46233134959046884,-0.6353024990898467,-0.15554343845614443,1.291494701554675,1.2305877551440916,1.040807199802271
202.78465270996094,2.1573028564453125,0.8980777814525739,0.9247093454270594,0.9308991614444928,0.8769000157682805,-0.8035994599830483,0.5125637493343459,4.06075093041193,-0.05359239200731496,-0.2614686765277259,0.07408470269480982,0.04776948469311435,0.003320040359882759,0.011380875512435346,-0.009704529214622564,0.0011688586547274715,0.003557880246912568,-0.0796795531588411,0.025886570859038713,-0.051822335630528474,-0.033272824089139424,-0.02697012892790986,-0.01802179255518345,-0.012055166542225087,0.02946089447563527,0.013233134536737827,0.0014001087024051485,0.009554401034726644,0.06676000780407951,-0.01090875293901103,-0.0024915760717424368,-0.008223589786860356,-0.07767598610899475,0.013690508673768545,0.046157980551046696,0.0005085537214474523,-0.08923262197182386,0.02532399846924012,0.19545174563433304,-0.20562955367218091,0.02632059490633116,-0.32305123826319315,-0.018912067566357965,-0.05581140213173289,0.21958313422282544,-0.12073024169329112,-0.1446097522861508,0.07030037232586087,-0.026856136940345228,0.1119260019367152,-0.3276650979110246,-0.2970815476878406,0.12599661924647562,-0.07486832458134787,-0.25617484337081986,0.02539255219645844,0.03967330123341727,0.033293709225857955,0.1043205434325283,0.0064940125017081,-0.006216583588973562,-0.007249756166150017,-0.38376483717699594,-0.04657754016959095,-0.27282734707830053,-0.2153485874077215,0.3811491542031355,-0.12172893567258869,-0.4638063981520778,-0.20936369862422244,-0.07412942347826702,0.27745082139209504,-0.7509985418367559,-0.6415463365216516,-0.5102851218780411,0.009490866656390401,-0.26396346867506487,-0.1438736581552038,-0.2224263164523556,0.05002307975462796,0.4417810726353489,-0.3037315733888788,0.5034030494148914,0.06194302654074045,-0.022351843107097147,-0.6056758733251197,-0.1136718253943054,0.30804636331331403,0.5383289180123485,0.01178262101602889,-0.41192221413759467,0.4393753344177951,0.7879616476805666,-0.030156594274722566,0.2642571851390533,0.6263900613852484,-2.587060453874682,-0.00010043151399757172,-0.44904997553173204,0.34869503796676893,1.6392644277282151
207.0801544189453,1.0688934326171875,-0.6363162551040927,0.31221691056821954,-0.5813453106610476,-2.240579133929481,0.21894349584088002,-0.5188052407000965,0.6213774771354609,0.31222391272204486,0.5060322151071887,-1.2515004639028675,-0.4950220681319172,0.47738526391287234,-0.08039787959194877,0.03762881660896121,-0.04869515541936006,-0.006330498960396852,-0.033620006690530196,0.03966982029559546,0.06725150072551302,0.055812987480971236,-0.08053411794691283,0.019660333726665653,0.03142662558181285,0.1090322458796992,-0.020977528919574523,0.04014126720631474,0.04567069184566693,-0.06903249948286627,0.03706481590125098,0.09362014810328316,-0.050838374189510885,-0.06735927171524658,-0.07268603338557698,-0.09563406448965622,0.05177794287971156,-0.13701819784439168,-0.15049548752221795,-0.014769166320211528,0.1341961564220045,0.03216354385500465,0.31597707761850785,0.05133168193302467,0.19397615785606492,-0.24247508292111294,-0.14008093177328576,0.1871315409634567,-0.2978154122599247,-0.22176096747051355,-0.0006141542739922217,0.1830745588526552,-0.149353299844339,0.0760351998271845,-0.22851997927126733,-0.11243267430022699,0.03413045537259431,-0.006811072254571983,0.05075530069594262,-0.03231263960426438,0.012791295147845865,-0.001005006082850383,-0.08661280120795786,-0.10593020430243705,0.6645669618669108,-0.09625064577755267,-0.3017511140898045,-0.3081653056356276,-0.019514206900507106,-0.26787999064920104,0.09588115329737681,0.002697715308210209,-0.09824878448598062,-0.11454854716462451,0.005508841608954826,-0.005723540992808168,0.2087057181825717,-0.15950433500179254,-0.5155195313530735,0.014962969147444768,-0.43663980521417073,-0.0789636306632245,0.35209900741747907,0.01275514671210732,-0.7550677362301469,-0.3816548134344975,0.08436996872414983,0.37664281922584436,-0.6278808710137533,-0.4701364137603833,0.35020464894437386,0.05175786083742958,0.13789159243503243,0.43817136414616153,0.23177918472298148,-0.13892161854991975,0.09183116676263178,0.10882845836718401,-0.2330620369083194,0.03948839716181855,-0.02109186606079226,0.9302405315137865
208.1490478515625,1.0885009765625,0.7205599691174257,1.040128305272131,-1.3308371408204416,-0.2973418703614643,-2.6290910580143225,-0.6579222304399933,0.6589556847057803,0.03146808904727483,-0.02403136688869241,0.5652768344225946,-0.15446909192357275,-0.19388414441552707,-0.03281556576897172,0.04205263555842647,-0.021546319012553654,-0.03897216299707214,-0.004440194652653743,-0.017439499442300454,-0.01202084189623382,-0.027370889111748405,-0.08509658435721114,-0.09794305707755635,0.003321613438749717,0.01843967515371457,0.0010275208385208544,-0.04578649975430181,-0.08195917581178466,-0.08089167424051849,0.005253740948064171,0.03065114748131398,-0.04988228808342045,0.14223695621906998,0.04244922744551894,0.05289997950546434,-0.017449179912169113,-0.02951133513865202,0.1237191621377572,0.037478697688449594,-0.011234195260334132,-0.08954330965446618,0.0664010422936675,-0.028803727309133696,-0.10015279833322485,-0.2160413278949666,0.05011481235574264,-0.016629736986516232,0.09011285135248767,-0.18589564907230227,-0.04900245798666242,0.209358227496884,0.06861697193831535,-0.3209581890094586,0.08337825971717758,-0.4305493933576446,-0.14788715059646537,0.12101372217363271,0.24160824372857376,-0.041076902619979434,0.07491310067642916,0.03904332123934726,0.060186826944977984,0.10240723046380901,0.2490520260578182,0.500924738731395,-0.1780835041716362,0.14075691792695816,-0.3802136196835832,-0.3557138794729324,0.3017140629686537,0.5117328306287834,-0.4559493922504992,-0.3527173353851404,-0.01883167755023237,-0.05778038357394427,-0.18846484888492657,-0.39707482515657067,0.0748987979831373,-0.03768277064509608,-0.1884507996916249,0.1772792196996075,-0.6332562939934887,0.4796462094665173,0.002349724060162782,-0.06066787602703275,-0.039069910652106826,0.5395565014492091,-0.05494121761673765,0.45920583199646015,-0.12839588889387138,-0.08206069765701596,0.9443334536277186,0.25285635946962953,-0.5497534221591355,0.8183060918845513,0.3413455079356669,-0.7323039815888142,-0.09074801430679304,0.7886147539930948,-0.18529700481621136,0.49478796581017703
209.237548828125,1.158294677734375,0.3129284397809094,0.1609000640275788,0.3551697849918819,-0.5519429488084728,-1.028950028277639,-0.32367850792577463,-0.2209426975633913,-0.16357525283731786,0.22272133012683498,0.40289468034684667,0.5422184336762297,-0.04945657483720594,-0.10891334995015213,-0.058621369039588034,-0.007177202182933103,-0.08185358031277559,-0.026544501509624827,0.02338338419287937,-0.00475988928038759,0.021500055255719287,-0.015104107999956139,-0.01280451082625249,-0.03727488784697792,-0.027545355845066122,0.04248323910190358,0.003833102059865194,-0.0014631745949394426,0.018643978432117417,-0.003560911480005416,0.07499163451893913,-0.016143481548671554,0.012512535129280746,0.04915173333084078,0.022946270449819298,0.07163576828259219,-0.04201773256560628,-0.00016082367830048993,-0.0025662023667859185,-0.1797461916703963,0.22334214878945755,0.16242885696274834,0.11305690320172743,0.08991544250625796,-0.2814393061115574,0.15256702806715436,0.060005692100274385,-0.2108133932834176,-0.0156918843916546,0.3236679247223702,0.3443009614451309,0.05919632115439584,-0.040584844460906,-0.18740842860083695,-0.0648837464502136,0.06706065495077944,0.04087494881623574,-0.03842112715724195,-0.021283722985988407,0.1478636290756367,-0.05583592240061187,0.18434264839709688,-0.35632000743415554,-0.20021222206282469,0.1534091023319854,-0.212577483794633,-0.17517582637907747,-0.08574136291227114,-0.1749737207176652,0.04847303535918468,-0.06342783239417063,-0.012331618193864996,-0.17001657699416495,-0.1913661808341537,0.14125644513453237,0.3431252226145214,0.06210806121142909,0.2863726759632009,0.19154372388290394,0.009596171881008628,0.04575431173869271,0.15186303636417678,0.14012066024846997,0.2122984823922904,-0.028147572282251856,-0.17219966003177123,-0.010670841977069898,-0.10297272921837727,0.022307360127308842,-0.18125460279977218,-0.3032428201018721,0.8522721873734621,-0.17717234579920893,0.2755205172298833,-0.3242000336423379,-0.05709119193753079,1.2496828145815049,0.660451609428925,0.16476609621192345,1.0372700298631075,0.5777018456956335
214.94125366210938,1.098602294921875,-0.5170092923684074,-0.05715889936726931,-0.1747237965164924,0.4675471633142258,-2.990653699047312,-0.9395021731639912,0.07203423709751886,0.10888578699580842,-0.14337886980727516,-0.22731157408679298,0.01643921137890242,0.25591238986928405,-0.1349331988699909,-0.5351252527100542,-0.0117354836629637,-0.0466460433351821,0.013819332882058919,0.033719544378797595,-0.013491136395561515,0.056322982985098045,0.021714332828155138,0.021863220108200934,-0.2673170913594794,-0.21542739043585668,0.054940647411044104,0.025280902142975244,-0.10973043248663399,0.08205875786982962,-0.0583505370590594,0.03244167273991325,-0.046361740628908396,0.05341662919569452,-0.04824454994078485,-0.0016847271718554231,-0.0317857565635373,0.07443933479569072,0.1019317595630551,-0.14004087529799417,0.21529698535808933,0.06754011507567743,-0.04113902111625262,-0.1250789366751988,0.06463406296451471,-0.06536385414528728,0.2586103657617916,-0.06772618142174652,-0.35243776203185023,0.07119892994252318,-0.048491527948346894,-0.2816050928248404,-0.07220116425021955,-0.043440317131249524,0.11501666048161258,0.23136879242028976,-0.012548632131415565,-0.011207609311751035,-0.02401869065567345,-0.01537793202506328,0.10611464365827637,-0.0651681790731608,0.3816227698280358,-0.4897268284523021,-0.4113088728596002,-0.05064839990344584,-0.18441493484267868,-0.07415467268489552,-0.13313647425593728,-0.3488767871490489,-0.18494053203701655,-0.04644111948124821,0.05820743219472438,0.2482549139928853,0.05601693156751839,-0.6343096401718054,-0.498450951584002,-0.5883403029910343,0.324521382487746,0.1581801850517009,-0.382277572512363,-1.1978779104427741,-0.9474580636520922,-0.3073880330212351,0.3210873860025779,0.21898561600767008,-0.30492426007309625,0.12322608312572597,0.22840536113183846,0.1974392029783283,0.21573321260155645,0.6674599797066787,-0.2090081610153663,0.12316249507387969,-0.2935801518795779,0.2115353609668913,0.18234329354576823,-0.6883788805485956,-0.11081494472947695,-0.08661143760422418,-0.5779395642717793,0.376962261741287
216.03985595703125,1.1288909912109375,0.9852597006943724,0.22218425272423806,0.8556465657566367,0.987240182759132,-1.1445097086023766,0.590957396559909,0.4114856413058551,0.1703376808166849,-0.06321908178171198,1.0764275764829851,0.5850501404317356,0.1632359950935915,-0.20439601536234467,0.021560884152218775,-0.006407837829903333,-0.032345711751260095,-0.053968217933144665,-0.011037072278744814,-0.04145168795356385,0.007395276223055033,-0.03180653672731812,0.05456590419738637,0.04614396798365803,0.031298062562048846,-0.008478403228082734,0.006240116179418789,-0.07914471510710618,-0.13092450504445752,0.04404239509841495,0.038664855057635956,-0.02732356887593937,0.050423327897942065,0.0651305877645186,-0.05767177186614905,0.03172380746437425,0.14183480544575092,0.041175063911981474,-0.053176862487892426,-0.0833125580188853,0.06396825841193271,-0.1531665907229408,0.09438824744193923,0.17667986111167663,0.30397727061480595,-0.16790340099862622,-0.31331191639299666,0.3072909054339398,-0.45921960292545716,-0.1644050466822566,0.20921358581193444,-0.07274045328915202,0.08611849378054795,0.014414461071949783,-0.004438011107731843,0.06813999569060379,0.024988408144354483,-0.008225289455209436,-0.04592753756221656,0.04791402232223549,0.02785808354527909,-0.03503953309473559,0.28553709534838095,0.1643277534317714,0.2945539409108962,0.25165339601520764,0.1026340378838508,0.011352831558780606,-0.06914189982111556,-0.0275269577764176,-0.4267178632796786,-0.007475467746597977,0.029321075441750263,0.11739289481933529,-0.1409737603841591,-0.32022301789295887,0.8779388532920629,0.1475908420146289,0.3085372429912421,0.016266512090688023,-0.8332246963886983,-0.25887152750925746,-0.051185442640516915,0.2320856040746199,-0.10359761976845214,0.12719659814953832,0.3369475638931054,0.1999038387535586,-0.7403938617319595,0.7765466280117093,0.2754212238049634,-0.7420717702825299,-0.7806780192515537,-0.12066312999122168,-1.0618847174484114,-0.22994611810040808,-0.09530096938893534,0.1296042544745517,0.5399601458590272,1.6107037371893769,-0.3989964494761512
217.1687469482422,1.0886993408203125,-0.36102539714451337,-0.5374952682956102,0.9817343513787751,1.574643261315666,-0.3115971917199309,-0.8281819473516913,0.48915443683755727,1.2945950370193433,0.16943299377199952,0.07642635650641022,-0.13687236459825988,-0.004441092879943386,0.09859516023586778,0.04778371638012598,-0.0019998661409706417,0.07387283816545967,-0.0155430888098112,0.010927390887916614,-0.02222209041326641,0.1188945894313953,-0.0243898522591264,0.06048776393623183,0.08857080817447709,0.05397706774954143,-0.04406974879101126,0.012706500761831144,-0.0502608676596996,-0.009406247445245618,0.06216773617935544,0.008530437299799928,0.06452917739525868,0.07710798854205905,0.09535008679003548,-0.019612161670708585,-0.06474923156383419,0.09550318839292159,0.06960682064548253,0.27508428086216724,0.30978618346977593,-0.16723773046030233,-0.12288514785418733,-0.4243253064221727,-0.6432340430324299,-0.003764966238124976,-0.09256084666588181,0.2989141284357014,0.025779976644844334,-0.01584150465996073,-0.0039127756388876445,-0.16022847025926293,-0.43385508938439643,-0.06075683603881675,0.038928650242969334,0.20053817932684684,-0.04491518512609097,-0.06023473284691011,-0.1042622868374707,-0.0030539267358456993,-0.023428999650163276,-0.18498776039290735,0.05145026476643149,0.19061988817801173,0.12489680241536054,0.27053884719438703,-0.2706227207866914,0.08910687052045216,0.010432747472840453,0.0648974716271168,-0.009935368556137794,-0.05568811395320261,0.458306709725743,-0.11838635876346779,-0.9724541045654888,0.19275302558274474,-0.2610419376557535,-0.08237772982389174,0.3953390311779145,0.2822095139510267,-0.2588352490604465,-0.47643174886524087,0.16280493612380056,-0.42462850850859957,0.7420459343149677,0.9886670690542597,-0.38007598398430326,-0.3060918682281536,0.2958864074458286,0.07424951832757289,-0.8925530081491674,0.04034075643489643,0.06608609221214444,-0.2069984221586294,-0.15861572406216196,-0.5936742624607672,0.2451127270075934,0.1583207733024206,0.9456243963462276,0.4066531391688261,-1.4874272991756394,0.14631643813329775
221.5834503173828,1.0691070556640625,-0.8442819645490516,0.41004930313435234,-0.22385289105479336,-0.1543027878572672,-0.31520855260133773,-1.4324882357557132,0.5404889869798356,0.49987958832812607,-0.2030449773759532,-0.2514173268399205,0.05025233749287511,-0.13048776969438095,-0.026249110650074448,-0.008988362884994272,-0.0833347338514461,-0.26904249305656047,0.17871875334368967,-0.109552117922067,-0.0629811537858323,-0.214155666082298,-0.5639897219268841,-0.033503245610541244,-0.07811600364407162,-0.08615578050744784,-0.029948784688118263,0.043298087265574804,-0.03436187684710282,0.006590017028497533,-0.012473264965366397,0.007221860389748216,-0.004910451825223845,0.028952944660143382,-0.011200982761080707,0.04087415962040335,0.04215653336057981,-0.06459625759218227,0.04343000910587001,-0.04048258065390672,0.24771894568036765,0.02638517158352461,-0.12828599562243212,0.15674947033462971,-0.071930976688606,0.06627165968246665,-0.08961541327973041,-0.19352238852886483,-0.26627677342463774,0.48492681494820233,-0.08435628425297435,0.2293357290363763,-0.09655191394405421,-0.09840367874534617,0.34996595636388567,-0.44902545999449506,0.1504983612712697,0.2154106390890627,-0.045131911226538646,-0.09763553393626555,-0.023062898075575308,0.023384729534912524,-0.10028807586159327,0.09857792832559505,-0.330444084327842,-0.7329390343572179,-0.34580356352765923,0.03592311027584914,-0.02739167587088924,-0.12389434176227367,-0.010239872628427363,-0.19941145803328728,-0.031708037782346155,-0.09800936825294244,0.051183705334720664,-0.09440202051703483,-0.05852101494383959,0.10661374960608085,0.19952944345848603,-0.053206873129727786,-0.20636892415784905,-0.35387298831461683,0.87963584598207,0.30981203090817194,-0.36731122298797303,-0.17856332825368743,-0.09247897320457608,-0.11431082927411039,0.028424027926315203,-0.07530660179349591,0.03525743453877239,-0.1946606570602067,0.2379100248165969,0.5482337994149136,-0.3140967359600217,-0.22363408749829658,-0.09865238996056705,-0.13265362506037356,-0.25362408840865147,-0.3337298005005646,0.617899665339446,-0.5259647206560495
222.65255737304688,1.09869384765625,-0.5200382512606558,-1.941534925731724,-1.0754475485271224,1.2267690331738497,-0.4265013925553821,-0.6865196778107335,0.5777825009605447,0.10864692225925875,-0.10501728698016452,0.11165887278287644,0.8404319049160487,-0.11967809293652701,0.04364164565124285,0.015854095667777332,0.05827816374918342,-0.007287481571012005,-0.014635172021605313,-0.05910370438029854,0.041041093488409466,0.02157386998537468,-0.022763766092309026,0.09606390884465493,0.048894844340497595,-0.03528839234370591,0.02169385369901476,0.062940242694785,-0.01797421385193243,-0.02573579338663885,-0.03228301569067567,-0.004811832193417008,-0.004843351511129792,-0.01068864819730743,0.005903794662769359,0.004906786445851579,0.019821245403005013,0.048943127225789196,-0.027753814018602208,0.0631179593162008,0.05213869584301414,0.06340548389784904,0.028792607570291368,-0.07353597906724633,0.2511162475993682,0.3500161109538612,-0.24967922865010794,0.10776558967433614,-0.1578688430680324,0.09326002631711294,0.061453880127556385,0.2555761092381079,0.10005530110809896,0.08962182338665255,-0.019903300966513,0.144498927109913,-0.1415781297304092,-0.3274144976069986,-0.09089569975133255,0.30650323320204065,-0.026861760307329403,-0.05003465548600504,-0.047886806099376976,0.20549253192595185,0.08075643997475197,0.22116353694119265,0.168090352679785,0.008034244185293533,0.17254834881864817,-0.19194610460397743,0.014649879319608698,0.019364032748542204,0.0799703530402797,-0.23280401411577795,0.20755852691208962,-0.2501498768622675,-0.20728746995111197,-0.08774572273467618,0.6562545827323754,0.9040169770796675,0.012354382083527932,0.0647249983196434,0.17713063248609354,0.18885906363258229,0.28651820061423694,-0.3454390597415965,-0.0611124379792876,-0.04326203852396328,-0.05765330140193105,-0.1569689643184902,-0.34654871953123034,0.005282556604187871,-0.059867564389500916,0.9335669086831715,0.24954664088691925,0.26297270467919626,0.6415206035159168,-0.13706823460862075,-0.41512130873248176,-0.11596875701862763,0.5962403388564159,-0.6490840957226375
223.75125122070312,1.118804931640625,0.09367888314458739,-0.3460691014218462,-0.10248253252586557,-0.5685792354980165,-0.31511034479152733,-0.42954386188429927,0.5627452255041759,-0.8749303528980964,-0.9444401991459638,0.06178856224769447,1.2381123218131522,-0.5891120559558412,-0.0017983795457227718,0.2366919777546481,0.11413994146831334,-0.05990656779502096,-0.030796449154851975,0.02229298321916244,0.11370762573496004,0.02038207445217919,0.10151757426869573,0.04607733357903618,0.0281147356102733,-0.011505679394779866,0.019651984071912154,0.025485077238706928,0.010016810922403908,0.014079874605953979,-0.01057146988587907,-0.012559060469170156,0.00899880632721057,0.07101937378226449,0.003556698241208566,0.02286435965107117,0.04503069139743844,0.07353469741711172,-0.016604345452402976,-0.03403067469394959,0.045076131011587035,-0.2675161604931288,-0.08505597368116666,0.22842623308011697,0.07122506348162892,0.05865424411931067,-0.1431123656851452,-0.188931363145941,-0.0848941380302714,-0.09686748073039461,0.026852963739746105,-0.08519104190508305,0.014703438877303037,0.07710671164960059,0.013284983181881576,0.2394983946757904,0.11830684056994145,0.013788393085627099,-0.03634417533704735,-0.06525371648973494,0.00589511881130515,0.05213563897873569,0.01166569535247352,-0.05668561956815306,0.09182008208536808,0.06699318182271659,-0.2363673149464723,-0.06183442691928338,0.09016101416368602,-0.15832608522258299,-0.13718734062438903,-0.11634771490530922,0.19584774043021,-0.10193187328009981,-0.5850216804926457,-0.08734273973956758,-0.22296786988568867,-0.0047013442521219445,-0.1312711866579288,-0.3332050908006326,-0.38356046002044086,0.17941942296113497,-0.46967901372512977,0.1024362405834682,-0.5587044378809544,-0.1791789796948467,0.43594536135760337,-0.3188591507864918,-0.2950541862997012,-0.0968521496595029,0.3966589239396424,-0.10051491414317948,0.38110901062776115,1.1571739900208722,-0.6519131123810538,-0.29100504424524815,-0.12306410234157052,-0.16421308872133386,-0.33614832751250046,0.3058227961431063,0.15474489339681388,0.6745272266542242
224.87005615234375,2.2271881103515625,0.690015102107645,1.5651648137934115,0.2763619796834398,-0.3424542977727887,-0.3704561763025166,0.32193339150100536,-0.049392641316395175,-0.39270500688171495,-0.6340548758606966,-0.10406651993965918,0.7560369456123549,-0.2530264878341393,-0.6430546063402667,0.008742005518298401,-0.4132650639980469,-0.19974105797611663,0.6771513330251326,0.05935430411381567,0.3658891585807499,0.0010735030337670455,-0.007681294955674162,-0.04770635519814437,-0.07818318140187303,-0.00874645486478184,0.11828078936359378,0.06310257316898052,-0.06619247386961088,-0.03249789573705523,-0.0883203008694254,-0.04442249376732449,-0.0037220442866250157,-0.0698411000763911,-0.6286242176455357,-0.03162161840311174,0.09652630865632862,0.024226443557642228,-0.008251944890760225,-0.015873815025175365,-0.11396878829818621,-0.04418241751320198,-0.05457241924138606,-0.10152541917488814,0.27190734023858654,0.2829433419291343,0.01948111641729312,0.11697988255948319,0.44515751003534976,-0.22601539438182233,0.1201719811904196,-0.16827573097673681,0.061236575334820464,-0.0751332722043041,-0.6393346600954547,-0.04880075009244014,0.021380250122378146,-0.18030633044762695,0.010154487711003343,-0.058031627307360945,0.25774005901521546,0.3430440475746075,-0.04657514439686801,-0.05295049408082105,-0.19623144543238807,0.2920650043862506,0.5036713617195703,0.1780265166260737,-0.5823582685376194,0.47142798541248393,-0.11053705628967103,0.39321953532380693,0.4793533371881433,-0.466787856534198,-0.45291992571799167,0.8806594961373213,0.2926264997155323,0.0033270526368142095,0.24205099663631663,-0.2946553093322519,-0.29278360916191537,0.896847559863044,-0.3691517677588917,0.07204534498798379,0.09650417106555488,-0.08772602518782817,-0.7954908812379062,0.3842823218858342,-0.2301956114726856,-1.0656474587381206,-0.4207164552882525,0.1665599742828492,-0.46326288358128676,0.21481463094628833,2.2406792894717675,0.19326837365983285,-0.2884082204969422,-0.4396641955584993,0.010653681499679813,-0.052743439491556646,-0.992103854918329,-0.9715041903300228
229.1951446533203,1.06890869140625,-0.8083673290797762,0.07227759239602874,-0.2731429107179274,-0.7745453848719237,1.6514759629718831,2.060744895342392,-1.2719291092026153,0.3554843186923233,0.3166443168527371,0.029550116446432524,0.1293394487470403,1.1609110944489225,-0.17641276160547123,0.03714230244706542,-0.03051179710379949,0.0018567078369194478,0.0008549266790164893,0.006424357570268348,-0.04215886556795114,0.026199185614700193,0.026096085973828318,0.03869595715581965,-0.055716492987167236,-0.004538832783065078,-0.0845519214144425,0.004740237574188736,-0.032220348828149115,-0.03510784946222455,-0.10931567917684692,0.013863576772021052,-0.08171105598705482,0.024081890900265468,0.012994147979297545,0.010883144058462121,-0.022536305456826906,-0.12033465291070447,-0.04729704648645387,-0.17606110544847423,-0.07804973767555669,0.11534362612337341,0.09077755596634404,-0.04776342959747518,0.026747413419810715,-0.1681640784056669,0.15857141643259084,-0.04486441383214018,-0.14096585073736478,0.3204090220886054,0.2177593161235133,0.17312197446510988,0.17758937386765228,-0.12319154522118975,-0.056320090073882716,0.06423131941344502,0.11072516473913706,0.054101352170675854,-0.14903956822722986,-0.1766338825533097,-0.044399642581710155,-0.07811922160425779,0.06463956520972225,0.4051639647520424,-0.29507082871496076,-0.1641313542141866,-0.09356814709029172,-0.6015018527079093,0.2204389907368745,0.06608157842417674,-0.5745318262706304,-0.3292045696521535,0.2674193185762024,-0.09048243042776866,-0.09404310828128809,0.14792693654751077,-0.17894818606715276,-0.07724084659560934,0.31939555236837225,0.43908281546851946,-0.15349151702296154,-0.14939549795316145,-0.026865571815459642,-0.9508160836771166,0.28239233731130753,-0.08185044589416392,0.7299095156312633,0.21277597859384126,0.004120385054640768,0.09272430624760838,-0.04688312599936993,-0.7615378226989227,0.008857660346665491,-0.07534622486030255,-0.2779172154992314,0.5131065960195984,-0.829308872077705,0.4826911942766993,0.6632853625182031,-0.7198163882962085,-0.9090299108893921,0.2818603586408182
230.26405334472656,1.0786895751953125,0.2975017958816692,1.2143354245247129,-0.1312040678955846,-0.21151065659316876,-1.2042052366961764,2.4042278476076926,0.3425056121985156,-0.15493455643508477,0.24582575579752908,-0.7957185175262415,-0.07120140709366352,0.8608681745277295,0.1460049108181984,0.13147950651500775,0.19099277533252557,0.07875547278617605,-0.016899783068424344,0.019610471520864165,-0.07642625819158634,-0.010677049590166316,0.042226018230982515,-0.04258083469415734,-0.019584047268717975,-0.02405768079455893,0.0018895478261876301,-0.027146948462662263,0.022788326839515084,0.02468575835813013,0.16720961111771154,-0.00880831278427517,-0.02339002827444553,0.0012483695400124506,0.016261888167304523,-0.0016107728057247013,-0.0017081023376481759,0.04408081663847891,0.0015897013585215833,-0.011340187424313213,0.044463968588915895,-0.06656959174226768,-0.04570615587943232,-0.005158693032338395,-0.17030915955921397,-0.27423661733335203,-0.4884763727762288,0.09057616636409951,-0.21019925380831,0.1264796412911358,0.060313936557265004,0.08759264060328338,0.0067784288819222015,-0.18622420953113294,0.008888780800165922,0.06526002912242858,0.052894793095650566,0.04529342551686182,0.11895109157331796,-0.0037398534780271474,0.007727501226383513,-0.03275610917746036,0.13674627339221326,-0.22583639265070088,0.22372970406900994,-0.3970246219482554,0.15806633482506233,0.16505606977164813,0.048134827821452175,-0.23056629968811373,0.0020569623896009165,0.05181067325140771,0.041574137691587076,0.34534134403003325,-0.00808379087739157,0.5728402337942836,0.029351851223288518,-0.008275813892289565,0.22631239485547128,-0.1533249064719925,-0.6698218419642155,0.37205977137980717,0.12668157491898324,-0.7642077057172513,-0.048972762628710385,0.5668365530106504,-0.57776788920691,-0.2592658668213875,0.17343565624794877,-0.5335249170965642,0.28717022583238816,0.0368445467918745,0.07906664048562187,-0.05909442904195297,-0.18411867326661016,0.08775384195758695,0.21916835726582493,0.25431478851339684,0.24427822032121915,-0.22077432328468644,-0.2324157975683248,-0.7269441448589948
