start,duration,0,1,2,3,4,5,6,7,8,9,10,11,12,13,14,15,16,17,18,19,20,21,22,23,24,25,26,27,28,29,30,31,32,33,34,35,36,37,38,39,40,41,42,43,44,45,46,47,48,49,50,51,52,53,54,55,56,57,58,59,60,61,62,63,64,65,66,67,68,69,70,71,72,73,74,75,76,77,78,79,80,81,82,83,84,85,86,87,88,89,90,91,92,93,94,95,96,97,98,99
13.544549942016602,1.3085994720458984,0.009708915493342296,0.006005733132576522,0.12676033869163908,-0.17686823930875478,0.04145585335640131,-0.03932340746419383,0.10245809701273596,-0.021053648158525253,0.3880897940877999,0.22882180274418243,0.016313314598786974,0.017359598044736642,0.05707604080027388,0.054318089667238965,0.044002573843729166,0.05601074708436135,0.0040338447038055815,-0.017806953858947656,-0.05839153315140779,-0.10976106615979041,0.03266227380692334,0.03477348529554964,-0.00842670644617053,-0.03353493925161883,-0.021081294782606057,-0.006302360653025453,0.06274570831223777,0.05711955312115691,-0.15625300197322442,-0.026854045495733055,0.04305081000404244,0.11614329874943057,-0.16655460998682087,0.17118778324534872,-0.20972651147673038,-0.16099086151705752,-0.005801945182289742,-0.0070445334524413695,0.029860180407196006,0.12020710924068917,0.22283785131579448,0.12093251518647394,0.046136897061855156,-0.08205591694323175,0.011758411685327957,0.18502755138846713,0.08490134129745364,-0.10898620596360384,0.007992164500282806,0.0632221980148709,0.16527343641695552,0.45972088398980365,-0.13149139874582128,-0.11087323444938464,-0.055824766806499705,0.002012352799974391,0.007494615274293051,0.02368201441718893,-0.028405708110105357,-0.04066077497783726,-0.17165413103459815,-0.02775505393900923,0.013081026091740187,0.05636553473586034,0.015980260496026046,-0.07081737776303336,0.003149435919720501,0.04410197381782384,0.11896692595634614,0.1235683064625558,-0.07237779604512995,-0.15910454601336477,0.11101778831267399,0.07314048426814734,0.19614721963184056,0.11808215388287968,-0.33719950302098534,0.13230478386266262,0.10938537809085475,0.12024039651710738,-0.06014983159121244,-0.06800693895702653,-0.0756327114405244,-0.20042557293988297,-0.059419979871770945,0.3743644175909338,-0.08129225470813128,0.07001398532347006,0.050993922652248946,-0.09175502770675503,-0.0301823811206348,-0.03282367311901934,0.17231550341801138,0.03502367687000334,0.032925330814834446,-0.13755299944278337,0.04278594691648175,-0.12394241438552131,0.03900637089799375,0.5649547225755671
14.8531494140625,1.3285999298095703,0.572087554811203,0.46857713116228317,-0.2208504260148687,-0.6416323065347693,0.17775481271178017,-0.4575642300080858,-0.03820391494366552,-0.05421393863482216,0.17922894852893523,0.5332441629113004,0.13148028513274723,0.002883100146809297,-0.09444734562841521,-0.000948394833463091,0.03806561984076407,-0.15769081928108838,0.0006599492644483739,-0.00817460243112364,0.001098607404570441,-0.0774943974905664,-0.077764205795375,0.057968813313828506,-0.005994041453208744,-0.12875210393367992,-0.05767258625860399,0.06396527584694431,0.18349997291896558,-0.09188724325453726,-0.006626931871875658,-0.1624523653818773,0.014385325746208058,-0.1565716864133026,0.03576445349850381,-0.031117435542040495,-0.09760654297117234,0.21637946217309195,0.005299807526334653,-0.05241787720281171,-0.16655330367566892,-0.06440456495262338,-0.22206036707754073,-0.24173396008322173,0.04966197468245692,0.03528492278203212,0.13204387983097135,0.1350722356698054,0.16534398648090845,0.2041980458728251,0.02412229047713697,0.2535307638761433,0.30059474303947825,0.03398643363092387,0.09700809755127675,0.06963366320132057,-0.15342358433950037,-0.11470725938623613,-0.0992095765437971,-0.08291173804209061,-0.06331410288326418,0.06146117315788689,0.20719834945533516,-0.024213983894086424,0.05689783444114231,0.034276612648061144,-0.008342751607900602,0.0048255245501889164,-0.009702434804020721,0.043686459724088834,-0.061235744039633354,0.050398610696421535,0.04770051652191492,-0.11573210138819287,0.070545834713813,0.16705991530341616,0.0256786456673885,-0.009588641281730377,0.022937987867369475,-0.13034354438179072,-0.08256517357599032,-0.13182322304612795,0.033363834398404346,0.20053698543207946,-0.007279981864479222,0.22097972818750222,0.16261753096324716,-0.13307738460902074,-0.013727381075746892,-0.1723014736054191,-0.09681241922416399,-0.033865563119816484,0.08070555146946165,0.03514160844271841,-0.018269219608799295,0.01033556698681858,-0.02036509501932349,0.008966612592238455,0.02707163407715124,-0.13163553670199493,0.415866103080875,-0.44513337917279805
16.18174934387207,1.4580001831054688,-0.45786109776578876,0.12491054803464857,-0.008050152929542004,-0.6768067402223965,-0.12455986333209806,-0.07517629003241669,-0.1886966892286258,-0.013174077111366495,0.011838019993978044,-0.008630413955738289,0.020422775364208143,-0.05108973457424384,0.019920394081609814,0.04186637605921875,-0.004067781756640743,-0.015804060980803024,0.11839805226136817,0.13164521896856468,0.16235869566989122,0.08271069663191621,0.13356027614192129,-0.03563814559177503,0.04271770408095956,0.05269385295301535,-0.046228728288850676,-0.25136338673035924,-0.0337780438873863,-0.0005894446458986896,-0.052748065131540414,0.0164940965260955,-0.16856668569377503,-0.11200261027145902,0.032298723088781595,-0.07005601725562684,-0.1504590696962691,0.012833209556539351,-0.00015744326816649612,0.06864043714034625,0.03052945975671016,0.06223755290847964,-0.3044711487253118,0.03384379245781792,0.11016468089811679,0.13645989594192476,0.3304879608332335,-0.22622149620044074,-0.03707393701160881,-0.07186189639973548,-0.09166015843373679,0.231284401806762,-0.03897445525463711,-0.14225491488657743,-0.22539873535941354,-0.08115524104852886,-0.1517938073542302,0.05716398953039642,0.05009447208577338,0.03663888714976197,-0.03476152885937294,-0.06066579016523172,0.06494931586531481,-0.09184762086222485,-0.011538366813058703,-0.09641871461001504,0.0849244389690029,0.204865912148664,0.12173760387580004,-0.261967536287715,-0.26819915361594904,-0.47753040149733805,0.08360784416200052,0.0034782382015817424,0.11096348326536581,0.06111636139856749,0.40163797416266944,0.5546690444773983,0.6599697025772341,-0.2807306533568541,0.4135186928737619,-0.037251625569113905,-0.07406364702879313,-0.22060704623715194,-0.04750537388798977,-0.1105944556849078,-0.08012237473854356,0.036705569452527266,-0.006748640873674856,0.06361107432443495,0.14043584756709557,-0.07454707261411643,0.16897796453094707,0.19758402183723078,-0.04340376083083064,0.013989970030625222,-0.05252657804810202,-0.04927490945978575,0.08022224436339698,-0.07616526122958557,-0.11988732515149689,-0.056507382839013444
17.63974952697754,1.4687004089355469,-0.10729665981028469,-0.2001316254920249,-0.7725970197243893,-0.09398270659167397,0.3162789721599572,0.31395850653031104,0.42761508654840996,0.7339621998474154,0.1599183446241711,-0.04453736544610214,-0.03269695323961123,0.04439017128107394,-0.029614481027421518,-0.24694381848738078,0.028616284967842905,-0.01461417929738337,0.017102794230949805,-0.20763805073133196,-0.019311596656103734,-0.06045111972798518,-0.07789907908128788,-0.07987384829229704,0.04151863926364655,0.0664019120102665,-0.004719393537812329,0.03999056998555159,0.05855477904975786,0.04185558755780146,0.1473302369422177,0.15190402794407273,0.12354558647908642,0.027766302449529316,-0.14158344400294134,-0.0069250209565086505,0.10912650686380747,-0.296056508071732,0.2248786245022009,0.0453769265683876,0.03892864612376411,-0.033026920174833455,0.004789331723344082,-0.04949260870555274,-0.09218586949386087,0.02943344253800451,-0.03912808695927052,-0.11366007857589491,0.07848903367502487,0.052075653986452614,-0.18701847501034702,-0.1338244549456711,-0.292409084750413,-0.030422047490506195,-0.12018562322264749,0.12487704106701303,-0.05329835117475109,-0.0007589915807651208,-0.1327788663190398,-0.07299252803614928,0.009236265765358747,-0.003304988935755235,-0.07063045184192651,0.057600330469307445,0.14113037754063112,0.042150905707069045,-0.002830026000228694,-0.012424989115826247,0.15690220610794114,0.07208368984795306,0.06527436744099425,-0.003828154050674916,0.15017984379977975,0.0021904790914542924,0.03745453106386546,-0.14730280734293116,-0.1271461319049379,-0.17377278671118013,-0.17294923895058992,-0.10997013786300823,0.1578345708546236,0.33775038467550555,0.11544372299410147,0.08847558979195463,-0.5998435151154855,-0.8782496270517888,-0.21647679539786224,-0.1850375473528554,-0.06619729581011888,0.0356286482977204,0.14590369757313215,0.021871363007831317,-0.04057554604561704,-0.004129152912645467,-0.07284182688414749,-0.05728298188780796,-0.05561241317601125,0.028214663351330715,-0.256717405258242,-0.2843162397833389,-0.13428560055068994,-0.10713945937673575
19.108449935913086,1.4183998107910156,-0.1056916166527495,-0.27898892985732515,-0.1642339612324771,-0.4575654090868461,-0.8654419015307787,0.1636323825666651,0.055456460423118706,0.028479707421852945,-0.023399851720469562,0.003694251165929562,-0.046316794981422625,-0.0070094468616300155,-0.1336798279123274,0.03693115904172087,-0.0227840933550596,-0.07966720300512,-0.14063052846148344,0.011992912440040415,0.08034872687705753,-0.0028795382828218294,-0.12111844300595243,-0.1201275086163411,0.14320478618766141,0.21233329946172516,-0.044781522525930616,0.03067483164414757,0.020351456440553105,0.03533220456105558,-0.1803262810234743,0.03380390824505958,0.1617988168443526,-0.0824783535117615,0.09801030383651453,0.14666967310893472,-0.007866190752824463,-0.08773722381886408,-0.1985710866147743,-0.06360776539179769,0.3169809401453041,0.10380023255545041,-0.06504341807808266,-0.18596328607524287,-0.24276052247084817,-0.021275970619027404,0.19341560595622403,0.27529813295643524,0.14664672144188765,-0.08132619853248481,-0.042594255438713674,0.26410254819076423,0.0713561871703402,0.062191028130662206,0.030647779610581197,0.2584011162009069,0.04657641432091785,0.16624793686383554,0.03463434135487436,0.008973853522557786,-0.012212350551212003,-0.007158261186550871,0.07160321167047054,-0.12341094329120458,-0.0172069960786087,-0.08187342852943852,-0.10526442296124466,-0.010345352711172272,-0.06193145534525559,-0.0055034575106183824,-0.019896496448213428,-0.00803040898407987,-0.05534614052258706,0.0953131432305455,0.04320992284768011,0.05708294014750397,-0.07753803912150697,-0.03999650577303088,0.01712384662310113,0.008597264873298371,0.1247299275507192,0.12027992654869478,-0.11972780191387622,-0.10121913888976858,-0.058616100392831307,-0.3494622803664187,0.1804087113564451,-0.0034197557718563046,-0.07683573179602873,0.11661940421645617,-0.01169209752640882,0.006659237296794052,-0.02508912690322601,0.05504711033602899,0.2039800859564383,-0.15335928245303115,-0.1277955936887289,0.06370057519044416,0.1172727624255474,0.5060562092737789,0.23636583349792376,0.04019696922205107
20.5268497467041,1.3285999298095703,0.3308166658246036,-0.25998371758583794,-0.1847679090085575,0.19807742554534083,0.3820439970935754,0.3216192627493156,0.021941445749687025,-0.05685759902619428,0.005498075835928193,-0.08383583268630629,0.054112510135383755,0.03235372756258736,-0.13635201988645207,-0.058608321871073774,-0.05127872397662388,0.01876233472943116,0.028476594761101093,0.04137964050871495,0.00010411390099771684,-0.07642759478394856,-0.16783982956060803,-0.00747438531843516,0.016363265271408533,0.07237046195830418,-0.030764450669259296,0.0866078412914668,0.17707754475320434,0.15179043623686905,0.11582124867481652,0.04062230121391944,-0.07603881811198644,-0.11013664731839949,-0.11646820765015098,0.021977810665513228,0.09743011328685497,-0.019466192148556136,0.07918824731225949,-0.06670653473276397,-0.08962262216855896,0.34988749527524104,0.2320132457522963,0.2750848500952356,-0.0597765848356987,0.17579745020694548,-0.12197420286031686,0.09160004811238348,0.2701134205912232,-0.09771153555540828,0.026021219219383183,-0.028080725546334936,0.012508203808867477,0.0053421112417448915,0.018366044343270556,0.15878104626241157,0.0107756683768216,-0.15006491112663417,0.014980970623148052,0.015162592044685782,0.006041269664933796,0.025716246631600076,0.061909718014116405,0.12352192207992246,0.03667243230813618,-0.029075778240866813,0.07138304463061591,0.008878567261991968,0.026565010558900738,-0.04118475077789264,0.03439327605567924,0.016335298745136256,-0.2938107505526687,-0.04605604550086527,0.05030622298769215,-0.041162196154190867,-0.04517271441535428,0.05468324603459447,0.23758752505081188,0.06171412490293135,0.1854400121508139,-0.007692375501809873,0.5444605751729816,0.7393360126541084,0.4460349738768943,0.5122956656654074,0.2819042848274131,0.04140188353942833,-0.1004441500244402,0.031223550887101055,-0.07351224305273733,-0.6146506585269556,-0.740770535994688,0.004885895801782468,-0.08604277947883368,0.3222417595265467,-0.4653086693922455,0.08909521859389333,-0.05850466061685877,0.0565093438010249,0.01632974659163227,-0.007698518999211035
26.37044906616211,1.5778999328613281,-0.36112113980940463,0.4868179267859459,0.12737142886380315,0.019191262403434932,-0.07927729660271336,-0.05110693233789871,0.06222668271251594,-0.0263743199629947,0.006693473458636648,0.0188414800665283,-0.05727414053863932,0.06443805806629156,0.05845725902063858,-0.08140005872971962,-0.09532041632453075,-0.01996413508959148,0.07589048106541223,0.10873752627787932,-0.046075795247708974,0.06373635989776467,-0.019641816162188148,0.022993704914773302,0.0065107514004190065,-0.0421657675365397,-0.09819617813407158,-0.05300483991488704,0.06048712893374724,0.0018811609911585474,-0.033729781655479116,-0.0645178102247611,0.017480860581974476,-0.0809924403810212,-0.09739951251949402,-0.04871750297786667,0.015497943961568355,-0.1479351852572798,0.12084791303870497,0.056231342225388156,0.008222268479688426,-0.05274486915256301,0.06704220006623189,0.16863874495469253,-0.26589526698381494,-0.21597000321958823,0.07513396540389791,-0.02955309507089502,0.027455656001032752,0.07573694968916074,-0.17615024974896967,-0.12486039802347289,0.1328742508031769,0.0022977509649718952,-0.07216655481202494,-0.013785053850583227,-0.06252280123588841,0.1103322717819075,-0.0028268772358819123,0.05611957791709356,-0.5573445152999358,0.13376142229689653,0.8140782839081688,0.07396622019791656,-0.006349245132349928,0.07349714168253423,0.05107660367323106,-0.013459575885875937,0.049481485969412424,-0.05354847455142653,0.06450066845053129,0.029514704919675897,-0.20954248725101793,-0.5319799402031719,-0.01332336694523865,0.05156842764037779,0.08263138748111741,0.46157064666219855,0.3450491368908258,0.20374972944478514,0.25128712151635246,0.23815749593882682,0.30100529117047553,0.03495580908654322,-0.07321525323698654,-0.03631217525957528,0.11528072774176823,0.23344571579886383,-0.04214972031205965,0.12470994958041158,-0.029703753821738677,0.0055593272897311585,-0.0155030265048586,-0.080619630332757,-0.027659153666775325,0.005037592808472515,-0.04124734583150619,-0.06260858631780304,-0.18317096815144962,-0.0738090762920972,0.05446857513642538,-0.15656833740551335
27.948348999023438,1.5586013793945312,-0.021907428962997827,0.23361928090970943,-0.24122119657391844,-0.09496947561124944,-0.1918379176060013,-0.14877236721639017,0.26208660189885413,0.3088954330635802,0.14758010416746398,-0.15125638847862288,0.022892532370487554,0.15939389077020727,0.032813484560064984,-0.02983637513874224,0.047233597072158046,-0.07406955722148999,-0.04809960259590414,-0.03457397407562008,-0.020192446778537126,0.002683354086115132,-0.005018454208544394,-0.11851945765521643,0.023910830724456728,-0.04660993221758044,-0.0278098034682722,-0.030980038120481224,-0.004132562012409643,0.009697961400654402,0.013924252683760938,0.04757047550486848,-0.10118321301156004,0.020216204031433052,0.013641286086989906,-0.10522036965617038,0.04593224939900786,0.06719143235047975,0.004113836452762823,0.0009137415723724247,-0.004253964087132047,0.03833205366469024,0.2266777757279403,-0.02718445754889804,0.011439866677809994,-0.07730196608606892,0.005655810838730624,-0.030290726731605044,0.46665630009784587,0.039524908195853574,-0.26641110932416046,-0.11095970062949143,-0.16318579209434642,-0.19594695088270414,0.08263903007400095,-0.14271208594056395,0.15255003678052875,-0.0231384039385947,0.016144935088747286,-0.06369068904375488,-0.1352252354093426,-0.11327538028388545,-0.06398807788388645,-0.06404311175468352,0.050773859726244076,-0.19790056239336812,0.32494103812761865,0.39272636057419963,0.1890810625565571,0.029537193298035433,0.028009693711345065,0.017186597416889812,-0.20267478236088904,0.025136380168572253,0.06000392019669557,0.1447472815806406,0.07123344255387315,0.09428987343813569,0.02480054886725278,0.1163337262788237,-0.2885199873244716,0.10039026137924448,-0.2529426216576418,-0.02488309003962432,0.06401714055905416,0.12186253543556955,0.15678059959092208,0.007677707474861191,-0.005698552811068246,0.046144702706300264,0.010688220295456227,-0.04213242628794329,0.07513888469500413,-0.08648467562246437,-0.1081402038134039,-0.010906448292806788,-0.11957653830902254,0.06241654507883723,-0.0381970218511076,0.12767826945377087,0.6608128078192358,0.3025008642409524
29.50695037841797,1.6180000305175781,0.31240004815701305,0.20622076024995178,0.0432571728280407,0.6483247014059023,0.19896223076820052,0.2150538147371664,0.04272846419220845,0.13173573657790977,0.5068857450122242,0.08090855015860428,0.18377028689046015,0.013738469343033551,0.005697488912550766,-0.005119087781949194,0.03436241241639881,0.0070685157314174085,0.03527963058229957,0.019873835173211,-0.06271093827151449,0.08375959479284568,-0.012229401437351371,-0.03532472583325966,-0.10695195933008403,-0.022734102776938825,-0.15084166626530993,-0.007683183599138614,-0.03280182311528839,0.09104798418290264,0.1106185688481328,-0.12430756906495465,0.07870946360875636,0.22608618122672092,-0.11202779198030534,0.0836759679771928,0.024336806871003452,0.22130958873323273,-0.003328409910678995,-0.10377788953058052,0.008687373992560254,0.14474000331671194,0.15707877986576468,-0.14402097107510312,0.1974183425911057,0.14937435025480958,0.043537729764333837,0.17792428742022584,-0.12372353421608286,0.218518156854487,-0.06178250522574278,-0.06264204482679486,-0.008992160664910417,0.09479433653044966,0.05105501296984628,0.017955033975509148,0.04533331001505881,-0.03955831851760432,-0.10888141799190033,0.1719033578901024,-0.31138423232586226,-0.11337270002729541,0.37176655157054495,0.13466398490416692,-0.07122115445677149,0.00798194302679343,-0.006310978961657453,0.02533444655643194,0.013206696962747065,-0.06811104031655482,-0.09064578112844202,0.04656179031751029,0.018411278331614333,-0.21943884292568994,-0.3033858047142259,-0.11599312249361937,0.0011694400355409243,0.04734624361724918,-0.16702496781305204,-0.30385385844938406,-0.22210630783841137,-0.12530206851388243,0.33456224948777646,0.16128483149598874,0.0013837369905330965,-0.1080002364178256,0.1870430187854413,-0.03704576210843803,0.038558266023359405,0.052138975383672057,0.03729820278600553,-0.007377085420752716,-0.01558019539894771,-0.0052735645430084035,0.09887359090443576,0.008468662163309604,-0.0704833711486205,-0.044935176777581985,-0.057107520474724636,-0.02529338407351541,-0.054739436301662295,0.13699997659214352
31.124950408935547,1.4884986877441406,-0.03305291535809818,0.20327164571727754,0.1618020281555684,0.5667508537462886,-0.384658449276133,0.11004350082106347,-0.018861930902894775,-0.0031381921776714805,-0.07228250586174688,0.12088602657025999,-0.04154029562586345,0.024529826953880292,-0.016632527902085296,0.018191601712816204,-0.0022536366453694188,0.008830661500642156,-0.029584271643475175,-0.15791030647274784,0.01810348353098004,-0.09358042893068808,0.03819473825835753,-0.03047311917145855,0.0005209445886559668,-0.13280860208330272,-0.28424903838535026,0.0023250073794103972,-0.01495573958011892,-0.08263319200448511,-0.05176391212618535,-0.12365023946646479,-0.040423971916240656,-0.25199294683224616,-0.16875485043746147,-0.15146709064930008,-0.06765026744426864,-0.0044190286093542825,0.0802434136667179,0.0034796689052809747,0.050856751904270255,0.04179701048933041,-0.025712600259291493,0.06245234951057804,-0.16545026687946465,-0.1883218196010437,-0.280309897842016,0.06104812390704337,0.2514118020647037,0.36338913284600083,0.10482304325952013,-0.0166827560860555,-0.0306179546050733,-0.22144444039270958,0.001583902689362121,0.020348886130526378,-0.03496939527934657,-0.03582836772969952,0.022242337422310965,-0.027286013387958455,-0.017965083501371333,0.11301763363780054,0.012148024261355549,0.09548321821583139,-0.03045452052811463,0.2589502646550224,-0.06260898085156752,-0.04611153676133956,-0.02563555137900945,0.02431429455062568,0.0008050500959593787,-0.05596221091193705,0.044008825808817674,0.2276453518029672,0.2482191793139138,0.013077329686171146,0.23587555684303538,0.17134479156233753,0.4580727146606997,0.1294085752737496,0.3906412595676381,-0.3086237507433815,8.902156009932272e-06,0.03077526193541437,0.10010162106692713,-0.0822067611449146,-0.022155861779875084,-0.02605754902979219,-0.029928761647258162,0.01580901031065728,0.02569852582207774,0.24463863591065194,0.020673649224538806,-0.054549730237134074,-0.01051251051779317,0.10787013049200683,-0.043251733735936,0.040636609590460046,-0.08172445520086877,0.04233406127845091,0.1976011606144449,0.015992644773000747
38.726749420166016,1.6584014892578125,-0.13606708512399923,0.11150734559491572,-0.059217462387188016,0.15730274382888676,0.028095402383684357,0.1310976081458485,-0.0901704953578243,-0.0019295288812091586,0.11761301621448565,-0.010558934693918724,-0.07211216054746875,0.0013695323692668956,-0.020506598785824583,-0.027570096107961732,-0.012444961894938213,-0.011954369695766714,-0.00043454157683697157,-0.06394115001153722,0.05570257847241289,-0.012863197962973269,-0.041605548536353475,-0.02680036418305861,-0.10529357502384017,-0.12401227079325317,0.04669721730139565,0.06263202017210698,-0.046628263831897186,-0.034157819451039274,0.08982566085468123,-0.06764075127547105,-0.015270995206214975,0.03886619983113053,-0.07496020272530596,0.11670460439003584,0.0740486755909175,0.12593293323482546,0.04447282644891953,0.055774425275419266,0.021678916612142732,0.12178462185390102,-0.06444936657717706,-0.015433267464308752,-0.05182074334877847,-0.05301225236600589,0.10296828587670356,-0.2490024565790102,-0.035340334786021735,-0.12851800734555985,-0.17394190321787456,0.037497918821783785,0.04155155253917421,-0.08801188242341018,0.002171764860114591,0.024172465929798076,-0.09815558093108878,0.11830869111511487,-0.08615139948463825,0.020537779755349324,-0.010494613203286374,-0.0007722436618458584,0.017831834928411713,0.050441981205089796,0.1550260309557887,-0.12742159334614578,-0.12490642531293432,-0.44521459600243346,-0.09228466416953023,-0.030793616770992144,-0.06089389730309428,-0.03609321161039668,-0.010573256572981747,0.006314531664324895,-0.016219671572885057,0.04731649035446325,0.40868113570960546,-0.08888528913997731,0.22199117968679546,0.6414069647868489,0.21765668683042605,0.1791998313713387,0.28321672857636093,-0.15298185127445713,-0.06819445162382275,-0.167090845896423,0.026479442678682123,-0.027346835349063115,-0.014959207172372944,0.04285211200199418,0.07508271518539407,0.015326562038395853,-0.04383592454866381,-0.0397790082367229,0.021599138549964512,0.08542325645921459,0.031871547834683135,-0.016242389050386438,0.11474065341230734,0.05285036179343739,0.29037101168162877,0.04880733749841032
40.38515090942383,1.73809814453125,0.07063574829552248,-0.028790914290985698,0.06675452291020176,0.08221757281211514,0.4690128761422241,0.01653330538038733,-0.05023567689914308,-0.01663337394714428,-0.038569389743334036,0.19776574133953426,-0.26319713561686525,-0.14226175526413082,1.0575557643780062,0.2037664381640035,-0.14477149098014813,0.18892308137318867,0.26353150651076335,-0.6389525922706466,-0.18101941535148575,0.20569754196242285,-0.08757449098452239,0.2655155190914402,-0.3282192276251569,-0.2667972567442713,0.016595377086762154,0.02397275646861939,-0.07257526951935905,0.2005341256561988,0.23150226640203087,0.16917274469863064,-0.05221195816792557,-0.07128454048831007,-0.010275034226051518,-0.04059907090957131,-0.10381723154476084,0.02360195021765568,0.03532662382051183,-0.011552852729308252,0.06508847363812789,-0.11344069326265309,-0.19137086828771663,-0.03328660988466259,-0.023305556475536813,0.05977788656135327,-0.03227892997810264,-0.16832124177503646,-0.19371587456324277,-0.05298603921159313,-0.04467127721529384,0.1161283266843472,0.11028150929549281,0.21472541663042244,0.2622689711628161,0.16231944093238207,-0.09617813074440322,-0.12633274238370434,-0.03690770053575443,0.07400465764544059,0.16555154040200323,0.030471135620819354,0.027601567523329415,-0.012291695005147478,-0.05767943267617709,-0.16226216757115045,0.5522005394690049,0.15847546268057303,0.027691926089031076,-0.026486128220226706,-0.005364854639110083,-0.016023109554326325,-0.08466395121113482,-0.1543358472572668,0.13865288539102646,-0.3508493190615387,-0.0224131435471161,0.08322689082957255,-0.2306676470915089,0.192456998313373,-0.44873943445801556,-0.3781291071776443,0.02577098986747725,0.4557500327509862,-0.029669473053687254,-0.256220799760405,-0.0004970584553719007,0.0057438130777079975,-0.1308012847100085,0.016645088024318425,0.04414867729375523,0.04941186959873186,0.0033160755792944665,0.12676328044107443,0.14512767385862818,0.001129967929940745,-0.041661502870811766,0.26233971792713,0.2774450926131569,-0.09649719163465685,-0.17388491444520227,-0.1554041190011794
42.12324905395508,1.6483993530273438,-0.06606028960230269,0.15791698012394945,-0.7509818952269861,-0.364223589884075,0.4329568979054348,0.3968174663626055,0.07638436116279171,-0.1493204454755148,0.21944807705560646,0.18628354832536317,-0.1045062645310384,-0.03809740596754725,0.2144661887892448,-0.0073581515545087794,-0.23440896834204417,-0.09388483083273846,-0.04299128013912897,0.3126750372013004,0.13766896422399433,-0.09226339346315697,-0.7310214990597272,-0.1104680354163781,-0.11195993523806998,-0.02567916698922944,0.00637806807825958,-0.08028501875109616,0.08533405556086464,-0.22436087495611862,0.5518736515216586,0.08945071628293935,0.01791936252574626,-0.03508635369709756,-0.06376647531422697,0.05026947332363324,0.045282436155491275,0.04981225558966467,-0.053801380945257576,-0.022261245004701863,-0.1578444531776274,-0.0905510447418633,0.1095433026706045,-0.13045795759845857,-0.09804532808736743,-0.07834522447229311,0.06015418084983824,-0.11139452370991858,0.00251631309671777,0.08945639284378819,0.16001019324380997,0.12229963663399297,0.1702121174631431,-0.02422912648596674,0.16358012358957463,-0.08673068969650255,0.0769643246049891,0.20760089393690778,0.1646451350156622,0.09056077686174914,-0.005894228022409932,-0.08871170255548087,0.3355471002818492,0.11823039309434215,0.0032800945521278845,-0.0058058729584505395,0.011255341828904466,-0.13507947901738787,0.2506574222557403,0.44406085022874847,0.23736511497880727,0.12072745349108677,-0.018740457478501133,-0.0011025252525350459,0.038934621129390126,0.05379396784235862,-0.02716367240766114,-0.06521388978852476,0.09926881907958295,-0.19866410596570644,-0.1072537754558989,0.5847586346514785,0.14401892838355915,-0.27001613726320073,-0.10730120282741139,0.2311327693934636,-0.2362136588944137,0.03234656475452318,0.014636743353054996,0.1286647955778462,0.07781824598741552,0.03401602122861872,-0.06540328533005207,-0.02968126952219543,0.03935314213357199,0.2166236941524442,0.05703045278171946,-0.05653953456051806,-0.0591928645169207,0.10026344557676702,-0.15883611122598967,0.10759390720942219
43.77164840698242,1.6378021240234375,-0.04306428003007137,0.058554934149820916,0.24347304195293626,-0.0798483889217445,-0.07641589081800591,0.28655700027050535,-0.003265817016582626,-0.0575562142056869,-0.0616374608901611,-0.049818511096711274,0.11966739732778052,0.16332568099325936,0.18977005376634956,0.23989842014678928,0.34734614440097106,0.3225540291561964,0.19709511180871653,-0.40331664576104653,-0.8822062400003979,0.14476581260175034,-0.45804243848636594,0.8723951370925945,0.27532594270704863,0.07702539763036889,-0.47979983131853393,-0.11662470531795659,0.4730332287272145,0.5744857570654027,0.14608674050061843,0.0894733324603244,-0.22322053802566677,-0.007055097134912936,0.06621310734809288,0.010143842917605311,-0.13906474800169552,0.0578316974632046,-0.11068852155298468,-0.18566765782443284,0.05356648658224385,-0.16865784830929348,-0.018342121103832154,0.30541289800850524,0.038180773684461614,-0.12592656580477557,0.1333640559835623,0.07202643439075626,0.05654112851883054,-0.057589262548545725,-0.04730699768992136,-0.2796685698140632,0.0878066735330659,-0.14479349432023886,-0.26241099383438016,0.016104186903871942,0.19844876918323417,-0.06819763263087969,-0.3053411597631032,0.0050375102911402085,-0.020770500902024328,0.04147643876763309,0.22442883466616934,-0.14207173542701834,-0.1524024018999399,-0.14576035088997052,0.23556795043313908,0.11529442845501402,0.44841664366913125,0.01818121727409249,-0.15085193726496307,-0.006952301845475906,0.029082634625835914,-0.024749167338756043,0.023969415714864464,-0.3926565310963236,0.08634406322733039,0.6382344215955219,0.2059787839605976,0.2516183210640843,-0.16689627267027457,-0.09424600977062361,0.08400270892783741,0.7867804177453763,0.3123602756969748,-0.669768316091708,0.3685299139465295,-0.018132035143130873,0.03823879436557419,0.0011828845872532694,0.004327955737247867,0.03658437558990907,0.00172056646423261,0.052439735819288694,-0.1288851845083421,-0.09769649714020219,0.34108006909781213,-0.0020739939974028995,0.17393162952214367,0.43102973166402364,-0.2776019978954213,-0.059889738945847704
45.40945053100586,1.5081977844238281,0.06726040404510356,-0.751895859291784,-0.043807389173886005,0.006068877998464256,0.07366774951620769,0.28088766468692933,0.20114815356992605,-0.03245976076393126,-0.1091382946778219,-0.09546705397803114,-0.0142195967526592,0.002169946061582573,-0.12022990930948899,-0.3176166501031267,-0.07276344440484092,0.056001495298320506,0.09546719803574379,0.3266799712992915,0.07925204232383844,0.6402512819386177,0.326229238932214,0.2225980946456781,-0.011484615214650034,-0.1724868642431806,-0.17759999811829866,-0.3225423394496324,0.31202746087620326,0.029522004887591977,0.01836561421402376,-0.011231728280655927,0.004433655560021986,0.16264687291227745,0.013088575045233461,0.4403197786539665,0.029672803716935738,-0.0535674011041765,-0.028155900580751042,-0.04475310474841536,0.09494545394023117,-0.03675264984759447,-0.05333238000460734,0.16601652224906416,-0.06259794973344746,-0.09767609764518628,0.041177098016044925,-0.15882195239144825,0.07980332211717873,0.0016581765787991442,-0.067158064855322,0.13295018959869254,-0.08496127727672971,-0.08696292338834591,0.12425387967913688,0.007333302051824643,0.02889855307287481,0.12366469040364018,0.1118027803973039,-0.08064904761428089,-0.1453652689538169,0.004284319575005319,-0.005807941237503089,0.008650484811939701,-0.00522165583475068,0.03181663400187494,-0.13375876672806167,-0.4457276400660054,-0.05629612914408284,-0.02881618343855341,-0.13106336603589872,0.044979116602060595,0.0036827134609660316,0.07146076081462904,0.06812523514992444,-0.021364518724200973,-0.05491143830984158,0.15566300654549006,-0.1608212494779892,-0.10357698433580055,-0.0014170171585640588,0.3337298698151376,-0.47469139723845605,0.28606559958022487,0.1583497510130609,0.05595883319651743,-0.030866218416803048,-0.018941006739284116,-0.08246337708201056,-0.05213307157297055,-0.08856639689998488,0.0416667107899639,-0.05561888720069029,0.01013793389562253,0.07566306848671829,-0.03164058353327243,0.23636500323593188,-0.011034223083609464,-0.002193662306441995,-0.16780841865951415,0.9075775245151072,0.12446191770044202
46.91764831542969,2.79730224609375,-0.043167699427904216,0.16321596462444252,-0.8903346244339639,0.21752870374779168,0.344641117193118,0.1656988417766072,-0.09307686872619583,-0.19425968240802757,0.032837229223307535,-0.06338748555214448,-0.060091197483402414,0.021950206933096995,-0.021207070082293916,-0.010704678607043494,-0.1358958828199876,-0.09238147326512801,-0.04509852145815284,0.11526004479587448,0.03344319196747027,-0.060581227435117554,0.0732112517785339,-0.04493932890315832,-0.07768554361298272,-0.08116056647644523,0.044614258116750266,0.11466291432611588,-0.1609608244648707,-0.036655981864772536,0.10182649115364953,0.021092682507505366,-0.10633363017849903,-0.11638336800580269,0.026423068703926373,0.03611593138660407,-0.0060244292664970505,0.08741228552673369,0.0592036906765383,0.20583098739540456,-0.008473431157048374,0.1182412619233987,0.38948388170275844,0.08045072353397603,-0.07999359395631857,-0.010449839965795436,-0.01806753846548426,-0.034750481125596394,-0.10907124587129786,-0.159707786735471,0.31651952561682417,-0.019060993793322066,0.09240209273878291,-0.12091410969974217,-0.08169136934186752,0.17831794508233695,0.1497819805364868,-0.00382135640248963,-0.1538558940610314,-0.15149720427994123,-0.0029163390923515296,-0.092095735795819,-0.0030580686122552276,0.2577904340242916,0.977497005624617,0.859873276182484,-0.10616618513552718,-0.3016836594379976,-0.013976844616783266,0.00588152720482743,0.09773854459187596,0.034658081472773605,0.0024700105600958316,-0.052402296255012214,0.047236202255738324,0.03652218287252972,0.12036584016107299,-0.15668164554116015,-0.10396948753470961,-0.004449049252153364,-0.17872449483428635,-0.09112621101225932,0.021030829540145724,0.35536751463709176,-0.1020305158933595,0.26887091151374637,0.017095717974236924,0.22025900494984818,-0.13906327049529307,0.011564152363147756,0.017226829436341226,-0.00218769850256303,0.05847933138751289,-0.018844418308674775,0.07150629554657606,0.038661506062376796,-0.10676153904263022,0.2623236236836653,0.08450947265613382,-0.05981445922247894,0.09129763946071305,0.23685591866028755
53.131248474121094,1.688201904296875,0.10343625596225851,0.0874235948066681,-0.27483716278795906,0.0613426597279671,0.08225831436320487,-0.040905142729346124,0.020182813267689375,0.0162207321883135,0.017356917011319445,-0.008965401317695824,-0.07623904031862025,0.021801170964182603,0.025164076999783038,-0.09871423944493303,0.02017237346721778,0.06778949134052126,-0.07899787431308912,0.08595517847786482,0.02722708891658079,-0.05115195087176317,0.028671848639588854,0.12371694205203386,0.0062120668148614964,0.057248924088230846,-0.010338297093628837,0.06978278634327438,0.32696648629809255,-0.03464584607708635,0.032548444404216545,0.0670290337622896,0.19219351695771653,0.11014129978833075,-0.06687860705318921,0.07091145655786471,0.07756194775937782,-0.016187988701324096,0.05610229174004706,0.08930786469332386,0.12240449196373303,0.16210386831970763,0.11601679361392564,-0.2073215518421932,0.34490669379363276,0.4940784686203642,0.23227741147518907,-0.07629157654714225,-0.1475671462373285,-0.26514105219856143,0.07137034151354169,0.28902413579027775,-0.046457099268493916,0.13188296223384632,-0.2951008549165409,-0.13404057910338724,0.029153365806024,-0.17135737891869077,0.14925275936575694,0.018041609296412946,0.014583350341997795,0.014540963598155446,-0.17581063013958673,0.26963378418938466,-0.2853829094375215,-0.1700464587963578,-0.19684004604807837,-0.000934953220188492,-0.1352357550953299,-0.04670443606986901,-0.07930469173047758,-0.2808936813484394,0.19656526298387908,0.15442358366515485,-0.1879269151396101,-0.2979583699576335,-0.041137566462549326,-0.025971737083381283,-1.1152354345448232,-0.32984631590530084,-0.4366931971724971,-0.2586288900761791,-0.07046534840804984,-0.780668322353105,-0.30661056161059824,0.14755522118420797,0.11826661148646918,-0.018723520747335368,-0.02286644311875165,-0.00030050165941073327,0.03666168530555866,0.049607104777493236,0.10901742685519979,0.13304726840238676,0.10320617581646732,0.06344799664258485,0.13243275918228078,-0.10608823674316971,-0.09690905461609245,-0.2979220533406279,-0.09385990168112947,0.12711016068595846
54.81945037841797,1.5883979797363281,0.1505854764764572,-0.022134406677328383,0.2986121015379922,-0.06256316936550468,0.42872534041702465,-0.028688902412813966,0.08063738219354197,0.08956177400341817,-0.053814250042660605,0.08983580384962998,0.07139421649912833,-0.04572738190886957,0.09142221727154409,-0.0065804119512921375,0.001009514948334803,0.0309592230746117,0.10815154614743622,-0.00615650579444851,0.016315611894924826,-0.016722871692798555,-0.01689989234666882,0.0019937025314232643,-0.06976495263241432,-0.01645795788057809,-0.07749849772990143,-0.040592658952939634,0.004708268294854891,0.010646270781548733,0.022110645218238967,-0.06003300735240884,0.08474306771280671,0.03301782151864315,0.010972885571041993,-0.060384325941707104,-0.014503815998495971,0.02623775931416303,0.011190717738709064,-0.04121871987377346,-0.004421656383506042,0.031291860288081855,0.06186844562423833,0.003089388257703815,0.13113071771045495,0.020903371080761433,-0.04328653409419412,-0.056697823791617086,-0.057556358973541166,0.035906073850752764,0.028411464667621286,0.2540493294191931,-0.24874812145183908,0.12479283510021892,-0.06703789028207911,0.07720544754677065,0.13276260277614385,0.04561857282673488,0.0054655914662714985,0.03731856175953921,0.0030730136342338316,0.5070142907652697,0.22081261130517446,0.4096026823545231,-0.26544445704878195,-0.14563901807925786,-0.009900294524892592,-0.06021730700306976,-0.045855103016287244,-0.01920721683420791,0.13608438330659417,-0.01611158795427533,0.07463916538495255,0.0787608886321573,0.34228650773999075,-0.3608357151755712,0.06796821564020987,0.05113050142069911,-0.16615597659886172,0.03476253771292326,0.05286871098941147,0.25093581718336283,-0.1435475227085459,0.16632235498373293,0.06937236313646963,-0.22377119624657515,-0.21912152131050558,-0.14930212534003712,-0.5729402291968855,-0.0656272218123017,-0.09586295003555784,0.02762587452680864,-0.03235461042068704,0.09417733023271278,0.45772931415636314,0.016452773704921674,-0.384415298637421,0.04859248549972214,-0.06221856811185103,0.09800686993625825,0.584538304725916,0.05502282116642099
56.4078483581543,1.7080001831054688,-0.07682039760047821,0.01898645686230259,-0.2649020410857792,-0.5212815951409568,-0.01430545541485001,0.22292271140453723,0.08791420026835023,0.07118584388199592,-0.03884364722685674,0.023485508623304813,-0.046479735780177146,-2.8044197165273086e-05,-0.016947483077238864,-0.06326010213119,-0.019865409556398095,-0.030072346611663196,0.008022860938608448,0.019573853328119076,-0.0023643418023956086,0.01805889660480855,0.07976705076283468,-0.06839529754149368,-0.01796549049489296,-0.03838451719582071,0.02516457857025677,0.13438645115391712,0.03569704486763285,0.002587309084393154,-0.002155763050762066,0.08153517571646776,-0.037270921635519795,0.011158046140706325,0.1537588620321017,0.024495799182888422,0.020454596310632706,-0.16789775693732203,-0.034613354056477356,-0.09264081394284686,-0.061843613901227196,-0.21384326897807704,0.0771151707110633,-0.09979110680747019,-0.022357454029367743,0.3693287699526815,-0.20225170532213307,0.14389278415628562,0.11855911267642422,-0.2645650776013756,0.07499368166480753,0.07499523150504932,-0.018060918868786323,-0.0025664370194550187,-0.14160099363693587,0.12798916628484042,-0.09818998037664613,0.008801617743598361,0.1055267356656168,-0.12951721476305195,0.012180281322582129,0.09605352343074107,0.43246556487701504,0.35051026521432066,-0.0952394473563737,-0.13794976227098896,0.19514761629561472,-0.034989022329367306,0.008078208039711635,-0.04132041755868611,-0.0013101316228550017,0.023154896555325426,-0.05832205698852421,-0.07660322449102702,0.03088160569414885,0.02910816104506875,-0.07919491299396808,-0.35404746407211396,-0.03855637784332963,0.1921565605985614,-0.24858524475984464,0.4700281444674917,0.243298944158542,-0.10301062551186015,-0.24154417171529982,0.30021876338689224,-0.1516680164596333,0.09073744789777886,0.04405090695669871,-0.056102603484345114,-0.1654244638284017,-0.06651533209684043,-0.08522980605926497,-0.07530945093569444,0.1438737256694742,0.07721649538803835,0.1534752014226081,0.22834267516649634,0.11989278182503342,-0.047163246914232584,-0.25994229692928733,-0.049132646599494734
58.115848541259766,1.7681007385253906,-0.02428111131013594,0.01488816154052029,0.10430223520704958,-0.38849052825611136,0.32233894759200094,0.007077157815964416,-0.1886943472015083,0.003262896867759874,-0.030210487611339192,0.0818692259284722,0.004616724186486696,-0.0032767797318843674,-0.021670275775634323,0.03309732757714901,0.061330874485002906,0.13430631733025952,0.021855811114764794,0.020880629079350798,-0.06401341308670691,-0.03795829344824347,-0.08278223492192066,-0.0002829311876265267,0.010514742625636493,-0.023754003592204306,-0.060282364254623556,0.04354711594981557,0.024643381968779396,0.034798383856240615,0.025600780523999417,0.06518544227792426,0.009752736891382917,-0.036657667457777786,-0.07968489433694048,0.15952485047174403,0.04047348512253933,0.028581556928236482,0.04629373603028705,0.02961243054362878,0.06860016598695415,0.007251843356956878,-0.17899881096985704,-0.048257391909554415,0.08578193379576177,0.007120102199800443,0.06184268316976313,-0.32974892510363013,-0.08946388202830798,-0.28491227807810465,-0.7320127623490765,-0.008017451391133868,-0.00035594270246931334,-0.040701266817134,-0.0863339253633178,0.048004061351237276,-0.11640264649683593,-0.08579104381424779,-0.05752183661509383,-0.027459680457063873,0.06819251724686513,0.5888300169131457,1.2718107092638358,0.8119836366623898,0.10189582932283645,-0.02711740547270281,-0.027849152574375338,-0.01613327712930181,0.012908210857194617,-0.02096582862963425,-0.07910374230898456,0.05260849557153921,0.29738590048903396,0.017410781269241477,-0.5865108964861739,1.0466244314796802,0.13022694387617334,-0.3949856758628893,0.2666704301994028,0.15435498758267147,-0.10918433962325591,0.30392217801726834,0.09731360804561458,-0.05791722943740638,-0.0033522591993331847,-0.00407978215831095,0.02903214015542791,-0.25878647098518703,-0.0027227522872028728,0.12950255374637792,0.015260653472795455,-0.005268072248512272,-0.16749302632151045,0.007994224690877473,0.03818418092965731,-0.08898649512946086,-0.15986525003812055,-0.11598658702287375,-0.27635918747974264,0.19401155300479567,-0.07004028983464007,0.08949276011281032
59.883949279785156,1.6482009887695312,0.06665332515830476,0.2031759726389185,-0.24114433760934675,-0.05478403386387234,-0.19933068350805153,-0.33404658284869565,-0.01800007913639289,0.11067883924182333,-0.007608082162256086,0.06924340342094455,-0.05081365472843055,0.037082620105042194,-0.07537090818424852,-0.003967363351671745,0.0256503254333433,0.11222180558564238,-0.002412806979487425,-0.02680564312913031,-0.015422568713991306,0.01258388604310514,0.038731731213987916,-0.04043876564853842,-0.0582147353490015,-0.23281997402636073,-0.0655377831787624,-0.0910984355317122,0.037955576318221,0.059777798813857475,-0.002403862774751877,0.12762194832690923,0.023159653212116667,-0.19083163065565392,0.008251060933566154,-0.019055767848246728,0.10833724343162021,0.055287499667549596,0.09538106135900035,0.1929914478931883,0.09074432658371545,0.12464289902679995,0.07431744181321381,0.1001341609546324,-0.053320909566006144,0.07719019443127745,-0.04186565724821736,-0.04963496375904508,0.05592464816170715,-0.003903996498864082,0.03408875913708861,0.20579813288099658,-0.141802586806907,0.29223289913838374,0.06405602810899835,-0.1419750497103755,-0.012979817010877647,-0.06644077870467681,0.09091817083943146,0.1700088468314974,0.18312199721808753,-0.04239473616384623,-0.04878720317813804,-0.002864419006652837,0.00926104413336551,-0.258078125024609,-0.08789302335303321,-0.11804771285475875,-0.03234081528979865,0.3748544884212272,0.018183649901296207,0.02984625792362719,0.09110268327273864,0.008879265772195678,0.019197115142928697,0.00888675453942568,-0.03665634711957827,0.10830198982833744,0.12440241949638836,0.15468155654511043,0.10327098458348768,0.4871690521828677,-0.5271817102396887,-0.30432978515173137,0.46038467247460396,0.3143661557944458,0.16809389387844104,-0.00034682624809622266,0.023287122688699396,0.02168518751479045,-0.0061504954635305305,0.30212595981709484,0.036144576610472184,-0.005148046773697857,0.022904328272877243,0.05229618433384338,-0.023990077224332,0.05262664405908868,0.01988032839720571,0.010945574868619246,0.1172484729642668,-0.1338272517406392
61.53215026855469,3.2264022827148438,-0.13522429022062504,0.07454358955849992,0.20153117463638348,0.03181051060584211,0.12181084033953024,-0.13412289796444044,0.130273306057521,0.019133289513321633,-0.02165863108650426,0.26468834178375344,0.011330888707211618,-0.10570260861685198,0.03281201964828453,-0.04833768830316868,-0.06146371942568335,0.05819026666791671,-0.04917575509881391,-0.04551743531799018,0.0018306865231594177,0.051263885173161564,0.04172092965829949,0.0057278564810276916,0.06930589103607357,-0.07406129899552465,-0.04397958295485657,-0.012396291103519044,-0.007156274344072797,0.068210144208372,-0.036769710966248134,-0.021722306996114573,0.04824417738268909,-0.010730171875493332,0.013698704035300326,-0.006973618556265924,0.08321023576398993,0.11840946852115294,0.09397804563579279,-0.04248768427358262,-0.24322794630798128,0.034315634700297394,0.019859917717754833,-0.13308828523948657,0.02495205889461971,0.25615175793860795,0.08427323194691014,0.20606833496201127,0.08671739660212681,0.06994667528300987,0.057385398285205017,0.053794518412834294,0.04189611953322358,0.031068053622787917,0.038133668539431655,0.04872335668617278,0.01737188902439328,0.0074915306413790616,-0.12803525416026842,-0.03885492973436953,0.2172916865748332,0.17811521842379557,-0.12006944244777654,0.09322282573094139,-0.04634326043866957,-0.01507599730594219,-0.016937772822309453,-0.08233525576657363,-0.025179307331906972,-0.03693601046197083,0.03769119543586974,0.07001982430854008,0.10273193677821574,0.4496161835780011,0.11725998058283593,0.46462171684469783,0.27575737799701383,-0.4803870565019777,-0.06020808404165546,-0.24313195660101905,0.08115361438246094,-0.11178422770784066,0.011133647984050886,-0.0524333738147571,-0.09195311091201543,-0.034859569433736706,0.2036249597473084,-0.03621654302974689,0.03927517308892251,-0.09502033258048247,-0.09516628453643805,0.18948223002550882,0.006881776057532853,-0.0333557738864637,-0.025333135536758408,0.30547688754541935,-0.004891581957607831,0.3282507980388467,-0.24436823493775095,-0.11953533084338505,-0.2651142437396413,-0.04290986871452898
68.17455291748047,1.70849609375,0.021044404577432868,0.08031910988097331,0.0033995490891961383,-0.07986003924383803,0.04867127042952774,-0.00972078138970575,0.03591742034508592,0.0004990779898153683,-0.08801026061373672,0.029237541396832396,-0.19032563342228284,0.020005041493214595,0.04154913653776149,0.014690416820493617,0.05815526455820159,0.044007844321614045,-0.08505485216780882,-0.048986277981004,0.031286402317605155,0.002768511198427702,0.0010366690674352558,-0.013184432606510983,-0.029622482928569647,0.0896427156343127,0.04154968858134405,0.00045142593895786413,0.021167374835023157,-0.01382070243177845,0.016972284464207194,-0.0009170424658390335,0.06975013247738476,0.03608167663617767,0.04489500497604201,-0.1025372485124613,0.054736368032392,0.032648357870073856,0.03758591927421868,0.06417413496241654,0.14186084474786237,0.06605356385681209,0.030578942770658632,0.009384188664133042,-0.09919743169819153,0.1736040004113192,0.09380484288142771,-0.028734301542311318,-0.46749510725749804,-0.06629486147127808,0.08066423848890256,-0.06227507854980406,-0.2767416383439192,-0.03101818173214185,0.21132806421023323,-0.15007288716141345,-0.24971596084548825,-0.10097618930717142,0.13602770123919103,0.047867694508962964,-0.10421924347423171,0.06129828978793586,0.06641485962464957,-0.06479785170625613,-0.05389846307333317,0.051452831594566914,-0.0342242777762485,-0.08366233270165384,0.08079880025337063,0.5301933633873835,0.12453268892806615,0.1239860973034486,0.08435574208479728,-0.05318896275599091,-0.05599067742500577,-0.015611210503164906,-0.02319056916168559,-0.08508942223633163,-0.17514430227296843,-0.15060363217284556,0.2184942727674146,-0.2011306727994517,-0.11708331482238472,-0.17333594255250365,0.6148357693453486,0.12173516602774488,-0.04683574849564072,0.07234061836207523,0.07580535329930475,-0.031066616972366064,-0.04520259243081772,0.10156436343158012,-0.2783970407049655,0.014144469767455084,-0.007314757108800141,-0.09987208812644544,-0.17983976689281506,-0.06465156971873658,0.1439121306879922,0.6474717964902804,-0.343662748045759,-0.0037593778366134534
69.88304901123047,1.627899169921875,0.12021938947065808,0.009483985580705664,0.0918380101066938,-0.1583906552843616,0.584012656912094,-0.8867068794607753,-0.6538172873344514,-0.650838092461368,-0.3736732999897947,-0.0006420256584772216,0.14649036041966432,0.01647650537676574,-0.06819026475185641,0.035989365876800836,0.17765262616211822,-0.01596769816519797,-0.21088745036171214,0.14894544000649035,0.012234316389156546,0.08110100346052394,-0.025457371809843893,-0.009145599933175312,-0.02952192081542647,0.11194164367426193,-0.03830942627178571,-0.04672470204032059,0.0008117997726836931,0.005475295188517555,-0.002842220221308881,0.02606329534737871,0.030058628142452446,-0.05887663123968924,0.021602041207018332,0.04254830031193771,0.028788405202166016,0.12406613014787879,-0.10625275791172116,0.03784163645022158,0.13174143131726976,0.23140798432897003,-0.043010751769154885,-0.03402685864672875,-0.19851044925727895,-0.035851575968327686,-0.00698725360270977,-0.09247127148190898,0.03346187117285242,-0.15406537204261195,0.01622527317908072,0.05948006695266485,-0.13615972676847465,-0.23324985876451515,-0.04182456099867834,0.02737146145241715,0.04038235772318723,0.043339864566676406,0.03457888603342965,-0.002809106333048959,0.13410713466348273,0.0238351881942138,0.020256895397510754,0.026649079507873354,0.05706716499068147,-0.05383984316435754,-0.32667410560907156,-0.116261370190269,0.08731280260145348,-0.12067444384385712,-0.30786164246660436,-0.011077740984584606,-0.00507420202793199,0.04844465224919429,-0.052153759656906905,-0.119592256736639,-0.09036971596721353,-0.015586179375145937,0.047163498996315514,0.026372065512060328,0.36864554041571057,0.0943726212242937,-0.15602620200696,-0.03579868461132797,0.20436750147664146,0.01491135624913116,-0.07270799083001388,0.06514078759328436,-0.18294612314041725,0.12625335149864933,-0.007300283260717566,0.02772950925226035,0.01289361636912879,-0.10758196970854175,0.14325434216063934,0.10512616402977862,-0.03728137157155736,-0.103475189599602,-0.024578706881612712,0.10437319664112672,-0.1456157132183964,-0.11727928116293501
71.51094818115234,1.7280044555664062,-0.11333739994764282,0.0033628857463438855,0.05812809466832262,-0.03775136039462257,-0.23229796813573567,0.015179693490854795,-0.027937619010110805,0.1109284312345946,0.020629785827499064,-0.06529953958033669,0.00711474829802492,-0.013233868251302808,-0.057408039678860726,0.039012598697539445,-1.7273014480327469e-06,-0.05553392624337402,-0.04951323127598216,-0.041190628267771756,-0.038720844251537045,-0.055273502976827184,0.10798311656437726,0.11591227884694577,-0.08375166097933257,-0.005160244736777043,-0.02350411370366819,0.004894671807893406,0.13969465008761964,0.059179933674238634,-0.012567787730726707,-0.22717933080398356,-0.04897886063244254,0.09663216431559118,0.011318111201605627,-0.0009263313910632879,-0.014928489527448553,-0.1707710546859015,0.07267926842301184,-0.023634895804893766,0.011396591029090675,0.004253203859212296,-0.06871708303664455,-0.1613845239352526,-0.001447853344669196,0.12985733878146627,0.18755739300524504,0.018507176379706336,-0.10070197565768434,-0.046094369817523684,-0.018430222208016572,-0.247214908521298,-0.08582401169079569,0.02206071757512712,0.22271628353112186,0.0831763206738689,-0.12822828393038144,0.017476107359862197,0.15838860391494877,0.08909998933397638,-0.0037580751746199986,-0.022723526300163662,-0.05516652751135515,0.012278183325360799,-0.020738249208544,-0.09379383952495671,0.3995579818929699,0.15019423901813983,-0.12985115207027167,-0.07877347988773292,-0.0227214086132089,-0.10985548037747478,0.0596491539075045,0.024732985983021545,-0.058917142974173345,0.018219710046896515,0.14299310192314973,0.5202358517293676,0.08166960685819726,0.09907536570899696,0.28293749715962907,0.6689536699426606,-0.15940676849712881,0.005745316608326001,0.027425619912708657,-0.055218703922087095,0.027638825112002986,-0.05723893835114644,-0.015268672465420298,0.07627703085929097,0.005897134026893,-0.08132978002726089,-0.058386241146054896,-0.1587227276482032,-0.1365745046034945,-0.0802260816454067,-0.0924523406187552,-0.4834330162440507,-0.10986454727042046,-0.2772233547513555,0.04288752586988906,-0.12105238826441722
73.23895263671875,1.7085952758789062,-0.2093434914173492,0.7295810327058792,-0.7019896249979302,0.3680125142885514,0.3166703767279059,0.3683894778228326,0.2022592479343481,-0.22507813068408075,0.43528938354835245,0.4937011922012122,-0.018638343957279046,0.06264399330159341,0.06429910639703801,-0.8296149358299599,0.039569139746197565,0.18946861988496694,0.27910306108707594,0.18050778493800998,0.050716950915818876,-0.06872732824526886,-0.2145934492035839,0.15643299563996083,0.6666805659105783,-0.056716134277273164,-0.08731001186020947,-0.3368619814345148,-0.016931736313305523,-0.1202532950025729,0.38849696583982046,-0.037809861333663514,0.02676970524877996,-0.18961780415649154,-0.09216893049414115,0.16428776406374435,-0.022725031283774053,-0.07882363125015544,-0.0819532604286877,-0.009202264040595173,0.20078487197052688,0.010585543596796572,-0.05761301500091411,0.11484436966907469,0.1300792782845562,-0.03649410836400356,0.00995120202816862,-0.045644671740806116,-0.23029208766357276,0.0007522799150115334,-0.12394560747297399,-0.0009593021721285705,0.15296330881283532,-0.023667484321504815,-0.10589529762780943,-0.198287284669948,-0.09072278004679296,-0.06665472682469209,0.047422105458399914,-0.11783820421356704,-0.08364153370463878,0.026804327559918965,0.06787576199005187,0.011186186484537956,0.004461102733575584,-0.1421167749373688,0.480132798924267,0.2910291947436769,-0.05756369512445352,-0.01360384575958827,-0.01625736460890932,0.005983975769910066,0.049087028071779226,0.05860204628037345,-0.017725948886707164,0.006484243210727006,-0.14280931200822253,-0.24967974177040209,0.03586642440577646,-0.2378378068586143,-0.23829446196132403,-0.32787821871210066,-0.5396278097792938,-0.11302533449254473,0.42781841247402025,0.07803847948464335,0.14734812597367833,-0.15723040069026084,0.10157736093305153,0.017741850159874225,-0.031601396164140705,-0.06864619846966422,-0.01472833608798195,-0.1903387210217544,-0.2685194783595578,-0.10506313564880063,-0.04846423253492455,0.054196223091342116,0.21160776710590537,-0.19191079126878952,-0.48262706658420423,-0.13320494909399078
74.94754791259766,1.658203125,-0.12810314145735321,-0.023598099443962628,-0.17883949533582788,-0.4866916112747,0.15330039068865942,-0.22432710722611218,0.009793742572970388,-0.14682885524359948,-0.14715281826963933,-0.07500272995810801,-0.02474817583136749,-0.062324165062983626,0.08997180971176148,0.0050130074113485905,0.004893926010554082,0.006608576464467216,0.005663335098864631,-0.13890472130186846,0.01689223247805142,-0.06760907122224968,0.12252729664131595,-0.01570336610077353,0.12737035617616482,0.024816286140391844,-0.17282608324741,0.24887061490513035,0.01755187003113334,0.037075064664503915,-0.006585077201614146,-0.07300659318908408,0.07653224251704328,0.10372980387467719,0.0027003200489888026,-0.03666671808198048,0.12749094551317217,-0.0038276278966743187,0.022757690832859494,0.1999131489145068,-0.06273960246696798,0.025466299367186498,0.11675970727241532,0.11560561258910794,-0.15522294388219893,-0.07360388924692834,-0.23639275231311074,-0.09762643166829921,-0.025338962460235377,0.1141596372543066,-0.12179002265224695,0.17258341224289384,0.23424615107111524,0.06335823257779967,0.04689222758011933,0.003934792001872684,-0.19671933007587433,-0.050472446306160705,-0.00015984210388634516,0.04003082209102678,-0.07767194362933276,-0.11111188104644984,-0.008622704752502614,-0.06551046318982004,-0.06039322595573994,-0.15428679335505288,-0.6708744421772909,-0.09092868874575284,-0.16023157830032136,-0.04085255694949272,0.09049558901815342,-0.016234880492157818,0.05124478447333964,-0.03508448086620013,0.018462967367435707,0.0061608239438544765,0.012615404557218528,0.07439021100119658,0.05282998709724525,0.39431444866083903,-0.01882414972209288,-0.09621481568823231,0.0179589587271614,0.19783648052724176,-0.33936504404797924,0.08160861533040717,-0.10349142254208671,0.0037308244343883523,-0.05086164689269165,0.022227073298489882,0.007381478250301656,-0.007867713908405636,0.033575819144445705,-0.04656364118595416,0.09755449361978497,0.09251303279008886,0.01787591986895582,0.0941539498959359,-0.04278445222807696,0.19692238989496488,0.021499532173257188,0.2666109635143512
76.60575103759766,1.5777969360351562,0.0971143561082391,0.05765177224881114,0.024823207012068027,0.17068174475061304,0.2059353662567541,-0.10024355246985697,-0.09989645954349316,-0.019386907967566314,0.08830885707119442,-0.1000210377543375,-0.10905478361333121,0.15754402652917715,-0.0829315221725623,0.2210208241196716,0.0496054140290497,0.06019494981543183,0.01041074049279098,-0.12576665598394604,-0.026139933686570832,0.03717840955131577,-0.038513851434509486,-0.06587121560335059,0.04567049600790474,0.035358313664533875,-0.006950796793474907,0.03205500260333927,-0.06553024843761905,0.046037208670135804,0.06964677724975257,0.10726129845833832,-0.04490069016912116,0.02538394256098355,-0.04995420048620765,-0.06697156541917944,0.04432728034902939,-0.010995920392651763,-0.04743413616892038,-0.02312779713686816,-0.020013451081865943,-0.2266549705253132,-0.07678469597849139,-0.02875638220080538,-0.11181739988040455,0.010641356505775747,-0.012624214799104791,0.027414749037279997,-0.17078487134092224,0.0662388426517769,0.030386178672230466,0.26265300590430346,0.10455178975363941,-0.007029631377112202,0.07780369170579803,0.10813633502836213,0.11017807976309132,0.11790763563443547,0.01361317969078319,-0.17234242178656775,-0.06273716956746027,0.22058087455204906,-0.015366339401545455,0.10931631433009611,0.0611089288340081,-0.017822767900966922,0.2673570180976339,-0.07079693174785572,0.16328231576156624,-0.12798465324452749,0.06579655907322159,0.004975964124666488,-0.08835232232644882,-0.0577219312485427,0.1271462185610848,0.3429708911630884,0.43788073059177823,0.1963250365010537,-0.1700909433054699,0.22423714947689166,0.08641469561300133,0.37705985574634787,-0.590701915404214,-0.042108801649054756,-0.03433107770646316,0.04177772248862143,0.03608015753629047,-0.14803332070771322,-0.2610598373247864,-0.4369094606354664,0.05766848095358603,-0.007545497561476634,-0.05332448377643275,0.06461617160429922,0.011139839800473027,-0.14080534052446386,0.18103433717563946,0.08323694079124273,-0.09784347912587399,0.04783072698949472,-0.0013967633694127596,0.06544102224278481
83.25845336914062,1.7081985473632812,0.3175828993415587,0.2770258918878765,0.31477869825123256,0.3427765166728838,0.37024054663437167,-0.17293414201395774,0.11139061433177663,0.2395902926529772,-0.22175105150392735,0.15657922754529227,0.007828047568136008,-0.042425741965895374,-0.020920422429244887,0.007035072971191013,-0.022077053363746976,-0.043878718480667524,-0.023396398456847177,-0.1858075969428081,-0.04222392264346441,-0.03067930115014753,-0.15173645891686777,0.07056640954282736,-0.18165668053909226,-0.10345045356694568,-0.029990126354216416,-0.041258936879350464,-0.1382010647986747,-0.006734939713507065,-0.05686627018199014,0.03502279537743566,0.012119243726107875,-0.017624173285228716,0.06894981844790973,-0.28777027268939126,0.012301963994733918,0.09908121582957764,-0.019678125172711614,0.040690134036864944,-0.1490981109260905,-0.06992788285873516,0.013861011039127213,0.04845037574261757,-0.21651235447499628,-0.10802559220611332,-0.13927872420150084,-0.044637293367741,-0.1419127359038656,-0.048989360307464494,-0.33344150975745207,0.1551007150147416,0.09154020562672706,-0.19999272481320052,-0.19132155069111775,0.10394093201634617,-0.04235093690162852,0.09967848817470147,0.09045318240664024,-0.0693883080160293,-0.08908725152152681,-0.028318786105462276,0.008391683831899492,-0.041519195815379495,0.3326158874833409,0.05800546797677952,0.08865884093766421,0.05082559567140747,-0.039371525397253936,0.006842383743859828,-0.03135600035283059,-3.280813411325501e-05,0.05457122369907133,0.09385678881985526,-0.34530183959182736,0.037230237546105084,0.032398790683538355,0.19614978283544016,0.23175403033642822,-0.30385543837555284,-0.09670040591443942,-0.023301783178913654,0.23056157741434619,-0.17606906016774748,-0.11401324134057399,0.06565017893352273,0.21069801917769904,0.007455564681046312,-0.04702809451031537,-0.16266359293083313,-0.024150599772324338,0.03996152135983354,0.06046793150398367,0.08024942297824578,0.08998391538209691,0.04200175749851106,-0.011932224248158518,0.13522014284121084,-0.15202769958703988,-0.029873905769493017,-0.05122315452300851,-0.16103066553770856
84.9666519165039,1.5582962036132812,-0.1613062075703517,-0.1496245544727283,-0.1835102400773373,-0.1628250239788179,-0.2836063061401259,0.027055606567407353,0.0038113688756499175,0.04159147744540455,-0.05894913398097455,0.04795873506685762,0.006215489392800899,0.020347520116909282,-0.047203088913775414,-0.0970926306934454,-0.07267348331850233,-0.034020724993991426,0.05932354203377116,0.3050977463860562,0.05139541320142955,-0.12450914142081969,-0.2004595558832732,-0.24397149682187855,0.023156150743785173,0.09580186864490299,-0.2137370474660869,-0.057871259542351186,-0.11096437084011854,0.07112719939702121,0.16136444209329362,0.027282740129961805,0.12936460884004025,-0.07406491289216499,-0.2261218891826266,0.058804746290495244,0.043736192027016535,0.11529632151022061,0.12937451109784595,-0.03315641447803976,0.026710391653087095,0.02038875052155632,-0.007159600247824305,-0.04605445371937639,0.10917878581342715,0.015560200241431614,0.07930497116915189,-0.07163905060588645,-0.10639335890824164,0.5852673479069107,-0.246462429338315,0.059053216848724624,-0.010269288634173484,-0.09446879664472138,-0.09653578352243164,0.06214441968549074,0.18063809837463538,0.08678033676838683,-0.004434779470108257,-0.13494702783339238,-0.07453297820964574,0.05344158075139484,-0.0039522666952971006,-0.11130686954100139,0.0798747345836262,0.012661051114180347,0.02127922467607955,0.041768883103881736,0.016581273238421863,-0.06154004258115683,0.00230627700383005,0.09385970306286144,-0.18659903279629284,-0.403693768373762,0.19871283544435572,-0.05875985227200878,0.576758665750583,1.5511392130301678,-0.30133092765304464,-0.1594942976733395,0.5199352447217893,-0.042501438328771055,-0.19459627017013575,-0.12309581201746088,-0.00707215787759362,-0.009788155454773044,-0.09046715303546732,-0.08937209893615751,0.0840968227927274,-0.011015541361908533,0.0038850092438851708,-0.14821115139587945,-0.21009399990823138,-0.07660736357704893,-0.020163206762707976,0.032801201243191275,-0.0479882739921589,-0.07247999202231274,-0.2880341917174594,0.13536370270722922,0.3407636790580231,-0.05320884086328881
86.52494812011719,1.588104248046875,-0.17446681235438696,-0.008041625880308951,-0.5206375537786686,0.2825756287148314,0.30696904075106196,0.016385408871306573,-0.005397976781876485,-0.0263890037847426,0.01030063934573474,0.006160540407883042,-0.00029860727990873583,-0.031395026885612215,-0.0011641744851422693,0.08479968867130845,-0.08490236899479404,-0.04061243805519983,-0.03444645233032973,0.029498757676839463,-0.0003799012209073268,0.002664478048756447,-0.030813526121217138,0.09498122361663709,-0.0015130084834093598,-0.026115310604384455,-0.008988686498324613,-0.04478745546827578,-0.010441450083087542,0.05542182696665979,-0.058625072415245366,0.07590518552386966,0.10165409287490991,0.06004949741048711,0.03263136875522685,-0.042002627876762226,0.034965126571629174,0.10397592760464905,-0.01970968270978491,0.05476455559348815,-0.12659050306383118,0.018905071613069306,0.045339960013098035,0.23553879922166945,-0.006120753594886205,-0.18562761850522527,-0.24188417366541712,0.22007267716734488,0.28428843537626924,0.43917659675258486,0.15853998949684592,0.16950844333103365,-0.10440457815893184,-0.05861613896499806,-0.10495331234945088,-0.26095407543633703,-0.04196739083372279,0.01352776194700304,-0.027408819631725655,0.05951052186849893,-0.016446142417107054,-0.25295719012293316,0.12097832420755283,0.2505227330580147,0.33507151248690636,0.12111219826709317,-0.1667256017899245,-0.005401751898948197,-0.045845268934203834,-0.10265962402660418,0.03739021063466391,-0.019771649004370048,-0.06096035565922417,0.08896710330676491,-0.17694983479853116,-0.010793796783818713,0.1598382552773403,0.03607362507552762,0.09937484582644694,-0.0626972072057736,-0.5015693799729412,-0.46769390745817535,0.3976228042623935,-0.49460807954284264,-0.24177003534132652,0.09939455053685795,0.009637761605918733,0.16686226765261955,-0.12138280932238191,0.030462028954022103,0.06608132560996323,-0.043085596838029844,-0.010897329091186965,-0.039520600482293125,0.08461040195572861,0.07063567402821905,0.07944867838599065,0.0672764891966677,-0.09577285855758037,0.1863359595118695,0.2855079775290153,0.1886365726873242
88.11305236816406,1.5384979248046875,0.03622151625487113,-0.23063597087092869,0.00046679608743785406,-0.018206181536506494,0.4478173703218133,-0.14623365813454897,-0.08371746928374349,0.02573063958620833,-0.19570693931271535,-0.010302315077877123,0.1368064685214449,0.03041672025246335,0.04645289349808665,-0.002730864519201036,0.25368422574786553,-0.02393273986720859,0.0223114503410411,0.013632374208299127,0.000914904929410642,0.005719733314714325,0.005420241129900136,-0.002063889346987516,0.03460802598538536,-0.03449512721017654,0.022292801283579734,-0.0061390523384387595,-0.10323073445082026,0.010856216379831484,0.007168276720010981,-0.11391131652164282,0.009820860500260604,0.003559062601752347,-0.09201598585061288,-0.1326452825984873,0.01485810492998412,-0.08821325144814876,0.06420309257876557,0.0076572242930829084,-0.00941408085782263,0.09984805637482108,0.016787731382343796,-0.0995422886388252,-0.3018800192379702,0.05844045561732789,0.08773769727975565,0.1381048908766383,-0.016505810449622054,0.10673799885295542,-0.048101722043509466,-0.03645959687402481,0.08334721300627067,0.048833564047706834,0.05098332715699371,0.09034355898271068,-0.069045719974641,0.023165699133755532,-0.03286479839638627,-0.012926117308212692,-0.06357194186694243,0.1616652474135899,0.1535784261988796,-0.6874258899818909,-0.24713923488864592,-0.013400069504690266,0.161941294341297,0.0175155250219505,-0.09334588161758463,0.09068266079490747,0.005021013681186665,0.07071373028667795,-0.025952545332481692,0.0542521349006716,0.08804569063477824,-0.09505499342357891,-0.04340181386596056,0.07183630197292191,-0.3086868362338702,-0.11944371278364237,-0.9827193294131474,-1.7694978097490823,-0.7409395639760123,-0.3059101227083425,-0.06521369149810696,-0.05777048902002174,0.05041820849821236,-0.004181269718746531,0.1090694077178686,0.014292402799619505,0.055025323979813,0.0474331592445218,0.12561760561405924,0.25714771201507036,0.09931446817134659,-0.04686177317687156,-0.09075007916918726,-0.06061417038046626,-0.15407195604412835,-0.12123824542563788,0.0417457445003683,-0.0796065514072202
89.65155029296875,1.5282974243164062,-0.219034038773674,-0.10421819333851734,-0.21101357508618174,0.10094540541615699,-0.14581294992755672,-0.1264334354536756,-0.03149385254206384,-0.3667729675025213,-0.10724893985843276,0.1813250650171421,0.13194581454317353,0.046190485427593166,-0.038251235348384274,-0.09641562009708803,-0.059595510122994154,-0.002155059662931585,0.021830120979110988,0.06560600776926752,0.055245671042480085,0.004423584748500954,0.022373563858016914,0.02283013152707157,-0.049460124774672536,0.030245022597720175,0.04411419460893186,-0.09196413897103878,-0.01264457433382635,0.0018112713551900997,0.0576707236894755,0.07796460146654385,-0.1570745815101451,-0.020535816502870296,0.05605193978509379,-0.03299700110948825,0.03634902051693775,-0.006593734789701044,-0.12860390721769532,-0.2521892650075059,0.007337881014388762,-0.08001601814099851,-0.010077334084754367,0.22107223361167733,0.11017925468656167,0.02506063718594598,-0.266827646334282,0.03614980293435638,-0.234078765223857,-0.32222981728194494,-0.053267639491869266,0.008655437897548263,-0.072884757581094,-0.1277403786656405,-0.15733790132498654,0.09392391944936278,0.01907518607341411,-0.13688201468216193,-0.07023334916028184,-0.20170108284182164,-0.10893426063835948,-0.5609431427409455,0.24514105668224925,0.14406026243204378,0.18502441011933893,0.031196503325554334,-0.029846663676543993,-0.01969781223634414,0.07525927154956626,-0.020768243421015884,-0.021852040441881177,-0.06229884154717463,0.04855945030873823,0.06038473158025096,0.2168377966481423,0.1342623102560059,-0.04305359250066485,0.23382666769283988,0.8293287577743376,0.6343485168077637,0.7532213604953913,-0.3113680639360508,-0.3066622253875796,-0.27909306644576987,-0.07941181725949106,-0.013943628355273633,0.0004888973140978372,-0.0031231536748727077,0.002504514763519485,0.02457629490088338,0.03463986987806409,0.5588719217617091,0.22008470469462163,0.03181276537333036,0.004614377206355394,0.10119313938891808,0.030876407298925466,0.022911625431906408,-0.28060883839993106,0.34646182882591675,-0.0720552288057775,-0.09743000833222087
91.17984771728516,2.4571990966796875,0.0614039425750994,-0.13434940806919018,0.04578340436484097,-0.07550346319349335,-0.1957676945043333,-0.09921925506506242,0.18043657702425764,-0.5637694716337873,-0.29194769075813,0.14591288403790534,0.12060457824028664,0.04444236001520345,-0.007938928216559766,-0.007722804805542105,-0.003661674691763624,-0.0062347885925270715,0.05442056175365298,0.013728239185613004,-0.050954099258920006,0.02800930687953522,-0.03683616465740775,-0.0031152889454015373,-0.23188770210327014,0.013346508618053643,0.00042124956282405386,0.045757363563085546,0.14327387409300005,-0.05582628562585737,-0.025149832350305407,0.06688369644366489,-0.0639629462065393,0.08775923757423636,-0.09180430860841056,0.0547031237730494,-0.08514344595727669,-0.04074914769862728,0.017570368473285858,0.06884565967888663,0.009326755526360562,-0.0026745127829042453,0.22296897188925338,-0.14653222999986248,-0.03355896017436024,-0.05545771459564152,-0.006984327368267582,0.030068609905814905,0.03718616676661221,-0.14009100049928402,-0.1516605745439982,-0.08636457525906593,0.07933377943558985,0.035236353284019646,-0.029909183769293857,0.0929040885054793,0.013976238332788285,0.09792856580698098,-0.15706509175909958,-0.1093784048986272,0.23011661620599022,-0.03408642871204759,-0.11568954491653262,0.1595544227296069,0.004961370093291322,0.0005531261300171907,0.00023349606339834785,-0.05329730130262482,0.024462524979271396,-0.013487520607081254,0.02262467935068316,0.029687964452453815,-0.07212560237154916,0.021726703498610153,0.2518875245182554,-0.02707217150862007,-0.3788548311486012,-0.29364322765549417,-0.04661836366728147,0.05915895616682024,-0.0611047977558755,-0.1579531621311631,-0.08171556453106549,-0.2015509195774339,-0.1426560514341494,-0.1155967645756059,-0.22510449133629495,-0.023577770590558968,0.11480367952459467,-0.041168111685737765,0.01717314048089698,0.21339832350152432,0.4094116964474365,-0.004002800950703431,-0.12417537741085201,0.00779387971425974,-0.028798428789732964,-0.07822247248125573,-0.058620547789150504,0.13101090824645478,0.31588550297045015,0.17289385952472797
97.49285125732422,1.5782012939453125,0.08168703466022782,-0.142791786124912,-0.04401412569154021,-0.08182442344346443,-0.34189362856172945,0.21050297296982565,0.10415802761796612,0.09671753912327627,0.11976286970731446,-0.22545364736803486,-0.10247544977328633,0.12104530649894006,0.001374717187252853,-0.021241344688675542,-0.0654204332908109,0.09066602493350209,-0.21684989061483192,-0.31557995942486206,0.0007597322702200344,0.008671122708984298,0.026414147993130535,-0.02176780657404249,0.007503632719051715,0.04214710400266478,0.02715837281258481,0.004564685870008934,0.002515366784405932,-0.00488739055291304,-0.09048603733725531,0.003965394882419457,0.06690401256125249,0.10430308611422558,0.07865565283443954,0.004406881530946024,0.012599587195550255,0.03056855074415279,0.0679180958494088,0.06356261730633589,-0.029577608413392235,-0.021469917733203697,-0.007943909371425535,0.09747890297162505,0.07302871856372274,0.08675907745105768,0.021796289991731752,0.030462950976998037,0.42166320762272863,-0.12190301351052249,-0.06858788122454919,0.17883992009168428,0.12175693423054373,-0.011346578047820396,-0.012421498127211245,0.0904944900422052,0.20711198837309008,-0.07433270640595438,-0.2370495330564415,-0.01434233413417118,0.059293236507894295,0.09544008694341122,0.058011310788060835,-0.015993575399642433,-0.019205691296722553,-0.19060822881461448,-0.37524088274192974,-0.19075350448658893,-0.13485081735421145,-0.12381385334014475,0.0038881961799700324,-0.0395482998528481,0.07033356616760125,-0.029722397835861,-0.10389537070205897,0.004366172717543117,0.3223377275014722,0.12361865496662719,-0.11063741515522568,-0.11095378475113762,0.015231202617251091,0.14114372576665424,-0.10749818357898022,-0.1087031241838805,0.480077872570675,0.10055053659787153,0.10680320436789979,0.012876119182776397,-0.12894604530367168,-0.15123652047370723,0.03399485221325312,0.010662721847921912,0.0010181182377043563,-0.10038601061973862,0.014719429009850779,0.06638267854829537,-0.23575771196861361,-0.2565103705478468,-0.009412330496934223,0.18379660225705652,0.339407089438962,0.11595293616663307
99.07105255126953,1.5284957885742188,0.11151892978231234,0.06101356203973007,0.17706158779895012,0.4852338832770122,0.18407951233718783,0.6448696783582714,0.21084789829968759,0.11247244683516529,1.0364909997465157,-0.2570230510443245,0.0680239281576081,-0.09552926103260728,0.10307701870112589,0.3575452804209903,0.6186307635891506,0.004847905669335808,-0.06613073082209493,0.14712289764725706,0.5449211143333063,0.134601534632496,0.005254648700709429,-0.1469439712173925,0.015378273898425235,-0.1530779478480793,-0.32423774466800426,-0.34014540191925174,-0.020830176685292162,0.02508931361753084,-0.03870395518174044,-0.09229166827601606,-0.06430356841012091,0.0216174841236955,-0.034711497649341255,-0.033142232692190986,0.01158992894731757,-0.1613717846938085,-0.2352872306476566,0.016630372580139968,-0.02534422876141812,0.17569551955582777,-0.012479417812187825,0.33882531411435673,-0.05902426642723411,0.12396727905700139,0.09019865612901096,0.24896219694775423,-0.1450595754664215,-0.06391556508363956,-0.002773042015739792,0.33421407208575965,0.2148268186620745,-0.02736020897529346,0.08326225699302416,0.350773405874674,0.09697632410480579,-0.011620749177306391,0.21381278218291533,-0.11214120901048247,0.045273952141227536,-0.021210984938456627,-0.35507855683551615,-0.43041929907925636,-0.8110565017161576,0.5634273570541198,0.16135814910691818,-0.11785770266778522,-0.1963725090278587,0.028184631517347385,-0.03900168735474976,-0.07565152515780194,0.04362782318358846,-0.0905314073536789,0.2071405379876109,0.03681173538724063,0.2766708411372105,0.012585354948631024,-0.2602039630387796,0.37889967930694934,0.4302810822887387,0.39145901403968464,0.590048068123967,-0.3702167538220569,0.03955504238445065,0.08321913661784366,0.21882606811991415,-0.06764663086025227,0.030667368419623926,-0.4045721997052383,-0.0005570445235062223,-0.0016868156969848,-0.10287742583743734,0.10607463610993755,0.05546189620840935,0.07281289729854828,-0.004403677987707922,0.22850913076253695,0.06593795806262305,0.4690978477594996,0.4628604128180046,-0.10361555481966714
100.59954833984375,1.5882034301757812,-0.06830395673502579,0.1170490325180691,-0.3256444280628856,0.30743100993719924,0.3413740560226034,-0.10189558233747882,0.16525109432555773,0.10184431546234891,0.0867734648021643,-0.040380009427220205,-0.060028246714172395,-0.24199416811890878,-0.007422896694211932,-0.19649568515431956,0.05351865590467336,-0.135306076257416,0.025830079672097037,0.0011190356333782951,0.03566667110730592,-0.06314122962335374,0.16701387896757922,-0.04732943273781034,-0.04461886006737059,-0.028334279453954034,0.0840181535938406,-0.12035115779967842,0.05653509890680455,-0.08042033983246544,-0.16692420835235713,-0.2004567224882612,0.029017892848361614,0.09025705109324768,-0.030858440272250574,-0.015188754272347784,0.028999737732839127,-0.023077012975991594,-0.17470961782301286,0.03898544312674762,0.06148924150989656,0.13391773776500254,0.0413571154239511,-0.08177730611872835,0.03890120030359115,0.0954115042421548,0.06462642711468543,-0.0009220664121414135,-0.14156096466105922,0.06182207394620406,-0.06324301359753727,0.15352780723918186,0.18889391572523023,-0.11450577518004398,0.05593090702302818,0.22621797147688247,-0.08429282101097353,-0.144203876529964,0.03157941308578906,0.021181418749113556,-0.10993687672538846,0.045506302136852333,0.04352260353795512,0.4376000580704714,0.22477820492688083,0.2951870595185087,-0.27107373864339723,0.15867685615550245,-0.019613846827546903,0.012290973835102427,0.07180753182624901,-0.008960090530834276,-0.013703983149893836,0.07209231601631921,0.05149107202038081,0.22688894056694697,0.419949546901874,0.11786176039354875,0.0006204323993180064,0.19935516485417432,-0.08059894123871651,-0.40868612526825165,-0.34907237161141447,0.08275233132173324,0.1006280474194137,0.011990933941499216,-0.02280534397157335,-0.12279648958475278,0.01670383908486841,-0.07328445901780536,0.08392093024697267,0.02968149871818287,0.25640728821813746,0.23599389951629787,-0.09666940815741557,0.14460394435025337,0.03618927421602301,0.0999925800155457,-0.13017381458585903,-0.020699850303179286,0.02140370187309424,0.4402363407525123
102.18775177001953,1.4983978271484375,0.27547956555211206,0.5656678131653949,-0.13469421843172547,-0.6016293439949592,-0.18307791132866252,0.12079879126103378,-0.08524324871879507,-0.02950701558124877,-0.07243383848766084,-0.17223459333213037,-0.24592855594143462,0.2152412916975041,-0.07533453264567135,-0.03592359915327578,-0.2893918068674896,0.14830997087316755,-0.13572730952897988,0.2707232026256678,0.3540049523967965,-0.06949636527997867,0.0574076997037888,0.29901241070751117,0.11568984629599428,-0.176839295512534,-0.14844929682560604,-0.024526815918976333,0.12800095461716798,-0.10346177186620961,-0.04404365337473731,-0.1447616317696888,-0.1418974835718477,-0.13753368909642916,-0.16744730456590812,-0.28528650707952685,0.047679121605211316,-0.01815813979731717,-0.24125394909186687,0.08605383106327763,-0.1469240884594595,0.20838899526542826,-0.07624230912269941,-0.07145486978122266,0.15494165180849961,0.054781483181448605,0.07445768327601188,-0.05144325961429554,-0.07155171763450888,-0.12127541423615555,0.4016174663798892,0.2593284602490641,-0.2044854239520066,-0.3573023263626961,-0.02701184812566905,-0.016047927808135895,0.10256913231704012,-0.006261378457831528,0.037518818392665215,-0.10050713402281349,0.028185674371023355,-0.07183446058943845,-0.16844254049260818,-0.035562675064712106,0.05312822188518532,-0.2609876427592771,0.1421219858048501,0.24211019234699285,0.057499124542156055,0.03623588569128122,0.032300777455346874,-0.045143940318659294,-0.04572611070269739,-0.0027609112170843375,0.02421118920862428,0.13377361327645282,0.49179189205166685,0.4070330835108831,0.15646943042187067,-0.3772048214053678,-0.21310834320192487,0.14774782119080906,0.5033715381571057,1.054785749434457,0.30915363408516133,0.008923080210072886,0.019621886305909966,-0.16746766907098914,0.0426269175075221,0.036616518693157345,0.016754953805507875,0.036974511481167024,-0.02763820447957453,0.01430933866183393,-0.08029059238766317,-0.0749120848964915,-0.11880426734602158,-0.0020577878043400158,0.11917997409269075,-0.045445494756268794,0.296693294616766,-0.34542837574267266
103.68614959716797,1.5185012817382812,-0.20420125687256444,0.3839677227919775,-0.008510855128671967,-0.09594151765803349,0.2127576181578415,0.3097283849999498,-0.0168330333032357,-0.05197114379795311,-0.0933867813069055,-0.10095555230359607,0.09545825012308612,0.08347196538629967,-0.060204164842840954,0.15472466445859848,0.10154595032668981,-0.001924004521127893,0.003931366997716134,0.01782060737689703,-0.028668766105433938,0.01828738814695635,-0.01491012974505087,0.018284270767122662,0.027620487654504113,0.029352043865072803,-0.08479520004789609,0.024236178364098297,-0.09882598527262405,0.14425247469323227,-0.0570811427870936,-0.02374917220365276,-0.042101406280904696,0.0020771846647322234,-0.11551963359668303,0.034502273007424714,-0.026387693219137143,-0.07950016019135538,0.1014854092841765,-0.22668070999050538,-0.036952997070276335,-0.10052187327177994,-0.0380449329763876,-0.18056475428073285,-0.07304780714606629,-0.06882309274662148,-0.0334094211971252,-0.08397405608938897,0.1509377572244448,0.03631195700949455,0.11383712731818973,0.01587415526104103,0.21367792069321667,0.014169726079729772,0.020097169871152204,-0.10218673385970407,-0.012310464908018232,-0.005771271714864502,-0.08362827603440245,0.07690662743155391,-0.33848710024805256,0.07240313971995051,-0.0383917371041227,0.01529766804382015,-0.027226837842775835,0.018957923819857336,0.005461691261968982,0.03928381326636502,-0.054120739546126145,-0.043905445073184196,0.005854745970411024,0.06370205064382664,0.09738962167566312,-0.05688072274143439,-0.06660978659581834,0.023190800075732473,0.1068766625770059,-0.04314587406856843,-0.3076508358589801,-1.252496600181359,-0.5111363390321129,-0.16924499821700373,-0.07080494674877838,0.2095464396242549,-0.05349902627038287,0.024378385187705656,0.05036821660392211,-0.040829291705156874,-0.08975454630241993,0.0032983797556197835,-0.006679636326827715,0.03157265800755916,0.07622978618621225,0.220560792578709,0.008201170682141093,0.08688425873787273,0.030895066306614705,-0.06143847819567809,-0.05608388696629174,-0.06709804759850133,0.09044212997615415,0.23480052316383215
105.20465087890625,3.07659912109375,-0.03315061789431526,0.4347213959941957,0.26749414498622925,0.21420696142367535,-0.015560448263485988,-0.1185474787148983,-0.3627400364812478,0.00946644742174774,-0.030309652977256043,0.10512829959316504,-0.014586150763986944,-0.1872117197239987,0.12486228177640506,0.08866593764934501,-0.016612421696854875,-0.05388762264088328,0.0342455095838686,0.13131862440982017,0.08692036612985227,-0.010267214416921421,0.0011257394140186043,0.09214143060890323,-0.001922917635221758,-0.06612911513394278,-0.008361810725868231,0.019952572775769315,-0.015714381131321384,0.032871288431935146,-0.04593417288002725,-0.07874261443682272,-0.007605852814809842,0.01575910194489515,-0.09912476990920946,0.0036251043223101327,-0.06760060280802965,-0.053386955486033484,0.0028002452248106183,0.023013831738027415,-0.0875293244336382,0.03456416388481908,-0.14320528581344444,-0.09644234210725955,-0.2785812164830935,-0.13577757295844564,-0.09274661941009599,-0.21595269863083652,-0.03401140600851639,-0.32589445181063537,-0.054073079748999206,0.047559836060267625,0.1681305068723889,-0.16091080450691592,-0.05685243953313402,-0.10778552079361148,-0.05967443417676793,0.03125901587111968,0.1590141822177567,0.09316872159880535,-0.011774677086588428,-0.03547426751627354,0.08373425779916067,-0.1501242166092357,-0.17550977370054527,0.4900142923762235,-0.30129734510021583,-0.024251631938663747,-0.04647201882668893,0.00038310809936776603,0.015182561678214253,-0.10524195933495388,0.06967573298296645,0.018865714209023686,0.006579074789894642,0.14625424248999158,0.027555729397667265,-0.32375181645216944,-0.044097873557436724,0.1216306743974321,0.24438709707391695,0.0009972936542303138,0.1322884755965904,-0.06826047059215612,0.028410855454558653,0.21305676793253198,-0.11064986275600787,-0.10883953950854838,0.017721244485911128,0.0020755111244325263,-0.015455709511925667,-0.048343974160301416,-0.04498739579117402,-0.10056396307371757,0.012090355168664404,0.0865312705545128,-0.062456689694097595,-0.01580044877030837,0.11505045181991358,-0.11297585320864109,-0.48981862358662087,-0.3812144163500883
111.72724914550781,1.65789794921875,0.37312875788908034,-0.16590160454812303,0.0677606518219546,0.10959674615682938,-0.023434656140886096,0.007425023777585661,-0.012573710350142148,-0.018735266794852535,-0.02416932971249408,-0.014722250861631255,-0.02197456576673902,0.07985971572113824,0.010658012402070052,0.02578009738153671,-0.04917524711695192,0.0040003733431634,-0.11635983076615253,-0.04617049873256273,0.020057195418441524,-0.003919067241990106,0.06046727849027249,0.10295312855301202,0.03258569010794732,0.05209567658172272,-0.014546399929900693,-0.026745046419186527,-0.04083242579693426,-0.003116247756704033,0.12004267821420725,-0.20242756643336896,0.05524512181222658,0.18150166473312113,-0.07630825199363185,0.062272693284605746,-0.11419226997189072,-0.09972929882116062,-0.024250437507237165,0.046664400716772476,0.04015779964366155,-0.2480775721486135,-0.07197326107841584,-0.037486311279495595,-0.012940830238627573,0.06183447885757405,0.00904475497512364,0.25421306148540507,0.1336984434855235,-0.1410786185555203,0.140198094223918,-0.4936719564883006,0.15294010939604177,-0.1624311234668817,0.01027091993268479,0.013269799005090635,0.024170151514568146,0.12262389286758196,-0.006795110751221342,-0.04370064122354547,-0.024222819335258373,-0.03919695771826308,-0.16362475868175272,0.45840753549224006,0.2792143982045246,0.04117668668038124,0.05087283047219273,-0.026864168446312047,0.022122612486758224,0.06060269630547535,0.02008545783335398,0.09064400389348201,-0.00446864779813759,-0.1485160045355846,-0.21360623728761624,0.06196058684419804,-0.23755785924542008,0.17600465447999175,0.35582000924531665,0.8104775520543406,0.6487218564323753,-0.10888628762969886,0.575102269809606,0.10120026798032702,-0.10921210451548674,-0.05099250667888057,0.002927943286641117,-0.03777781867223433,0.021424040404861375,0.09813496371672133,-0.010255716064018674,-0.04388656261795586,-0.10500030164410273,0.011530431232206498,-0.12126710801292642,-0.023605175711169185,-0.0790053894124733,0.02015520616149106,-0.03567822462019887,-0.40801624852445584,0.021091534843732537,0.2346848817800221
113.38514709472656,1.6787033081054688,0.22865722720272302,0.05452594083576792,0.000568420218226881,-0.040829356683002326,-0.3091826124938779,0.021056422435509398,-0.10780021461525513,-0.17347275355344874,-0.07408784166557048,-0.08994453991389728,0.05499502738133992,-0.015192837061781027,-0.011591710351711228,0.031923160606951634,0.030699014735455155,-0.009492267163159911,0.007449323688310029,0.007112849607679961,-0.09307403209721198,0.024305676194718587,0.05357875374817811,0.014752403905607262,-0.04461858085209088,0.03727316090017658,-0.008086952406288733,0.029083237751036176,0.011589497002590697,0.0038696922666117866,0.09481868393761211,0.011445288895582054,0.010123984731353343,0.024455626511983575,-0.0018929401216085419,0.008072800082578609,-0.03702066343492216,-0.06453167267294184,-0.03800081507735853,0.06866304749818752,-0.06496977643347121,-0.07760431827350665,-0.06260085106232863,-0.015281238208202354,-0.1260349044582972,-0.0011511602668078072,0.1458023681808534,-0.10664324154784705,-0.02018930343871959,-0.11138950716261228,0.0021776796234353885,0.08756417327997035,0.16928824844632556,-0.06348210287987033,0.10035820697339246,0.02953549595384561,-0.033743171741801616,0.23384189084973223,0.09013389303200085,-0.03682585458434529,-0.014984529425509902,0.024650766418291836,-0.0034994575493542813,-0.12322918218672974,-0.06368871883804038,-0.24566707066276197,0.5208682164777259,0.06800527986485781,-0.10261299195349385,0.07663951641699317,-0.008305051411194954,0.005631087776907442,-0.06433875174658539,-0.023934327857273535,-0.004073837046858278,0.003017442636348116,-0.33880398764580166,0.31198128574236983,0.06480228892681864,0.174276434582687,0.2881646521012682,0.06465768658976961,0.31096728921359174,-0.5458040789531438,0.5090442982544697,-0.04550141744451426,0.038929426320437256,-0.08511538425323424,0.000497288310661788,0.040015808348059956,0.025976324719029147,0.07525054051807666,0.03435054493078116,0.0662431740261962,-0.013954634440465189,-0.013118534910546736,-0.030682919205526175,-0.03989538936903773,-0.028519059199057575,-0.0799006982314882,-0.08516750850368549,-0.1171490973354399
115.06385040283203,1.6879959106445312,-0.06378720845748564,-0.06289531150316664,-0.38718587914990116,-0.2951691073496706,0.6228102847306706,0.09491243300785623,-0.06710203272884877,0.04580627467482856,0.0650408861050587,-0.06712002806822318,-0.019468584250294227,0.005295043656933082,0.011441348072722887,0.01856365710682328,0.05304031375934982,0.007839421831658623,-0.06063230567225192,0.00948197276076728,-0.08626469649763432,0.005801311249616846,-0.0024980414620689884,-0.015283812801701008,-0.09335366390785999,0.022802842716086943,0.03282407403030645,-0.006204124456942977,-0.05294656120610012,0.030469378658453165,-0.018190655575139637,-0.02881484637781707,0.035034161662683014,-0.013055775505244616,-0.10989135084769576,-0.0638897565442228,-0.06178783405867601,-0.09559941025205594,0.03669557554904587,0.030245125894359487,-0.010052161817382865,0.04214489502545578,-0.23120547694659407,0.02231073878893308,0.030456196784190818,0.1433291963789267,-0.05292159341417638,0.13629827607148937,0.10865623219294862,0.024845178310960475,-0.16816887107841294,0.15411497955191195,0.09592233654578675,0.038212255798818054,0.040856124455974814,-0.08374404697391177,0.004064350818472429,-0.1404398085975848,-0.1424028088802858,0.0003601061592413741,0.006685273327147653,0.03349027500636829,0.02814942780913999,0.039828642714667545,0.14959061228101184,-0.10576028530659662,0.037703350894595325,-0.20913255509312403,0.09545851780580762,-0.0028490860061956896,0.06203611287273412,-0.010046921214052373,0.09421959265618728,0.07256520252817955,-0.020786933811768424,-0.09450530590768318,0.22647671504909203,0.21293210888357783,0.46283642038728035,0.31369051114833235,-0.054879302236951526,0.19400214436836818,0.2643248186734498,0.05232696117214353,-0.05169893776726242,0.023722969413852518,-0.04678020010876175,-0.09859374223431501,-0.011971099926357556,0.039721953038699784,-0.12849143749833408,-0.0658397614823546,0.04338967522988099,-0.12696834311654157,-0.070522515496066,-0.06530635089460493,0.009152908296868937,0.1244237759559252,0.131297694615918,0.11903377353186412,0.4280214140579109,0.1099062942151274
116.75184631347656,1.5684051513671875,-0.04924315422553199,-0.12877484366832323,0.22856896528242876,-0.7558651965085692,-0.12312049383384749,0.07289601719049502,-0.3286575417914882,0.21839464324621966,0.06820055935479405,-0.007948591882801323,0.012430387997661142,0.007271000480238158,0.006509821384683766,-0.007746328987192654,0.10786726813862711,0.08825431505068194,-0.05840705804290986,-0.014588906104316842,-0.01982390471334058,-0.009998985055908518,0.05046657090697219,-0.0670361397929896,-0.003890469038077422,-0.01891209008983767,-0.010910094535047014,-0.09949516085309058,0.05398365488277726,0.0225298102806476,0.03456246374614386,0.10973400110729506,0.04557884379908261,0.30434555358197585,-0.17486188234184147,-0.07295332934268732,0.4395413033161642,-0.1501776514554637,0.17598942251413552,0.27353116175627723,-0.002799870785533648,0.10259206334418484,0.08087776863098481,-0.0016842267941938813,-0.13801188010968227,0.1723308416929829,-0.2409075243835149,-0.1327977627468387,-0.18791332805055339,-0.1097912696641327,-0.118132439626837,-0.10760845584483072,0.01311196604078782,0.03219946916674126,0.051437224680775835,-0.04439511771220914,-0.10463489676804343,0.24704973409103884,-0.18118183796731116,0.09276928292550776,-0.08637570960461527,-0.385165071484541,-0.8750372462249201,-0.31041153479328815,-0.012555031323704904,0.06732731824343792,-0.01399898375498599,-0.07998482826739971,-0.07539282842100128,-0.055688480093954426,0.009848937493345554,0.023819865776503756,0.22534523771168086,-0.13259136562489335,0.2175093925501137,-0.07584427172194819,0.13528943056177234,0.1745395006205353,-0.1352470868419156,0.23487516218711915,0.7021148326817961,-0.029846759403188233,-0.06373342225025524,0.7432032273125047,0.6029156935917803,0.5168313475941604,0.18175583680123406,-0.027331419987059322,0.03674560375341249,0.11267031586946158,-0.04957042978899053,0.04434514695981816,0.09886253170227723,0.059097534772199804,0.12364700732213879,-0.06260527530400116,0.11434315940763606,-0.08488347336306623,-0.09536805140569035,-0.3081653169015644,-0.37661440195069484,-0.37110291233532
118.32025146484375,1.4982986450195312,-0.34581081450891193,0.11879864468890382,0.06355186762200953,-0.017935535659635654,0.2417544148750759,1.0278014553165842,0.06433716154148214,-0.08418795566236015,0.13508095615776497,0.2013973638808785,0.049418087994741226,0.05792740408198598,-0.06831072800493583,-0.09027575416937578,-0.23950647800726516,-0.24915544104986434,0.02010722943745749,-0.06523870934719402,0.08133881801731117,0.12427318430163323,0.19562896905839808,-0.06810196855877532,0.02621900209696572,-0.3036576528710252,-0.11424098029404103,0.1831864598950338,0.2892460811819367,0.24315559205210566,0.2015564538048943,0.0715280968311614,0.1039180278059426,0.20566332841210952,-0.0686642072754631,-0.18743588241111886,-0.2580806717688497,0.17631040504935883,0.018212817296508407,-0.17411572253972293,0.03810902412018527,0.1460176795863798,0.23291714075273814,0.12306523292619659,-0.052128318740848875,-0.14388377573908243,0.14995443350426463,0.5626228103489344,0.2847781460453579,-0.2886082333765906,-0.7790002155374831,-0.21842766933618868,0.16751432314186224,0.2948657692813917,0.17184232980612663,-0.18449119877033454,0.25380669838063996,0.07711181777164412,0.1353659433675508,0.3867284900579889,-0.04473271948065931,0.010869871356793202,-0.1400833922595845,-0.1136567930486671,-0.28655175957937495,-0.032229560111199144,-0.03489532897489073,0.001331146646066074,-0.0071884541099004415,-0.0011184722627697883,-0.052603577348978005,-0.021604747769939234,-0.2557553968228694,0.01174569776055652,0.26092377413705337,0.2550968996502509,0.22313797300257407,0.014518355614522208,-0.1284084798797056,-0.6321354192985194,0.1896221737611055,-0.03857404698445293,0.1047917749094539,0.2065974769501057,-0.34283640170128504,-0.2135962645149301,-0.10315374162516516,-0.0060897735279159815,-0.07266685349058194,-0.015591695850846129,-0.021716066942952954,0.05854649738375308,-0.20965951718847495,-0.0860473078664173,0.01464938287272264,0.0689906775766286,0.0200782751490751,-0.05515636976662494,0.024088287923755093,-0.24080721038551797,-0.04360938764791067,-0.2506383254133238
126.2612533569336,1.5781936645507812,0.041850152647782406,0.3698005996690448,-0.13004730788565727,0.33734511298941283,-0.054512937612106814,-0.14001599002253887,-0.44158375610923284,1.7090136905697195,1.162600463058836,-0.06824790433018554,1.427223855580551,0.3779815619628305,-0.00236756389047578,-0.37424924406257043,0.30084758444707865,-0.8054734761504974,-0.18691797263361132,-0.10255835923446929,0.16889504849792275,-0.12651153651084185,-0.1911392908330973,-0.17490511018682264,-0.02094951469203718,0.1410206119938929,0.40546193974513245,0.5145132005226429,-0.06270720080949115,-0.06187116694072719,-0.14425706593586926,0.0740444939783672,-0.046356458874919695,-0.21775647899375605,0.18886386733813953,0.22448878739398687,-0.06892139209219257,0.08137929992684283,0.007351106252557249,-0.021165252535432368,-0.14685442382847835,0.004019736119866555,-0.09205453312897593,0.008779048666595242,-0.08606663942570549,0.029366735683821657,-0.04379871380996618,0.017503140518519884,0.08589699192490233,0.13744035857204134,0.04805366545674623,0.3349238942935118,0.08077497088308361,0.07666817105749972,0.112061320760425,0.023675900306527914,0.5982232287831907,0.43815931639814526,0.08924682206719566,-0.1349137246547205,-0.025105838258321304,-0.049740071290126545,0.02861721233771833,0.3365228201202427,-0.0844053066068668,0.25799049847803485,-0.022520201228162645,-0.08344624869943132,0.12863750243118482,0.06101562349137808,-0.04566101047246138,0.0011294981004879713,-0.08460784781869252,0.09672227838869948,-0.04022669623920413,0.1068102276628594,0.10919280374949367,-0.11993794904396657,-0.030580020935454894,0.1305839020562178,0.1653445590911171,-0.34764160851319087,-0.14961519588257943,0.24428612078878012,0.30182723999676225,0.1274750883961436,-0.16178956887055762,0.09038270027570494,0.06656450765160112,-0.06685677185970107,0.003103496485110553,-0.00258359216282003,-0.014841286212476988,-0.45965621024473735,-0.16988887543912287,-0.04608123340806347,0.03703549403679338,-0.027737340646038052,0.014808004292524355,0.18784317798263128,0.4277928322106067,0.2630638977534879
127.83944702148438,1.5987091064453125,0.12237496235811401,-0.14382465424643548,-0.08991541234682243,-0.2911071428099983,-0.44964674462530824,0.40169903776848204,-0.04051455879906936,0.13127141311393203,0.1364504187599307,-0.327156881116578,0.26062843204511993,0.373763611505696,0.4859106039264301,0.07658058163017917,0.11934192468534811,0.41005654393750796,0.04439290563541008,0.1192602926798915,0.029566454037631723,-0.08769756017165271,0.03819941033978866,-0.0025434809740481,-0.09459187524145533,-0.03178908212677311,-0.11792600123376039,-0.01736358658749871,-0.10891792780172395,-0.12115498122523799,0.006303574749040185,0.03363640682693225,0.04027329139274974,0.007335090837743578,0.007035628646623476,-0.024165978769760205,0.15188601039989494,0.09801999628703383,-0.043375260000364096,0.0052155139553475074,0.15459746356021992,-0.01748373552412668,-0.023025414498283235,-0.04261928418585004,0.0354191410676853,0.01938367255062079,-0.27724572269455794,0.18170058563234678,0.10282949729010589,0.31444077164079537,-0.02356680617202661,0.1741349211316847,0.1780860029030044,0.0677697879544245,-0.04639686150859648,-0.03131815746084909,0.031069930408104483,-0.03420895116367774,-0.012006352073735918,0.07195289805719003,0.12999442433537042,0.08445582507185005,-0.03601616058728813,-0.04864594335989617,0.5088291581496261,0.14236383884666237,-0.02800834751761602,0.006878658444537354,0.049201752658520566,0.011183890797584006,-0.029467925946040224,0.022665659703447968,-0.055511924537189394,-0.20772271559019134,-0.10758719353156548,0.2306358997078119,-0.23115054970492152,-0.24202731655666385,0.07145938824504947,0.28688691703366637,-0.2223784411342358,-0.1742969551510942,-0.07680423227067687,0.3048317214096083,0.36983014667225744,0.015116796473583936,0.07692260866787,-0.013150260689830474,-0.075767952511298,0.0021708229247503746,-0.10869535212587944,0.01778469873825111,-0.10319799977052939,-0.11417106078804422,0.019823046306529202,0.10123086124788439,-0.022365785192115933,-0.07986913306941659,-0.050650361347866185,0.2423192735168602,0.11734422266958797,-0.1557899221166113
129.4381561279297,1.5779876708984375,-0.15790950723360275,-0.43999743548576964,-0.18750683265895324,-0.6580332439407488,0.008190378987495958,0.15156673568840096,0.18283726373275255,0.16180422309566744,0.6899544854304787,0.5285982417438972,0.22841486408920228,0.08543377148344061,-0.03496027624709148,-0.11390627860554586,0.30310650187966315,0.1300622468792072,0.05344965133951861,0.059496168407695005,0.3865549901924942,0.0020211187838514067,0.2681459063017483,-0.039338174000473125,-0.12156586967905769,-0.2400562301634862,-0.017799814430103054,-0.09912069741684859,-0.09253260204787776,0.009928044184677725,-0.1742007369851432,-0.08533010048885732,0.00046121376399409426,-0.013683522169018972,0.02496589777940108,0.04552540321118571,-0.023039926751335836,0.18004824776262274,0.1270993726478989,-0.0007226230559855761,0.13535443125838725,0.014107314913146027,-0.05778350217487118,0.005925808551725583,0.2983993321119973,-0.04186215647434844,0.2812688587889598,-0.07278117462938323,0.06954142017147023,-0.019692679929441664,0.368809119229651,0.19401854323910428,-0.1610464977638646,-0.15212916090637524,0.029790845974317335,0.18593006663263503,0.09202262085035928,0.13814139445233328,0.04981272667040869,0.05928536170237927,0.011894575729642212,0.10850686289587937,0.06266239982081617,0.11269064412945255,-0.21175090370760383,0.1899793265157835,0.2070975096344067,0.05277087795700702,0.04915041296247093,-0.030595220718955703,0.00257694801695335,0.007212341241547631,0.033907718796078866,-0.01937612794448733,-0.11571527623259363,0.04440344350459711,0.19106489580619626,0.08608870103315473,0.14382001867463445,-0.06043258636012727,-0.10915995217208505,-0.047072359279949544,0.2593261617799997,0.1760647373269481,-0.5109912438084061,-0.11158581032886492,0.07747188353025242,-0.06124136648490505,0.0054137237566232455,0.011643418046846649,0.0025509549832442007,0.05164540089768639,0.07084285034079761,0.10394820671223272,0.020504424617150036,-0.21440501157023922,-0.09131072002327721,-0.033360754819220975,0.12484470517778123,0.030348240743725354,-0.07529715972176447,0.18071535691332904
131.01614379882812,1.4785003662109375,0.04672718323324637,-0.12622729361415239,0.07707842361480662,-0.40821716908974237,0.0031923081895128894,-0.02330320330014371,-0.05422583641011882,-0.1116255068272568,0.2343800430193173,-0.013576045335233447,0.012315996384944877,-0.023993394779511897,-0.09303975198822073,-0.09746791527358463,-0.12441453544409965,-0.3448496959385183,0.0230036303673778,-0.023751933551814423,0.015107162044793612,-0.009391634746874504,0.056552454146515066,-0.06231204646578945,-0.05270162201303209,0.009375841734738998,0.006248394860155251,-0.07702998964421137,0.1172263224673938,0.02058751846356924,0.012765037361149872,-0.01985662676939263,-0.014748529591118031,-0.039193549432043284,0.04270271495648815,0.09451497296569526,0.004824169819726458,0.02083489278900127,0.013363633909363015,0.0251889921595463,-0.01232026636509415,-0.019355235886736766,0.17500843095492427,0.0013780774632802528,0.02239915476364399,0.19220632880467672,0.007514287114101695,0.3949284758685404,0.273703070573251,-0.02670019995604525,-0.11651560648083156,-0.03125047031600091,0.15409205820564206,0.11812143207731217,0.17361604115416462,-0.04337204130614952,0.03318523860764186,0.13481897884455163,0.011322740130057404,0.00794878912384116,0.05274961782215099,-0.15710534519267683,-0.0530879206883752,-0.033656046133349715,-0.0863098639657118,-0.01705978275690006,0.05784033603537682,-0.16515370972724958,-0.03416022946659106,-0.15225575651171197,0.04589432482773166,0.013131594089937193,-0.07629841256483189,-0.026144243920721386,-0.021296237566672094,-0.014167293641287092,-0.11972417271970992,-0.22759144927617955,0.04220359166827254,0.20780065934776593,0.05485818253205393,0.032034777043635804,0.3576116846072087,0.3827047941613645,-0.2411253843938634,-0.3011981608844409,-0.07553216802935375,0.030294240815707744,0.06248077289413461,0.14576549573499062,-0.0561920622847974,-0.11048765735948997,0.01999669952998338,0.17949123861189292,-0.05049972949102326,-0.3982138494018803,-0.03619362252576913,-0.01592444525203839,-0.09044782999741088,-0.2575590309977054,0.4852009373411769,0.20317406265223886
132.49464416503906,3.05670166015625,0.35797433429616377,-0.15602771807559399,0.19844276087032808,0.009690316005139385,0.20633379751190906,0.12474853510627489,0.4248671053128732,-0.07022338644838713,0.2306461255601639,-0.0034501554763492273,-0.0069737032385060425,0.032636067521865555,0.005560511673550225,0.11539072684247434,-0.011146438012918352,-0.011700987677577749,-0.0001086476464787146,-0.0980224348871073,0.015486184267555863,-0.06939371220252344,0.00022149704993217135,-0.0747517737537715,0.026966544146225093,0.035130690340138646,0.07229664376629628,0.05820193644207477,0.10802043373664205,-0.010736809744331588,9.958866584382957e-05,-0.09489924965079632,0.0910771576048762,-0.09687296880904182,-0.14703250960480005,-0.012082066081381447,-0.0385579504099225,-0.09229370938546533,0.008508838586293505,0.007341630849502234,-0.036392445629381764,0.04353299663922901,-0.004221375158245922,-0.08186838099288596,-0.08627733196262312,0.03832659844422734,0.13160498558175715,0.16229301903568855,-0.1308617302072052,0.14623467430078152,-0.016838682730097133,0.11279202155818846,-0.0654643076805843,0.3532596198957605,-0.0977264752473759,0.15116634855465416,0.04146159270280114,6.599935595781592e-05,-0.11345988583742103,0.10228405711207596,0.06668261213440475,0.041650178291813014,0.10003880268039454,0.09425979977840361,0.0219904107773784,0.5780737766091839,0.3828464620737661,0.4699914264164739,0.04043070553471127,0.21255883898535527,0.04603198308930871,0.131861551976295,0.003907017074072878,0.011775144791846284,0.004391697397984055,0.030121374092094536,0.0820205784128453,0.22477206578563091,0.21356327351659174,-0.03963472962525477,0.010474345043099798,0.10365780381757862,-0.0363113496076309,0.19255639939793945,0.17002302700955357,0.09669677220120707,-0.23230556677480474,-0.13497739098370226,-0.34925224694729834,-0.13021755608435692,-0.12321214082173207,0.20380123483187076,-0.262386500773169,-0.0858103773971257,-0.19483561469017857,-0.1398910901926125,0.08503753954933246,0.08550565666662642,0.2780405650226357,0.10452260542715597,-0.11208171221947238,0.1119867903216425
138.8378448486328,1.6280975341796875,0.07946729990857639,-0.604699649749889,0.0020001982935732576,-0.049075282470178824,0.0696366124944881,-0.19492511615331487,0.12174288011411398,-0.021579927885676004,0.003860184198678686,-0.029037346524817518,0.04656500924067842,0.02532968254268682,-0.025179356623631244,-0.005844331840265627,0.019329529625518788,0.056222832008295004,0.0012737146210640485,0.022707854432329123,-0.02832131766467158,0.04118852707031471,0.06820861257549957,-0.02084321140810598,0.056723792126422264,0.03530442469075655,-0.019614305272502956,-0.03627581636807189,0.03435971487283457,-0.0505347210937783,0.0719736088319323,-0.035784991855453856,0.014748621352114395,-0.049568034325066776,0.0189235194801248,0.1512691392662426,-0.029731668422421524,0.10187151841856283,0.11011563173901004,0.04257597656971143,0.06560492411897541,-0.035542949793551167,0.07395416112129079,0.1209151536964088,0.046445101123275365,-0.012137111518777603,0.16823268410857722,-0.1965817646890355,0.06224288978853124,0.07427503222819803,0.17316548682540744,-0.06843886762320288,0.19965590547397127,-0.09246322310260607,-0.23763371356341711,-0.04538969128964683,-0.15567841814837027,0.21517272405048252,-0.010419206960065925,0.09845701778839278,0.06663531761091669,-0.03498049480870405,-0.29219462803540247,-0.7347027391214247,-0.24851201518120558,-0.16120490191369613,0.06029315779605644,-0.009742467995155726,0.08960246938720183,-0.009416644794998597,0.02287597121294357,-0.015280203562137778,-0.0042566610334864585,-0.11672400349973176,-0.21576435463822724,-0.1178234282885482,-0.1647938279288118,0.03993001052503142,-0.011393002335753069,0.1504806709344857,-0.038239987405992965,-0.5329580782829632,-0.7822052281206805,-0.00853155345514707,0.10751524386049555,-0.05676059632803277,0.049869691936194886,0.00406650194588848,0.11353650828475402,0.023270124980272484,-0.06867596245195991,0.03071593465622261,0.10177893619702048,0.020381649422135918,-0.24779624509290799,-0.017093359873704573,-0.04253862077823591,-0.11937665103056874,-0.014761692725370241,0.16038971881432101,-0.07794451418590577,-0.20660428925032479
140.4659423828125,1.6383056640625,0.07298628138749941,-0.31837702588548156,0.1819680221136637,0.281541819361805,-0.39333517816700425,-0.004701196017904839,-0.10869680458597418,-0.012446182867563533,-0.10516503345558212,0.04645475681326603,0.0072115367103239274,0.004176078114757148,0.010037418849111359,-0.001968449415946729,0.04520198642740002,-0.04741971614912505,-0.13454561173464993,-0.09311622649303399,0.1297630223461604,-0.06340442615250899,0.02588417260581373,-0.12165961999568842,-0.2100519241767071,0.03228939526206374,-0.11599373179273942,-0.07227515401462452,0.10079563289346997,-0.11416412335392494,0.042824646062319595,-0.020760393032383882,0.025308752119738796,0.0674878266171308,-0.0178431273981231,-0.03930126529899954,0.08860243178250743,-0.09006183804325148,-0.019659179285889554,0.11593031510088425,-0.06991080057090521,-0.231369292905066,0.09849596896835386,0.23426475489469265,0.32666567610611913,-0.07337216915013306,-0.10676263773716317,0.024773450651711038,0.0735190727962213,0.04693805130021009,-0.09741092241261859,0.11817648160029894,-0.1093056867712286,0.1915244388808815,-0.041851911299124266,-0.098142957867244,0.1161099302926979,-0.00834104113916218,0.1021337537547099,-0.0020439635675045796,-0.14077188884573313,-0.07223477296304691,-0.35445666341988435,-0.763311391112415,0.32294729325909116,-0.0499747349811006,0.034252602957097,0.0025035280020348884,0.0897231657560484,0.0028433649822856427,0.024193797765378666,-0.0011959949631157722,-0.06217386822879012,0.31712012876709283,0.08911599805094589,-0.024964971514218434,0.6529206159241159,0.0650097815271753,-0.4744694097459442,-0.6265378682575208,-0.03277005501090334,0.24175487751735042,0.09990061204507275,0.0386500413411459,0.12719369095849745,-0.04576525770862418,0.010240917557889556,-0.009850357036220359,-0.08662582255190297,-0.23696506649471155,-0.06439111873915904,0.07642467312064585,-0.03813088733381292,-0.06511268730164016,0.024668386445084435,-0.03901206945980958,-0.0694288908029991,-0.1148135752755501,-0.07980766506565062,-0.25735726649862073,-0.013321795198573762,0.15266401512644395
142.104248046875,1.6082000732421875,0.15853162115850317,0.26251236719640936,0.09049683078339857,0.7215841990660989,0.050126614582506335,0.024605388576368462,0.06917415616957114,0.16261830031508623,0.17001564915891026,0.014917723800351368,-0.06261019323693807,0.005025858682238809,-0.002832603287203154,0.018939073047425696,0.041737202090368644,0.03950496317435466,-0.027261033078299787,0.006531942499951157,0.006912486315865478,-0.08524119027243132,-0.019737507908953122,-0.009026543856387969,-0.04360332532734157,-0.019771307823544304,0.0459748411788983,-0.01640951693813551,0.005483639915935789,0.034615069606469255,0.043022862322388354,0.05596767928215141,0.031029494015824725,0.03651600805499673,-0.006100591333708818,0.019435589038229378,0.0027361610581675025,-0.007263731757694949,0.005281798730279184,-0.028218205821273844,0.024808007182364086,0.03183968549155082,0.2734346146322907,-0.10251628680662664,0.08788477594929105,-0.09635109793096369,0.24407753703682145,0.30357723406226605,0.01587227362687492,-0.06991325444790926,0.29136405460920867,-0.241980904408626,-0.02033942707251911,0.17965424074216316,-0.18005923672693724,-0.011752071795910677,-0.18819354934320273,0.00876463183012656,-0.06736419912235789,-0.0576395303517051,-0.052219932429903346,-0.07171808429920852,-0.28632549493649423,-0.28795379584385167,-0.4311454659202607,-0.10466110929341184,0.11159639875930809,0.15578597601802335,0.17003272680882095,0.11850365053647524,0.031729865476525065,0.05592406356181576,0.18220767312173106,-0.3739912914645064,-0.12459924843469261,0.24896134016586363,0.6497132855164925,0.1853381292258343,0.5638857788971252,0.1801299794700456,0.1930647804102878,-0.1839153392366919,-0.17886780048874734,-0.17910486583607202,0.07126868977937025,-0.002396012729388948,0.01894484905302321,-0.08708882750218983,-0.2157980718149012,-0.08897242984764278,-0.01940956736203323,-0.010747457977726811,-0.02717938821465823,0.09345442101397286,-0.20656779569744302,0.044886920398220904,-0.09765432313941735,0.09614983244004648,-0.012696884047469912,0.07731863782329235,0.06834200980825607,0.025036254025352644
143.7124481201172,1.587799072265625,0.013747584957522645,0.08932932204410335,-0.1669500237404316,-0.05266401566966453,0.011730318741530299,0.07596208096005244,-0.3217689458088168,-0.058990515969826574,-0.13127342609001724,0.02411013117300628,-0.02287639847401457,-0.03291700522958057,0.00349935204031504,0.0482918726854719,0.021678548237373266,0.07337595976810592,0.021795372850638376,0.12689071755358108,-0.1468354167279466,-0.05546819342217772,0.03118189946841393,-0.012083099347937542,0.07108862084638207,0.036241951748080835,0.11505644732204044,0.06130745535420921,0.006009036498416917,0.0221221813136384,-0.10572442965956988,-0.09644428059014915,0.1407530958710891,0.10848901925001614,0.0022501485954185873,-0.02726013847503408,0.0672278892370857,-0.07966834614389035,-0.008004986693437773,-0.03279138134955673,-0.14197418849933588,-0.10597099429237394,-0.14531750862839904,0.09833329199132301,-0.003316681586291649,0.1007384069532443,-0.2151840718132459,0.3206911469118199,-0.43339463320862404,0.023384154488284542,-0.14339311128650278,0.17037221992435592,0.3406070170002772,-0.14988631460328838,0.05629162232518114,0.042890899617462876,0.09487019440889606,-0.017600049022427358,0.048486333303086736,-0.037178699768483606,-0.011400739209882072,0.11635016742061703,0.02115682648543189,0.1494351815855749,0.12014015566280345,-0.12107767277803679,-0.1395503311256642,0.19503196371303202,0.059591517610004245,-0.01636818154919507,0.0005166491823136373,-0.036596506052171546,-0.0759535858104102,0.018201272173282407,0.029806095748984227,-0.0419440035919266,0.0620603466369189,-0.007424701414518174,-0.22060378066422665,-0.3416315473569993,-0.2786050940721478,-0.7768158443538018,-0.10095206756843872,0.16634520896923605,-0.2107576574672774,0.23010811246997157,0.0970787477668972,-0.014920008247892863,0.005705961301481769,-0.0334447958569139,-0.01018291890337043,-0.3333386413905259,-0.04572417085748788,0.03394222932774173,-0.034554119361149015,0.14146531490211883,-0.09008182001013904,0.0562746281577015,0.14355004966390378,-0.08799905511575717,-0.032420776551879915,-0.017119812933887528
145.3002471923828,1.4886016845703125,-0.1640754050244657,0.005385148719844884,-0.08212970714262598,0.16235912307796252,0.012282740888551488,-0.18513433850323147,-0.1476852257285622,-0.13237564627517373,-0.17673362011992239,0.019122505152611085,-0.11476970802609465,-0.021584437854423127,-0.007636660464213673,-0.012467848211363977,-0.04848338082901375,-0.028513566831771097,0.020201040073274508,-0.01512806097682795,0.03705920336722935,-0.04792726640608433,0.003394597409057786,0.05122577102647196,-0.007244873042350791,-0.07049960813070676,0.01957046512186038,-0.03879564257987068,0.0027243836357673987,-0.08501115090717326,-0.038805573375279775,0.2550214059355484,-0.026654964625824448,0.05346273743373845,0.02031603769779965,-0.027643894701631196,0.03850432330657401,0.0022256824424983414,-0.10485109631103451,0.019396775751395423,0.02238297005686045,0.0028819942943366164,0.2136085434370827,-0.0065003712440058065,0.05283597412583217,-0.07317519824938945,0.3720334335998059,-0.08738486905493599,0.026150260854331253,0.26865431091818076,-0.09827125088920356,-0.02835992458486048,-0.10646707158935863,0.08046285009256669,0.20168148362686322,-0.02349982252556019,-0.11122611050349476,-0.13174777339787558,-0.006898691649638624,0.027641505374000664,0.02641958118766206,-0.12975269525053756,0.114112445522679,-0.5660746947368825,-0.1920885691200046,0.2525288014030213,0.3816875956087221,0.09629151564085354,-0.01563481319096435,-0.13499254565934896,-0.07618671835842017,-0.005137733901076249,0.025057694806034887,-0.19321516705802852,-0.09455433131976952,-0.14100068181944747,-0.19448292312606127,0.2641207598865517,0.19073996922061148,0.425024974476639,-0.09206709253171304,-0.44649992718167686,-0.22329690216173637,0.02621820094369454,-0.07025944273426772,-0.17023033707562754,-0.16157884448767007,0.031089667056891836,0.06164754570909318,0.34040207770113007,0.0036150085560828216,-0.08834984588996807,-0.027171811331278616,0.06046692884342338,0.045101098285720925,-0.019745172222691364,0.0692107357462077,-0.05763621455096167,0.16063835785206101,-0.10207336704251092,0.019655565629558138,0.23737364176770745
153.34144592285156,1.5987091064453125,-0.21218491252348692,0.11526656418454345,-0.012920058885321689,-0.26402078539672563,-0.2820139103003201,-0.006639476770726155,-0.02274945669759295,-0.014198446724620893,-0.3289013067423333,-0.03177793402065084,0.06340027406513214,-0.018216347039747297,0.004910505425005489,0.008077227171469848,-0.07742425256562357,0.0532540143411022,0.0034546654230260764,0.05900741173383939,0.011887072031084077,0.027981459445933318,0.0035763849183944427,-0.011480353533236717,0.025803848229171693,0.04409585280187992,-0.03753905711258401,-0.07957529351214515,0.039050297458096475,0.06974077496415497,0.015251635583569775,-0.029326176458748632,-0.1478937852919159,0.027856683898190373,0.005357947028659115,-0.0694870624746604,0.04510678230894358,0.020714450199648834,0.03416078606641953,0.015254503628196267,0.06934457894732765,0.04901731090001721,0.04939642997915837,0.046568811415042655,0.011174237901390771,-0.02012716620596133,-0.012103900509162067,-0.020401659736847072,-0.09977999156114985,-0.07790794554889724,0.22152979468795345,-0.06721719692907223,0.03491543337046003,-0.00400705734088024,0.07603379486204036,0.1757142377349824,0.16483245134675056,0.05188098795625679,0.005201682539728698,-0.017071885217157544,0.03813904077515585,-0.10050432406075424,-0.16651908206087054,-0.10927240291046295,-0.2831755360120958,-0.1603001184993242,0.034636341779741536,0.010030543537560783,0.013900118357576683,-0.014599723055716472,-0.035305498573087644,0.010659943250159655,0.2133996708358501,0.03937951707456623,0.024941354404337944,0.2367032639325673,0.3609846498197536,-0.502986679092553,-0.23258836199216956,0.2699333733530679,-0.08522381570605439,0.9617648160760303,0.2719440780622713,-0.06765827578257348,-0.27869444567380025,-0.08427381765989123,-0.0030571942902244045,-0.16127800463305994,-0.06331753532391596,0.0355015489434025,0.0190137310886547,-0.15715225155037693,-0.22853805606502042,-0.11144046258785412,-0.046364330588631916,0.06090378656981147,-0.043050509419970795,0.24639311101513012,0.4587999625295001,-0.18768006994519335,-0.27139572490336733,0.02587097505329857
154.94015502929688,1.50830078125,-0.1057608705645109,-0.4151078986798915,-0.8910265532168843,-0.4850647678412183,-0.17569126136634872,0.16487405276220582,0.07567931626359173,0.19868487760388803,-0.22245044445846396,0.30032524948611605,0.16925303119240864,0.283955215948602,-0.09519984143881512,-0.0787625069378551,0.20974736567397864,0.039461760754349685,0.007815263679000402,-0.15988204775353115,-0.23405286411725937,-0.2513126986548343,-0.034275170088020765,0.045914794796023325,0.18403603079601627,0.025320538440957246,0.003270488881294304,0.13748687924644948,-0.006865329703116157,0.06650815487805353,-0.0033857473410560694,0.004012175609653694,0.0006695112527374524,0.012764819810559904,-0.0005580139428282709,0.042904887269824825,0.015422475692723578,-0.014555784189715797,-0.015571681515594817,-0.034292990985251404,0.21241774568405664,-0.031234735759561892,0.07555034089697402,0.0005432288766832414,0.00982888798070578,0.26935880360915976,-0.09255441459340175,0.23947877033173245,0.08421946610689861,0.15772569021725494,0.12374534920475047,0.21524759600772939,-0.09004191750265313,-0.17238655352761223,-1.7935265065624137e-05,0.05814301428822844,-0.21948938998149284,-0.2877973195177201,0.08935998820506443,-0.13798484647618842,0.0031070537067554825,0.10249025640139994,0.014802603101116599,-0.0032941443460624657,0.08181792670253987,0.22675837874045512,-0.05370278493613215,0.12504611123373022,-0.09256757666315027,0.07422466387626303,0.015182383995701845,-0.07874429975269615,-0.00818650514076976,0.002156409565925296,0.010457945748136003,-0.019654944211478717,0.026096429968733445,0.048338767270341206,-0.12497060152947571,0.1869614385365551,0.17136718196574463,0.21048306856349497,-0.16393884591509422,-0.45964016647183825,-0.17390833833031324,-0.5369500932359454,0.13254127008721492,-0.36357723848357615,-0.018573882110138922,0.08640164913183516,-0.12022531351890303,-0.034019932211063565,0.02929135266538566,0.16484335704424477,-0.009097136460739817,0.365939863674648,0.2119255451467451,-0.017319210999532722,-0.012934606653626399,-0.22633433548112808,0.001063976609361278,-0.12939794257932755
