start,duration,0,1,2,3,4,5,6,7,8,9,10,11,12,13,14,15,16,17,18,19,20,21,22,23,24,25,26,27,28,29,30,31,32,33,34,35,36,37,38,39,40,41,42,43,44,45,46,47,48,49,50,51,52,53,54,55,56,57,58,59,60,61,62,63,64,65,66,67,68,69,70,71,72,73,74,75,76,77,78,79,80,81,82,83,84,85,86,87,88,89,90,91,92,93,94,95,96,97,98,99
9.550649642944336,1.0087003707885742,0.772928504631821,0.8702138217228313,0.28303530276322664,0.7817821209920659,0.2983688853601494,0.1589904853488354,0.12491737898351751,0.35126539500024345,0.2884373157247646,0.35123080359433434,-0.13879035258024494,-0.15104131595394316,0.6785057164229481,-0.04819680811456041,-0.3318876879898584,0.17182130039585064,0.08281172064383377,0.12409258909591209,-0.3355943937485117,-0.010786118745087746,0.07431171827530006,0.13145278173527056,0.031324672154094985,0.10686622343725061,0.38994403373241454,9.31149931266877e-05,-0.16716860930956207,-0.11105494793279719,0.20497896635199198,-0.45101947653266433,-0.05873968731319893,-0.06841167234516014,0.17509569572097594,-0.040512307451159864,0.029394519557224188,0.018236184743312542,-0.002163031558789488,0.014866003547785687,-0.00647845442742612,-0.05573571449022726,0.04036518099914126,0.01648392182873402,-0.014651790813507787,-0.06024387057684439,-0.033402165544382134,0.05790013491484283,-0.007419991966106164,0.05668668007665216,0.03269706151035592,0.03433619916777329,-0.06218364359232403,0.001555659502121271,-0.08139461718352035,0.03775292174956515,-0.00398206055842152,-0.04363621686399478,-0.006768455100293131,-0.1295445733698795,-0.07670563700376667,-0.049361952759914084,-0.07564622284662514,-0.04044228297046414,-0.14911216449714548,0.3378179193866032,0.6271952883193496,-0.26256982773509757,0.18510126230857749,-0.08962499846455409,0.17490709189202874,-0.02396097296544451,-0.05838510243055146,0.08588272900655616,0.01795450775735012,-0.04257331912707989,-0.001184541650012356,0.009974983868701793,-0.09084698455211251,-0.03221021751111115,0.007339746330700947,0.0800907771103826,-0.00030356856401300236,-0.0014360291980394005,-0.0046483586781490135,0.010071159925705885,0.0034452412455943035,0.061442356429371923,0.1191439601427118,-0.034579507822688545,-0.27585484335462257,0.1455405491772419,0.6015883667490894,0.2590736552202244,0.059876741983772186,0.9104355285433163,0.6565615200542433,0.20922139708297996,-0.22225061876269386,0.14174773729181775,0.20376726175689974,0.41074053414499845
10.55935001373291,1.0083999633789062,0.29557994371768914,-0.18525962989144054,0.1903541943977458,0.32761678230276065,-0.9284163163003901,-0.12734503996474367,0.23619887566169162,0.06698179310469407,0.2117007004308698,-0.07857647109599634,-0.14507533488073496,0.4042399255185863,-0.13903262762280671,-0.057367792120282556,0.09547979586212454,-0.031280497110457495,-0.15273757419674105,0.07649130567170898,-0.06688355995645377,0.1729966036987173,-0.05889169720627314,0.046765471427416654,0.009563266480123673,0.00251762562963892,-0.054009244762812054,-0.18006587345201702,-0.11407322395008548,-0.2389933777657889,-0.03245483618641619,0.025338889421354455,-0.08656217152648396,0.4386739381685105,-0.08426891789197695,0.017495443848146955,0.28971161483534946,-0.04884111627943791,0.020426282390167208,0.1757500777099551,0.12172602375623326,0.05176790440478071,0.12560595352658335,-0.09696045450944647,0.0018367998223938833,-0.05126293022315743,0.00490446409021871,-0.04563769361978418,0.017305610738415265,-0.0030598216670062214,0.03846550669959595,-0.047951237479893875,-0.015144209501105666,-0.03056438089350405,-0.004510273614100314,-0.0528652800759732,0.05587021926324127,0.011136373595100158,-0.022686776295567056,-0.03915140365470663,0.010735550631421467,0.003576562520432212,0.007564984715692748,0.05545518357046006,-0.0674052716298633,-0.0011931823417155427,-0.032165006108712556,0.02814378370689788,0.04553227444857603,-0.04211347072319237,-0.007685446637815771,0.015807407732748798,-0.03651305471151531,0.0018234798674551466,0.02953774894525727,-0.004536875027227671,-0.042349296212958444,-0.02979717346525648,-0.11055182722880474,0.018482911145968055,-0.05863518671709452,-0.0016294794622912223,0.009309969029945655,0.007127550532816818,-0.004507074903642147,-0.06636280302680965,-0.06644395258390427,0.13102474100553785,-0.03625585054479309,0.04396646492809788,0.02970063440347487,0.12691054421030123,-0.1606000639545149,0.25332307300392326,0.1807450469114404,0.12179116960800657,0.6032803462330273,0.34403496777801773,-0.18456862450104966,0.03199121211830902,0.28117764260719685,0.308000816713043
11.567749977111816,1.0392999649047852,0.17866566825140712,0.38694540286448587,-0.07376727759243411,-0.21814614315412503,-0.11996819386256966,0.6981199658819436,-0.23904152016375693,-0.36590260024974103,-0.07780126590207519,-0.2575646252421886,0.34367881743577383,-0.08090966971020136,0.10823999700675997,-0.04863249315043244,-0.04242373015949475,-0.038863446131903664,0.027861407698957428,-0.012788654840935396,-0.016289093583810865,0.015305059523760118,0.05764231885520496,-0.02013090619822072,-0.05143220615009004,-0.09992450475745115,-0.029413852868463253,0.02232651697035455,0.029051600486920424,0.014857689103275437,-0.27866424128472944,0.05861504861596001,-0.046884745361699835,0.11833321715921007,-0.13792706880345623,0.06446514765202506,0.0676333646035497,-0.10511118673091731,-0.03547359493505492,0.03839019747512634,0.035069562941700924,0.0016749274671299449,0.007143590325386848,-0.0025434295435028753,0.006109534591046906,0.003124399882111392,0.01666819428189388,0.03930843505020541,0.0343734841922022,0.002254757785208278,0.028603966571089268,0.034107101727299256,0.07171789957476489,0.02501069223816021,0.004778666354649991,0.01928231789417743,0.0641835738631232,-0.02318602345018213,0.029966858742183265,-0.05984443551391766,0.025028128149479682,0.011553463004083246,-0.03851623008354927,0.04619922446434516,-0.0014947622229801389,-0.055899843443420055,-0.044229702036789664,-0.02269062864850923,-0.14336531947038406,-0.01000996153900617,0.004999347862939438,0.0020846944583419397,0.03181774798414702,-0.04036557263528337,-0.06323704159408446,0.015831943288011935,-0.006046859704679402,0.08335668169364431,0.030904338693453486,0.04085434142807581,-0.02071858200151691,0.03284362981070196,0.019111779462423584,0.05677066871670525,0.10352816148730613,0.020689693850673662,-0.1390908570317518,-0.03436355488564222,-0.13087860546682978,-0.4210626178664205,-0.05226964146383522,0.002259503245586464,-0.21907159759321315,-0.049107642299138145,0.03926148490670531,0.3253054770368235,0.3120087973805108,0.3636246916444683,0.3451317927128942,0.11860019081069008,0.11129401847378477,0.10520773798798819
12.607049942016602,1.0784997940063477,-0.018222315542436446,0.2942728420679592,-0.11560813703482883,0.06460965206423191,-0.10632185447217832,0.06087769291150625,0.040447660819144624,0.07275735505907724,-0.18595509340036953,0.025414333840088246,0.0427824182149072,0.003172410930596366,0.10837302786134315,0.060944012766143786,-0.1277038156801715,0.018013523149490764,0.1303072689048624,-0.030292544730505078,-0.03719907721236873,0.023643613392510948,0.08304352301590087,-0.022896256280162647,0.04968884704011573,0.11271759170430447,-0.02714896832438369,-0.008854023277665737,0.005559380917364859,-0.28356762120350704,0.03597796931961337,-0.7321089037741568,-0.018744548185674965,0.37752809322163644,-0.06027480940926017,0.12625059850188994,-0.12346857365954977,-0.10127675392913894,0.33828084564041533,-0.07962477371092727,-0.17647376291532046,0.004895222356662203,0.07502118810582323,-0.00390246932242894,0.04393338973227542,-0.024413860391793576,-0.023749455212952957,-0.029866519922961528,-0.0003334437593642244,-0.017804242376608558,-0.0595075716420179,0.008124735419223343,-0.005951902315770596,0.015712005161409026,0.006525678343419324,0.05534479565403537,-0.09710144128437065,-0.020705495717915596,-0.06323761256093743,0.041859885045880396,0.023099933448442064,-0.01697462476455848,0.0024170485364983143,9.398820903678443e-05,-0.019185326465801136,-0.07112876787535355,-0.004201563481622889,-0.11102473156158504,-0.12864660644971473,-0.0024937796565360133,-0.018317932503926198,-0.020346503755470514,-0.0023119361824698328,0.04021564897038363,0.04873475093245557,0.036925530571020646,-0.08061123987666882,-0.016989477966312432,-0.009092666099708317,-0.0016212065494054437,0.013479941121996904,-0.00673750386374245,0.004192749672333684,-0.012003167318807814,-0.01495649624782884,0.003957694013919875,-0.011498957026151634,-0.03317633241360535,-0.11274468966597027,-0.04957935840334612,0.1777834783889686,0.33763041994398013,-0.123088910519301,-0.052972668403125256,0.10319856647050685,0.26276867019759015,0.13158147080846858,0.3126941176250594,-0.11495468068141268,-0.16483243527742167,0.03243635146238627,0.4895021849979534
13.68554973602295,1.3388004302978516,0.4997167268679258,0.6191567490962196,-0.22311062896698747,-0.08968324897911101,-0.022646794562083437,0.06001052481355608,-0.008644101566679843,-0.09417095742224443,1.3453612766214148e-05,0.2283791913810242,0.0913265606472018,0.07918175953639404,0.17538537845117902,-0.03341706847884347,-0.03462291637547234,0.10599614776509342,0.1622665432929796,0.02514390384127002,-0.08747693374818026,0.02792709757431258,-0.06309832990577342,-0.14645082291928596,0.0006512237425646226,-0.00023688567887097944,-0.1070185142750682,0.012317078898944428,-0.017869986973226244,0.16509484234522842,-0.00513864847270169,-0.07336397256683873,0.04101617847873891,-0.031224814483034616,-0.00493955257300524,-0.018423099939716775,0.06977990624429975,-0.04798147458121243,0.0003052056505370021,-0.03509884472214263,-0.008952405445490016,-0.004880379910938273,-0.0036366353791001914,-0.003100190047140982,-0.0057024780676189655,-0.038561763196043986,0.003853210307513833,-0.029353236720894987,-0.05733107517162424,0.08035429148303776,-0.02495436664552622,-0.0019123360416126575,0.017061890978016726,-0.001827877616025415,-0.0992372550799914,0.020204134472068654,-0.04865948563868679,0.016277753074624066,0.03387388028445314,-0.00582932641760113,-0.0775677547514653,-0.09170728273244799,0.08617228394530443,-0.06538552744206738,-0.005967138771594589,0.0401608992112757,-0.0021111253050085377,0.02756719721017851,0.04109617329659914,-0.043824767294153126,-0.02291777722011928,-0.0538457860654467,0.004861520160698839,0.008045064229868408,0.06545462940187324,-0.024269165963083525,0.011846921518113195,-0.02639364107216843,0.032804142316078415,0.0353891916940868,0.00825113829448511,0.001509477859654243,-0.006800857918129451,0.0016221250512254365,0.08739107765803195,-0.011099772214057673,-0.02711202379923957,0.0011129039387382817,-0.008871392717418347,-0.037570537412994924,-0.1355046986023384,0.03489279838319176,-0.12547107194688706,-0.25121074462872245,-0.07715539918017089,-0.142598511342124,0.047181623058815056,0.5714408734883392,0.00407477295724136,-0.5286961568845209,-0.029150307867630475,0.4307945744023617
18.19084930419922,1.0181999206542969,-0.3816526932027464,0.09780677045174911,-0.19437209140007333,-0.011538173594330028,-0.8314414862365423,-0.22034462745734112,0.033025415877589455,0.1360829699873627,-0.054816546130931884,0.15564979894937175,0.18007992909724171,-0.01039158689403366,-0.06768507463305765,0.03515772963460492,0.019194771023715793,-0.11989794813895958,0.07438460757324318,-0.07089778649275197,0.014499093400975915,0.006206945709247256,-0.22937757155578015,-0.07847305821176104,0.0025476002382806145,-0.25015908515936497,-0.09175671887924067,0.1034316669789604,0.0031059568566980424,-0.34113497601155696,0.2980036573383921,0.1410849347433738,0.2749912299827516,-0.5175813836295395,-0.42094011873946374,-0.06277327835080451,0.07988559387023123,-0.1498818770784743,0.04609566979090762,0.27636105339536804,-0.03565643726865771,-0.03215941274101836,-0.02086954665917135,0.008339481643773766,0.030704663934922147,-0.010376850349601698,-0.05861821013236618,0.01992648531010553,0.0015445384400522948,0.03429295775066389,0.029058178408335963,0.0050251665279322216,-0.026793241283112654,0.03816023248534543,-0.0016717879102117429,-0.02925119268960867,-0.010902813492287035,-0.04048782811668411,-0.05827409521500347,-0.06261626782966917,-0.09389050691136441,-0.05998990280509439,-0.0037787501729545482,-0.0019315591001622496,0.0345105170775174,0.0533533977595589,0.011125687013465502,0.04483957963557092,0.036987677315928245,0.001176916225692328,-0.015859847242349477,0.04088432946362763,-0.003669210596706628,0.025476814663123404,-0.026153416224143893,-0.005713735420230268,-0.0017427678921519887,0.03379847357100638,0.0003874243608479465,-0.06749314338134604,-0.027656425498525438,-0.019824491461265206,-0.041391841695969774,-0.016781760669660695,0.002192920420234389,0.018268034883390755,-0.1062355209961975,-0.03549278692723189,0.008927562278617018,0.027043669284497054,-0.06019033879317749,-0.06478282831658244,0.054913290271741605,-0.1812561235566285,0.24899970061104215,-0.5531278644996183,-0.5275132526509655,-0.3954969913869633,0.2200437840130804,-0.24853298341915075,-0.28252528787285724,-0.2750726141140094
19.209049224853516,1.0589008331298828,-0.4094497798761694,-0.0819790931914533,-0.38783527948314606,0.12386845322666643,-0.19594863919296254,0.2816178326690188,-0.01726148145932263,0.10401476729990669,-0.005759473841758095,0.14363659518125743,-0.02289277294042674,-0.05655091637272487,-0.01598220035333041,0.026685862888822465,-0.0816039957307507,0.020221449714206852,-0.6114943190169734,0.044213231306540854,0.35858597619373006,-0.048179183404563015,-0.19111680807151668,0.0064905331167991135,-0.031024241406758718,-0.04947966994790729,-0.007893994666045427,-0.07832546389291722,0.027200512878664207,-0.016515090213003757,-0.1358609093953307,0.08488086055573961,0.32407294390883634,0.668138815765368,-0.3131253196414026,0.002467444157703643,0.2326593656239882,-0.06124753359290959,0.09031680151778496,-0.017424514241691308,-0.010586018027934484,0.017541636605754425,-0.016167336736796715,-0.021564246141064603,-0.002103473358140609,0.005091971403435158,0.009287339897385147,-0.0394201237675083,0.00466759375035763,-0.008970889337168681,0.04607833159593083,0.01287700571418344,0.004700429158634123,0.012791436923225409,-0.030066314017894034,-0.08777635556692859,-0.07698508418779533,-0.03131503802058593,0.045714099129709265,-0.042044282104564575,0.04344676093661156,-0.053459266373372616,0.011183210795989296,0.051642166941171026,0.004964915769057332,0.009002771382550262,-0.013172273064829928,0.014563121600059804,0.046351062229476506,0.036582540063384406,0.016366362385204822,0.04071954645035357,0.014717482643994279,-0.040867805009966576,-0.04440184184823369,0.005017933006020225,0.002409965703363234,-0.018750716739003116,0.0049684340412251005,0.04730752295672991,-0.051565140574556176,0.0022454115345093796,0.011668245077814263,-0.0008980012494487363,-0.049449071186286386,0.07160305718526443,-0.016150069069942593,-0.12431481176530083,-0.049607024284312955,-0.11982051572928654,-0.20315756798106038,-0.06848052662000356,-0.0961483999108374,-0.34072336722214047,-0.28393790841156824,-0.3513820983997673,0.19205099868836117,-0.5309561851779417,-0.1655534194709131,0.7717913617847904,0.09455918819550227,0.4427948285036066
20.2679500579834,1.0792007446289062,0.42572595619516507,0.04514742757473464,0.3691334432560194,-0.07663837440141127,-0.06805930685404668,0.35357692105564026,0.03137854171037248,-0.3552357099697835,0.03606326173974231,-0.011266511901175114,-0.0760364077436947,0.09951162203151157,-0.18084411027583466,-0.29148232099116,0.06510832162680613,-0.1476960968573731,-0.09091586948818918,0.08336860473514468,0.07496612938228728,-0.26258081299126484,0.1000774462415581,0.019393211326245708,-0.11914785449678807,-0.02847834372531752,-0.10772749456412539,-0.08248635808790632,0.25278731704186064,0.3218999924692906,-0.2856654302489909,0.4955030959714128,0.09957255870594342,-0.29864714614046284,-0.6039603086250245,-0.3474728691060916,0.13450556249329565,-0.0513494771955279,-0.01752359413117916,-0.017617657258235882,0.06428254932464589,0.10140979650617517,0.07311193404185383,-0.013298781552228564,-0.036398573116070296,-0.011611130759580437,0.013827726333213462,-0.05045806420052695,-0.002719016484715069,-0.0008576815791827871,-0.03693459805828904,-0.030775486907498213,-0.018878137611850976,0.001093246228709761,0.04261915851965246,0.010949788013638773,0.007949598813963189,-0.023230155361081837,-0.017732556079761652,-0.019826231809726088,0.10555017797477059,-0.001695340616506873,0.048864719175065414,-0.030940041541955184,0.026738913202190767,0.07631688109979015,0.012128992598310786,0.008828860120123827,0.015544212179076958,0.09771049807444412,0.006191269472905449,-0.004143194679103485,0.02768262339978917,0.003516398778434113,-0.06367222550507902,0.06124337411821382,-0.039481870945229945,-0.026826886605077722,0.01915273280015711,-0.0006885559336310492,-0.038251034128331245,-0.02774661565992867,0.005734408972843132,-0.00039544721536247254,0.05582439644930283,0.027495220741689193,0.09415737713383499,-0.012365371459465061,0.06527968245313118,-0.025720747969183166,-0.01981392257379648,-0.2763536413782797,-0.045160018231584095,-0.09982403768204971,-0.3407652507583838,-0.4252394417987599,-0.20268501284725984,0.07587917619748341,0.48330121680229754,-0.2503767479606378,-0.14099123161492413,0.28129459494358544
25.632549285888672,1.0485000610351562,-0.1999916026287668,-0.07542311141396221,-0.20784564483701368,-0.10288223273832331,-0.2001290510986216,-0.0941478246080076,0.1888136870097102,0.04394679266557182,-0.1355158208699832,-0.1580565643326452,-0.0025640173172669523,-0.11504495142206507,-0.01898200889229224,0.0031769920298941835,-0.07009535207262599,0.09355510266291571,0.051406606215939,-0.12116610624946011,0.11821464207826476,-0.10278488896155943,-0.02708522973588301,-0.04475213418505909,0.2042665541828565,0.3064042555353181,0.03716195834683088,0.5228313654703699,-0.21081156334377626,-0.07626686842617401,0.060246402116116274,-0.12536045739846077,-0.5518150892495277,0.28423471895326935,-0.10321062114272331,0.1688562819529433,-0.1628646606953678,0.04477182055143107,-0.042346041425867155,-0.010127461620489829,-0.041293149864976814,-0.06680650414790909,-0.07052838389930091,0.00861783595865892,0.06085666659497453,-0.001005207923153753,-0.006753450179717098,0.03753527561859218,0.008111143331539734,0.001823108038766373,-0.033459089566640905,-0.0491895338664241,0.07023181447701454,-0.036372922932680365,-0.014774165097550898,-0.0249801707734338,0.01759221389082044,-0.01899208343804838,-0.02572993600816758,0.0020988951397861305,-0.06066526459963585,-0.03654143383918021,-0.00391771000332964,0.0026847424569055585,-0.028780984390981958,-0.03484650424074285,0.014849809543698475,0.041140085463197404,-0.058705111743661685,0.019561998885031438,-0.0035010097727886796,0.027739964943886735,0.010157894675819268,0.046808262492106706,-0.012614498091039228,0.05464452007142109,-0.03845347387673196,0.010808813168694621,5.1075388544225366e-05,-0.00033917868329610057,-0.08764266220341899,-0.021283015277561834,-0.02039348303346339,-0.0034561341321243367,0.007272953254908677,0.02004886188843591,0.061166906874106156,-0.029131827735336152,0.006115371811952645,-0.07113611926581778,0.0936406431909336,0.17220208869824832,0.18376367411599592,-0.001088202229817814,-0.0414954572080375,-0.351800115123217,-0.66393051951921,0.3533033363371303,-0.12417930595818753,-0.24724851986183322,-0.3266142114290106,-0.17249437454390606
26.681049346923828,1.0485000610351562,-0.4384200849488853,-0.05288563849708547,0.17663804324298013,-0.3746841426507313,-0.15949798271007287,0.34093924149380844,-0.12073637926894829,0.1356089293054901,-0.16731872136768844,0.17611698586791183,0.16953934769004653,-0.12410970423332335,-0.05822551138163112,-0.02186720239416516,-0.1619417941466922,0.03448327025210192,-0.23656137816132664,0.08637108714818309,0.020426169360701296,0.06656033714493793,-0.07068636990648051,-0.14044028007908002,0.1564030628685834,-0.31719154377147135,0.10210581423160063,0.7854490356664543,-0.07438684207321204,-0.09575180053926124,0.2301481110535975,-0.1696516150964515,-0.1135173272246638,0.07108807786181301,-0.12227129504908052,0.11732481684919598,0.03877474861199404,-0.015978084245058626,-0.02335932569789416,0.017301673412009444,0.0711542907749213,0.002296717669562298,-0.05759711913502116,0.027951825836216384,0.0058269295256448955,-0.0014242552707216477,-0.060609632547742896,-0.0002894165761540852,-0.10514204536298448,-0.09373667864819371,-0.028955671822645433,0.12175061687380458,-0.02079843637961108,-0.014461976141839153,-0.022680046099091185,0.02179514724016322,-0.017710598530610827,0.07266613921125042,0.07641091782698234,-0.040936610484349115,-0.01725884213792935,-0.025278681876040855,0.009602460224294866,0.012959776902171757,-0.07593819109910409,0.006901141612604801,0.012740109084244753,0.008806900019757487,0.08080850933467268,-0.0019230092275557137,-0.004692988559692885,-0.02484895873181722,0.008627204861220678,-0.006293268050344896,0.10445395539622844,0.005631951196893443,0.013417440822297434,-0.021525199191353865,0.002333949522265632,0.11793671951094535,-0.057947869416806214,-0.11005328484463273,-0.010531932677145204,0.005089941139357717,0.03987241912825143,0.09102899117158512,0.0034246099738569043,0.01260652770049813,0.07382944330535025,-0.03529615568544577,-0.11103695881679432,0.23214106578423013,-0.9013561593886776,-0.5361025815738599,-0.027278309660370335,-0.08405233788427097,-0.16495085992733674,-0.2526109835048906,-0.34921936514409035,-0.374188848667058,-0.18169760941675547,0.018757202901160584
27.729549407958984,1.0587997436523438,0.024092834004124278,-0.03709130216739176,0.08634001075377443,0.01602356818189435,0.19042213974531455,0.07038023522824524,0.21521443937239515,0.008112428855558058,0.05836784536260443,0.07513689056164347,0.1564408981205107,-0.011838546323712987,0.08420519269512428,0.06864109734175178,-0.053312864495113695,0.04478654230859957,-0.09280020209955823,0.1738051522832716,-0.0851311815592698,-0.018138468728544438,0.09517856023513739,0.32124538246553647,-0.039951397530159985,-0.12626852505408698,0.14270341251238772,0.09835161173944254,-0.10349335635932626,-0.3028847963272534,0.11587185197756521,-0.2894094585061251,-0.1401612919979292,0.1393221046627222,-0.35476165246246144,0.05543544515136242,0.0442429277819231,-0.03351180622775522,0.05330773540092867,0.08491514960060806,-0.06872947416427239,0.01729165754223915,-0.0020760774060336585,0.0023862377292070865,0.02208737445986704,0.0005423633357110741,0.03440603012597417,-0.06916565444857614,-0.004121882998695367,-0.06784724796128809,0.01757560251710856,0.003854662656538427,0.005292723628452348,0.0018368347183757036,0.0010835895816860813,0.04896967253765205,0.0008067403632718343,-0.043188530241773666,-0.05386544268483477,0.06399961951405161,-0.04015790990902717,-0.008888623554301443,0.0028087636452395616,0.046785663359709476,-0.06409433671124873,-0.03220895198032774,-0.008739966428497711,0.04375545351019867,-0.014091418733993985,0.028165699807317826,-0.011572789129983066,0.02504895369805367,-0.01740375848321356,-0.07558678554162988,-0.009966717378159747,-0.05752631046414167,-0.020226410365587706,-0.0008638503809380079,0.06508775827139171,-0.019549770017187107,-0.10542901731854853,-0.058145700429919726,-0.09956042828077198,0.054692730174447736,0.06565042295513959,0.0022521462001350006,0.026442831512063298,-0.00991274894632241,0.04652076174105229,0.15593510680137293,0.24091323750674432,-0.08131854281299551,-0.08960630978968931,-0.06852865615256248,2.837304351444893e-05,0.8248064579104671,0.08425804133636047,0.18280169566073112,0.13646566082599473,-0.0291008272392378,0.3544176686167288,0.022712736555358742
33.22394943237305,1.0485992431640625,0.13001926295291633,0.5151715859850866,-0.1548067235067187,0.1005882629301459,-0.004522841850569448,0.040206589594660384,-0.08163459742864909,0.23136280680986152,-0.02785664601589337,0.3469876055406939,0.35258229337062535,-0.2224990877658899,-0.14712335624381265,-0.00018152477412780327,0.14008804690741916,0.0854827706209977,0.15976354625186667,0.2164777127346355,0.5704018916554038,0.01486792912682883,0.03327531764869273,0.0071888268027264154,-0.02672812819203955,-0.16935302699975024,-0.008801006399303707,-0.12856644544007062,0.012610011114593742,0.058674741548295044,0.15084961993263682,0.05599483152160585,0.2613659516661689,0.07476638190932988,-0.03542119029085462,0.10423837419597429,0.7955909646522636,0.5095160664427867,-0.3106747977361052,-0.10891667284886014,-0.08401347008223674,0.014805302034180578,0.12855728743164804,-0.017509839709728664,0.004478546283128211,-0.020341073958512507,0.013146596025600648,0.003649976297275484,-0.029725108595749873,0.02096826801157584,-0.014005563646300132,0.05764821795662031,0.07120231039434124,-0.021029609563678803,-0.026717407675941038,-0.013551525976721976,-0.04548563873376409,0.026130481526690306,0.007970517420309145,0.02779557651043085,0.02504904415305583,0.02233160287870984,-0.03980151161926017,0.004069873710307837,-0.11578963346650085,-0.03248393080707189,-0.050976060812490724,0.0035118246574470744,0.06370757555966491,0.018337115189922835,-0.00011054143768637816,-0.0006236356276631827,0.07140199376544595,-0.06556699497673274,0.01515369923701975,0.020805441725907294,0.01059587544279059,0.033317512352669165,-0.006028409536524288,-0.021522300197060584,-0.019188129337951894,-0.04903939393149521,-0.013392863489635528,-0.0011665645401120097,-0.06459318706227246,0.013298785771426264,0.001782160993449114,0.037770162396133414,-0.02779757106593874,-0.042352190964268246,-0.08344084882067897,0.3501342845582378,0.5887638711411708,0.23285383615557687,0.3019092149757186,0.29577653323368086,-0.3003219407190671,-0.03292966511729253,0.1931145948422892,0.04438315335109478,0.04619812572795239,-0.8493687125096971
34.27254867553711,1.0388031005859375,-0.8489779022982794,-0.1688345026644487,0.06760565822568979,0.022179894357961947,0.3347361657310446,-0.36204147740295395,-0.08773862993243632,0.0413097586110929,0.1840437314952045,-0.11446855720203597,0.08068791489980263,-0.20830010366755466,-0.08217884093234418,-0.13799074754688556,-0.12200304421642204,0.11699284624841438,-0.04284297598599489,0.2170863043581014,0.14281801349430145,0.048029039224302295,0.10580080976416052,0.19298236980322647,0.18875746434969937,-0.003400515459176727,-0.06982451834922188,-0.008316700263831576,0.02914613654940846,-0.3741219646509739,-0.4059311470109322,-0.01646393213723465,0.08941628968823884,-0.348381280660381,-0.0759240369920325,-0.005972535085922062,-0.12244257489915078,0.03896249253561533,0.09192740063211187,0.006054848027028843,-0.015449750149258493,-0.04968103988143946,0.034168437518439246,-0.051393175320911734,0.021836354982264657,0.024379294793202336,-0.012429199297466716,0.027119035483061462,-0.04365173245112135,-0.026561509025566647,-0.0032576096643644956,-0.04615626207231266,-0.004498548742818173,-0.05069629819717849,0.07770972403880697,0.05707274140887594,0.03777729380917422,-0.011826839517253891,-0.03275724968022486,-0.040446509817212,-0.030429788065242505,-0.016097907691185017,-0.01645952076340217,0.02365811523285497,0.04911119178029827,0.02121687748616282,0.03687028472296104,-0.07037920402042924,-0.07182338768120558,-0.03713884026194306,0.03450216581864464,0.03486763694767398,-0.007786778340583943,-0.04007177541525664,0.01840575188149303,-0.0016147071630206616,0.018293850770869383,-0.05763149960476226,0.06548983164454573,-0.0038456241189755735,0.007657351997967582,-0.006701330052319587,0.01245562040093269,-0.10731477709203478,-0.07466693759719326,-0.041616219473551916,0.0012480918546790513,0.01751376119244357,0.084842406391005,0.0035356322410642965,0.04788688334317467,0.046885801046363626,0.28300449399876043,-0.28392476508198494,-0.24519657640150444,0.272333691883058,0.3037068475757919,-0.13643908889963258,-0.30987548428486633,-0.5613760627291107,0.15958100432653494,-0.40745663185163067
35.31135177612305,1.0586967468261719,-0.4188966800284385,-0.12650835382486308,0.07853618397176372,-0.35110326338551034,-0.02848612692484271,0.20756134827257192,-0.02264886734207183,0.44656715526100993,-0.06717238600521992,-0.24341976598274445,0.29073988814127844,-0.2572170879500826,0.20451998864793286,0.009839562602632062,-0.3023944783090946,0.5858897998159475,-0.36237630560749856,0.04884008579670193,0.043523880892141466,0.03841302842780804,0.15284788870551508,-0.005619895529674502,-0.028100058873635737,0.0732587388759754,-0.03038782027477406,0.011743353177388102,0.04397542432658866,0.05108501973716923,0.1587746915547309,0.1783467334523675,0.08106067562579317,-0.040024858831442064,-0.11040447663865768,-0.30664462772955214,0.008905379282701263,-0.01517760103871193,-0.0037925713665533274,0.09405088172721396,-0.017501056948198812,-0.02299652838072054,0.0037305210121984108,0.008521731699763606,-0.01370038547491181,0.07669833348732355,0.02716696343191115,-0.002796803257874778,-0.02714201535399205,0.012506558049373624,-0.007579590787044758,-0.025415541030823902,0.03125266024715084,-0.041814444097018705,0.012668178620989706,0.023781196706021752,-0.014569902168197854,-0.03217063903730494,0.0680517164725432,-0.05305234875258414,-0.03345708956559417,0.0022782335357486973,-0.0034812367827993817,0.02644318088350212,0.016953739430491836,-0.07495647159848101,0.04296009292163517,-0.033693293440730986,-0.0075533051826471445,0.0242469890914978,0.05353438863115797,0.0033280626495861138,-0.003134346499336166,0.03591857006225079,0.020783675577463745,-0.009536377910643708,0.03517190174382051,-0.04567967460229172,-0.017356189984053257,-0.10045169208431606,-0.0952791028781062,-0.09820411212549925,0.013908309409977199,0.04948452735699847,0.067024229991664,-0.004329290474215602,0.024849043221225015,-0.06215308498003488,-0.004376142387754906,-0.06557919074651535,-0.0834964299052202,0.18910593069889736,-0.17805595040423944,-0.09353985691502748,-0.06020004839450257,-0.4624849182264756,-0.3390550233264749,0.01577825855734144,-0.2812650581100079,0.2085052540208491,0.09764414670080707,-0.4249749117861801
41.03485107421875,1.0387001037597656,-0.12125327727505911,0.07972150643746476,-0.025424995733084085,-0.3491920269440387,0.03339027828988068,0.16440294940017114,-0.01316920041276645,-0.11350240010386708,0.11494374813721102,0.19083528378578732,0.10634073123625247,-0.040677077120892954,-0.09105263647629322,0.12992863388512588,0.0573257009035632,0.01439673421868606,-0.008458298560995618,0.11345662755291891,-0.026123576403435104,-0.13396142643678996,-0.08684480482463523,0.018702227224128006,0.13805580050686847,0.0012530094021214466,-0.11173937523500405,-0.09120998464398337,0.026592628093842368,0.16456866102473214,0.48351776882525077,0.01756143815852519,-0.033778701000450814,-0.016202064353846878,0.03527157993614937,0.0063821658594740574,0.04568385171945579,-0.01920512438384167,-0.04570987805303568,-0.02497047255087715,-0.04743878750650607,0.0031287710479238253,0.04356830388687921,-0.0044177426554606325,-0.01519577470664789,0.017036762368785298,0.0057414438628355146,0.07044003178500323,-0.014815416518640753,0.007027308847550351,0.01075699332605723,-0.059401152144281315,0.02769526017793164,0.0005365566595952892,0.010048384241687594,0.04662014430356526,0.004244873219169949,-0.05018806218083682,0.07181688443877177,0.026971662732234475,0.05234899766347559,-0.06387905779723504,0.006245731245997145,0.04205093837813332,0.0740169628480768,-0.007408950909112454,0.00781973101752478,0.017180768094538598,-0.13716194902797035,0.036300321506427986,-0.0006762235354030918,0.018293085206378328,0.03254935143063664,0.04740309158104743,0.047366243912992774,0.03082428847708774,-0.038717253487216136,-0.01704650034571443,0.038636918575403495,-0.0875666108152917,-0.10325304560994554,-0.02581965671004406,0.005150098128260587,0.001975629777421216,0.010392348864309101,-0.06619300004157966,-0.004159648634216931,-0.002103566548160133,0.007207977282821295,0.017177824876093255,0.03200225465686342,0.08098815726092044,0.035803858950921016,-0.18664924101088942,-0.18093737362541218,-0.1424792291149901,0.31728431367291066,0.1917689757375378,-0.21375101509366004,-0.24465767828437707,0.39228260559142847,0.031087265872507153
42.073551177978516,1.0389976501464844,0.19995517625234926,-0.43347830510100827,-0.07726886642641655,0.08324051030658083,0.08057425187847128,-0.25697691734027045,-0.056826371336728576,-0.0041796994208801895,0.03593308084556233,0.1309007879510768,0.020366179166322572,0.12857783644265647,-0.023553274790415944,0.05874721287861592,0.01789675928388311,-0.07312879295734634,0.05675571319608047,-0.0766429050997985,-0.0021234442002054446,0.010312173845682407,0.030815807732754653,0.0010339354916275665,0.04208850205043486,-0.001647483669131089,0.014317912103614563,-0.0303929842650775,-0.020087998370654794,-0.006745068660573075,0.03327363838142617,-0.012488383273606926,0.01690848905166592,0.016465714253318477,0.0440145876777943,0.03877548940042109,0.02190098931842434,0.04560510456098585,0.0011044444423913974,0.06501809923429083,0.004719044271376717,-0.008831371284448594,0.004081707522770629,-0.006331086840020886,-0.0016709399846888938,-0.010339327792249093,-0.010528603545626306,-0.07554737777802704,-0.005456458196774838,-0.015629302754377974,-0.007098782418977208,0.06450922847229153,-0.048202995107227656,0.0356808628974147,-0.01369205434126632,0.008406316501397379,-0.03922393425258868,-0.06504037103264924,0.025066756017880745,-0.04294130983918809,0.0005792410507698548,0.04232907696315936,-0.03070113147691801,-0.04051711282021923,-0.008221857674224278,-0.04368395038970722,-0.07795744141744355,-0.04244902573901915,-0.056318895223101725,0.0009173812913041957,0.07117359141047244,0.014324573486866131,0.05356578943082638,-0.051865217365334206,-0.007882725950783128,0.009383917554792325,0.07054176596825407,0.03870298117743743,0.029282629240419935,-0.04840491393331908,-0.001944828944529104,-0.03225795985590973,-0.023258403142707627,-0.014746339856887516,-0.013430382680383227,0.024980708469832982,0.0004435677373574809,0.019574778078659143,-0.03437599835681778,-0.008752462675008111,0.1808500167997831,0.07422510902711733,0.032120077886999124,0.06462241254135644,0.04665931627085681,-0.23472336372358316,0.15935086644883406,0.07132771860219833,-0.019889173876058444,-0.24603082699611736,0.2868647115392407,0.15899947698693012
43.112548828125,1.0689010620117188,0.03980742035783886,-0.3159136330412394,-0.19434204305751757,0.05181110318390055,-0.11335761164735567,0.11974035412110394,-0.05407609402842662,-0.320458978222008,0.012882739899636933,0.08366234439257081,-0.06804100460193717,0.11168247421067641,-0.017462740076627375,-0.10709248610105426,-0.021021483912311817,0.19783822956472213,0.022678338175166804,-0.33778680820710505,-0.1299357959967708,-0.1020354624807902,-0.13005173280902507,-0.02824958004028983,0.035775067143445964,-0.06555179612260993,-0.05413934065807671,-0.03506430536398269,-0.06978597348549259,-0.21217500397736444,0.04700083565636255,-0.11818642243751487,0.09987805704807201,0.8515462138819356,-0.11080324141011237,-0.08049608656452605,0.047276121672417674,0.04730311944438683,-0.01233544277966932,-0.08419917429475637,0.00018167336922474207,-0.022198466734326478,0.00509491576049112,0.004990503778682268,-0.001081969122194951,-0.060116229574858876,0.04695398311542054,-0.007740558287107846,0.017122119826464714,0.08577475826353824,0.00233034436274326,-0.0072143145196896675,-0.02887486011639763,-0.023370518649647065,-0.02094074946431337,-0.0074440301444846785,-0.014926325870534798,0.06486887978245133,-0.06765895015461193,-0.002647719905852469,-0.011845010370155446,-0.020281056090979233,-0.029683465771177368,0.0047647395609908185,-0.12786956062905472,-0.0006933633441855436,0.018142998664154295,0.039125000280367285,0.04133774763947537,0.06151262197440961,0.03819366799975549,-0.0017377067766439296,0.06107842958350699,0.011963787706860345,0.008544224275665747,0.014840687448821159,-0.03699184878840748,0.022020820759266042,-0.005739392542299687,-0.09997423163352667,-0.0037126247368272323,-0.015490452178676221,0.0063206211620517455,-0.0005774494875240965,-0.06504072333440125,0.05248395217077201,0.009698235918623259,-0.004161335363171656,0.06282312918024766,-0.002858566611402158,-0.0425861616364142,-0.19994061130355273,0.15048271774937796,-0.09504142625027236,-0.8590354017830204,-0.1589771649888293,0.2976616491249603,0.6897415565603274,-0.030150035769915567,0.5741008154102876,0.05572426344089806,-0.23869386193253345
44.18144989013672,2.5769004821777344,-0.09982608639219132,-0.0490297553990896,0.013829354360451601,0.0645115349678827,0.3287409566111059,-0.31915365887638264,-0.04569152047197679,-0.02192667499264843,-0.02391813919717275,0.07653633438035219,-0.07126302386001702,-0.11324186329331092,-0.09764052605335413,-0.10127167305226419,-0.18447887152062253,-0.1265448482605919,0.10637908422139845,0.0070913636929856964,0.06930876774077058,0.057516291032915404,0.046810790823041154,0.09486164676524869,-0.014349284954610938,0.07496365790598318,0.006748551197589653,-0.06726602375647882,0.08071295846109366,0.03977576218798062,-0.012305494394575935,-0.026110649015700538,0.023479755806260716,-0.023629381295340247,-0.04649564659704677,0.014577002591293343,-0.00042292507860119055,0.003234429274038737,0.004455305539921905,-0.005860170775901404,-0.008152033364233782,0.03211098214549897,-0.00700921261012656,0.04486600476957468,-0.0037261570976586727,0.031135188641280575,-0.03019918963066813,0.014769918606162216,-0.041329171872642845,-0.022396764640396236,-0.06787645190946492,-0.01805611662673674,-0.013166607129064884,0.025964995421522287,0.004263889736835583,-0.005876366434712892,0.06476171757757246,-0.07672324808473886,-0.04392212416056675,0.004550190016265249,0.06935782225901632,-0.006592878354766544,-0.017064909152902596,-0.03751694259603452,-0.034836890068823935,-0.005859761555090428,0.006252456170144526,-0.042672197467375245,0.05814824079080106,-0.055129299556365766,-0.013733639891140124,-0.022287397922858315,-0.04593819637072611,0.0005188472920082438,0.007754282498209143,0.09407604955016745,-0.081358765786115,0.012140875989303043,-0.0350686726444472,-0.02423652767712374,0.050169516124108623,0.0325296080734216,0.020184638897653543,-0.09923276069314622,0.017007417905423698,0.011365483030310585,0.025810583380663693,-0.024229587475870857,-0.03453747388189255,-0.09176410068421775,0.008686821617523481,-0.021610012522118718,0.06650941504718684,-0.03183410966929896,-0.1182885828263911,0.029915308373935023,-0.01532660129168352,-0.03161921162721189,-0.14060453719696228,-0.3163481521415067,0.2722900611446578,0.3411990911677611
48.84605026245117,1.03900146484375,0.3009778446935939,-0.301629057924384,-0.023425989555692386,-0.09297506039443754,0.08048211697179548,0.028075639022539157,-0.03543474142667578,0.09311471264380268,-0.062249261843375744,0.13795208018683697,0.0632727516742051,-0.16313383304572746,-0.03984624676186013,-0.01207458304995531,0.009958025602391174,0.001888361991706186,-0.013371255939806453,0.09829085575505903,0.006883242003240081,0.042082759520480614,0.007249163374017581,-0.04489237687586442,-0.0016298665697242166,-0.05159142306879408,0.0019623300098705193,-0.011488792834525845,0.0697131272861796,-0.006450814118570177,-0.040765803803641684,0.012721288142160114,0.007499921313599427,0.038237442196812035,0.04155412269483294,-0.2122224452230978,0.05807679897615586,-0.05022517538513013,0.01931666666847001,-0.05204208735120978,-0.09641007513818595,0.041723613295054925,0.04620456141472,0.057970327369996674,0.0854944134211289,0.05425886424070005,-0.026357577340394404,-0.09151008357201494,0.010226753446998627,-0.015887139972402164,-0.07767819782096803,0.00823322502376794,0.005836398586472218,-0.006939059441945721,-0.04968073169231963,0.05064954697870138,0.012952679882229269,0.006074965611546101,0.031982182311095085,0.034165453801253076,0.05287793080481916,0.06949712914575731,-0.00024191493063978862,-0.09963085278987831,-0.037417554852788686,-0.03390781367085928,-0.08665484076606417,0.05382838390090716,0.023499440182940975,0.001585825788857262,0.03455617225953084,0.07272546213812547,-0.008993857173064376,-0.001435585304550493,-0.10120721966658647,-0.024022625133847425,-0.03173724710710503,-0.013984547113507929,-0.10488343522580615,-0.009951022558269696,0.0018713202696394513,0.009032518168966048,-0.008556268320900867,-0.009696771425827332,0.013572666850559849,-0.003039160109266581,0.005391590939836007,-0.10570606273220383,-0.01590124244407567,-0.2126374289573988,0.14220868984269724,0.02223217223686979,-0.5391949767515082,0.18300663707721446,0.18857920297306482,-0.24498371947972608,0.29867814572330803,-0.23953898489003758,-0.1597422046697135,-0.21140997952447002,0.17328716382991655,0.23864681573039379
49.88505172729492,1.0385971069335938,0.09355804626308589,-0.03430685930633004,-0.0017532996386617726,-0.07784930645137851,0.040835792377986534,-0.07504612300211533,0.04641846234954265,-0.02862632009118743,-0.21236354539927677,-0.027497094080641382,-0.1885020565149934,-0.03318130674994338,0.07251956663655508,-0.020325585005104257,-0.05837371569070912,-0.0034299263665643308,-0.03136365237432872,-0.06847093364949018,-0.29959023894433034,0.017778989175983383,0.0334104646300366,0.007982298387659714,0.03477804707385629,0.0854341516979173,0.01993754769924404,-0.013196669725930456,-0.01327842528143941,-0.05964673100396998,-0.14464867677944476,0.027456505776464864,-0.14441668456475892,-0.41705729573692557,-0.013384358111289064,0.09984470094464523,-0.023045811752359504,-0.020828016737291986,0.02402276358068151,0.04706003616762455,-0.0075926514774214,0.06071735248126337,-0.0005058205938872848,-0.0063207520522596105,-0.01592272652101411,0.0022905564083909886,-0.007723570131863382,-0.023923198948073068,-0.03397340002767434,-0.1260627596234929,-0.0011882552410689225,-0.022446122379778093,-0.012507121132093528,0.014982496456267182,0.0011654079920999675,0.0042576450242666625,0.04370298819157762,0.03163909608572493,-0.03924134178344324,0.03026927057459476,-0.019941565821495727,-0.04540653975517936,0.0066960364168403156,-0.0037336528940627093,0.09156283037976812,0.006400857376194218,0.07770021930793639,-0.028771373087441016,-0.06379652563830558,-0.05753660027919175,-0.009547539317262923,0.03170654476778785,0.022700685551233536,0.0004647720183291787,0.020845788537420296,0.018004994301306705,-0.0012968538570246727,-0.04142853279641763,0.007825921790586611,0.003876505071710552,0.0017139339708115838,0.016127797660249552,0.03851394526490322,0.004953595231592389,0.08734693829372574,0.0438482896146725,0.0015378197604988958,0.03931879836492516,-0.002361215879854139,0.21770060712707323,0.13480591002579026,0.172138608335201,0.008072726648317114,-0.12407647494395017,-0.11427201440566268,0.35268511657993434,0.26987130629415335,-0.3233026209732657,0.5704126998906723,0.605149382634857,0.3635149484215816,0.42702863720294304
50.923648834228516,1.0786018371582031,0.30703345055419623,0.011404383648080135,-0.7693272019671551,0.02510748080468546,-0.1660454486850491,0.1823462973935513,0.1155233576990651,0.16253969182051445,0.10817114642742601,0.24217471576432176,-0.09258413948478249,-0.13295476574598122,0.036350445367283477,-0.04567891909625986,0.06227526313467592,-0.05859770054071682,-0.0922326837718593,-0.10814885665666672,-0.04831082864416765,0.02237274924649794,0.28528739962100885,0.2473130077958424,-0.06541558070384576,0.04959661997063551,0.018495744947623627,-0.03769241628817112,-0.04783064408141857,0.00873768372918049,-0.021645922035527468,0.14912068036285356,0.029226366541791168,0.005341949393998235,0.045794530725382074,-0.010109356754939874,0.002170446288350249,-0.009700921009488536,-0.020209319531576928,0.036170411256680204,0.005999080397329255,0.0069395459818248,-0.08539740392900017,-0.018380399085131296,0.011598710041943912,0.005608421608301327,-0.03530246598010678,-0.09730898633549259,-0.028796979092052744,0.01142454313037771,0.08347991512693809,0.0016032049468782008,0.05163306819982322,-0.00990538468026608,0.024757699180673776,0.011086871019753404,-0.03234402910336871,0.0548660420440494,0.04682106362742144,-0.03599534638864632,-0.02584153542562402,0.023754048628543717,0.055734340137521,0.009052114579871257,-0.009622548715527592,0.027375026081010417,-0.10493830196398844,-0.03401207250277456,0.011253107868197491,0.07878095976215796,0.1107333840242543,-0.006306893410511827,0.021676562078289233,0.005875921047974298,0.051830919114169094,-0.06330852021849485,-0.040519549093523496,-0.016347845977255148,0.024139419644281755,0.030942790766373542,-0.028344099857624813,-0.002121319005536671,-0.005818759356180649,0.009439218055671801,-0.02098495942858023,-0.025409826100016894,-0.0722900043252943,-0.0015898430449633562,0.05222949193149274,0.05973317330330058,0.19330110949175114,-0.22537455018926728,-0.18106957108729876,-0.22067988361945562,-0.27414658569881817,-0.010243222793928322,0.423561646009059,0.15245104216537814,-0.19742932573713146,0.02318412299989538,0.14358070912783694,-0.039656960419979875
52.00225067138672,0.9086990356445312,-0.028052929355384865,-0.15112554607987239,0.06151810653859278,0.07266070432100849,0.13096410446413306,-0.010730374406132628,0.37126778661857873,0.03693317045764677,0.03832759340081634,0.03731998207366937,0.010533439873642778,0.03639306435942159,0.09221470389852018,0.2056210122087519,-0.08340426930287852,0.0583117529326628,0.05135970787376057,-0.021806227846996932,0.12819607847692943,0.029562875954189008,-0.0374015853339225,-0.09421614707759772,-0.011406860446972058,0.023812295362501373,-0.13460846745174213,-0.03572865964196218,0.01704148166325574,0.017271719652458557,-0.034135148129432635,0.2301653830362722,0.07357842764528577,0.17538011945587975,0.06523412101313586,0.07284198750935184,0.08616420062005162,-0.3428065354128619,-0.20630813100271048,-0.008973561972626193,-0.014037784105557942,0.028887690802280888,-0.04001523678490285,-0.005672228974423068,-0.00012194035856774588,0.016727040334256038,0.06510162926433433,-0.040219039509662116,-0.0405748071823054,-0.03951407647357163,0.08134949217940092,-0.044718345122696825,-0.026397836676640116,-0.02326511185890061,6.218985215409624e-05,-0.0029308726412572536,-0.020296909595887508,-0.02930563382485197,-0.011641769915810507,-0.028907041777346185,-0.006190550565521088,0.04178776883444199,0.031501408042847415,0.0037225115670704986,0.02474419844112092,0.023291135209695238,0.02149225724644048,0.05069154015670756,0.04169698327889049,-0.05067114885764715,0.009977309270355204,-0.012305288995383433,-0.001060199728243717,-0.04915940972940566,0.06782157902887093,-0.027672609729745237,0.02342024678672506,0.009979792042460722,0.05789591123068934,0.035377198932790704,0.019546322320586305,-0.10907798976561808,-0.036875021552154816,0.04985859704052679,0.0292798742855008,-0.010007474653144888,0.0009973781606452568,-0.040705933402952796,0.02902231104402367,-0.06240971625881598,0.0062532426962358875,0.026549955508123398,0.07279016133343953,-0.29081253582336875,-0.4874166472130773,-0.016198359697355363,-0.16326962210576992,-0.3701090793856283,-0.0031499721060238017,0.1167380491505148,0.3538568770203441,-0.35718865965275354
56.507450103759766,1.038299560546875,0.7407100666283735,0.34424047019588144,0.00014946332638770393,-0.15090598811753908,-0.0884821766251119,0.10455949223003157,-0.1204244484822101,0.12710750427950057,-0.0035626174219568207,-0.034633138153834196,-0.048649364299063344,0.13564357827116263,0.14901290102449788,-0.008533402512898271,0.0715264254539882,-0.07875986242120041,-0.2956286472503963,-0.1827286927540912,0.02213776770477306,-0.06964574907714517,-0.01640043633025591,0.044715996580402,-0.01439430981425496,0.07010220998788161,0.05681554267783331,0.012822447365340424,0.010726268026726849,-0.023949917455502078,-0.08160805255054518,-0.02266659402937267,-0.0010674614583421286,0.002948000190405146,0.034663126687024884,0.0505150361347159,-0.057452776957268144,0.018183335838549218,0.0025719933090691,-0.0007291637531893947,0.011533324718713961,0.08813882764621943,-0.01737431390454927,0.003936677721716441,0.0007860626961777141,-0.010071501034896443,0.0014744017839113063,0.014016656838006212,0.03244904612876383,0.038835516953518764,0.07459582989166064,0.005955682976060791,-0.00359063538455204,-0.005170137620776539,-0.04208115493242702,-0.3224347107157141,-0.12244013075658267,-0.02915414176095041,0.12037643452539808,0.01018654740639884,0.17269731239127792,-0.05149099023501671,-0.10601587070677623,0.02021045771950139,0.0626875311287348,-0.01593557724210109,0.04197936743242907,0.005635103232508515,-0.03719118043046123,-0.06212885869437314,0.04704259886726107,0.014683398709491566,0.003196108610777783,-0.029635884748446806,0.07910218443513246,-0.04946787771603304,0.10005175625248115,0.03184745323588385,-0.004289148432635273,-0.04493786526932545,0.012566063680499704,0.008070310902585285,0.004265856714304338,0.01282290476137004,0.038306786972044406,-0.007816691730165623,-0.018332756842733264,-0.0033112125258139198,-0.034213156232651594,-0.03708324412320725,0.1380137863606951,0.08117376411597081,-0.1772823660442835,-0.18768714193778693,-0.8359048788637836,-0.008611230306597863,-0.30427448517109434,-0.14699724555300023,-0.10510282780031402,-0.008798277870205123,-0.33150211578927014,-0.0923809531210786
57.54574966430664,1.0493011474609375,0.03823940770551634,0.08511193883433762,0.24525503477891247,-0.1359296848329345,-0.19875461957117124,0.16709321925405496,-0.13458035092782802,0.09759114798153877,-0.06892131403941401,-0.18159438118518145,-0.1458764306614711,0.4995193953172961,-0.010452188541612393,0.09207073092200678,0.007989841287378537,0.024183652978199202,0.01980522594121402,-0.0005054930685910904,0.043727648378734114,-0.006710628836984629,-0.0015926078299973551,0.024391188613350684,0.0790225093988316,-0.01437200219008965,0.06105885586611882,-0.013342960072827481,-0.006535813728883431,-0.03845393154521406,0.041322377159810186,-0.011675917109887485,0.1331411355380391,-0.07045006836298534,-0.002482592658254632,-0.010740931514276532,0.03650907233519218,0.0016453217810287538,0.029479851745563154,0.06896511481903297,0.05200984508892326,0.004384518024908451,-0.07491902240306209,0.006421551914978172,-0.005270633007662476,-0.0803399714111867,0.021127728237661087,-0.0023788697812261723,0.051145869226263345,0.02602835984199249,-0.013694035080674167,0.0195636516144483,0.0070757784840916535,-0.09955687025351477,-0.011409216478807532,-0.044611166802521994,0.07659946764119241,-0.03782186156904227,0.06285433815719532,0.07670354266178928,0.06646414110248715,0.10275122454820385,0.014826679664274072,-0.10939156878479978,0.009879566851490277,0.037714325891128386,-0.00031615183888152303,0.06659102370749705,-0.002234685001883698,0.06199674838859866,-0.04229904539085002,0.012895141418122995,-0.018819100749122585,-0.07943520792898046,-0.06762611035912795,-0.06492501222277625,-0.02115539299649732,0.01560087143888239,0.09604491798415425,0.09508718794695878,-0.008523639991426205,-0.0024806572793754245,0.008064531399217976,0.04225501850835342,-0.013698330392122591,-0.0005861605199285433,-0.005177529358721268,0.029324647029799908,0.010815220830695351,0.006862472492297003,-0.060099007980747625,0.1829348807549251,0.26750940141789814,-0.40346283466850436,-0.3269580537039067,-0.1577542229070908,-0.6393145258525785,-0.18781018765354085,0.23693328714431774,-0.0340678753643591,-0.14566483069467792,-0.10583260667874717
58.59505081176758,1.0785980224609375,-0.12767264346378454,-0.17125633195026876,-0.10592961413192024,-0.07033399017200634,0.06661084759127622,0.5074938464099555,-0.013371108931106102,0.10823905528632813,-0.19294167552893526,-0.08780181721261385,0.0924998169124538,-0.011210041844601037,-0.08493250242179701,-0.05698141244546984,0.10171630230023793,-0.24611380022144239,-0.08876758035413927,0.08087668907379016,0.27913272068724637,-0.11706451607913153,0.19784876500680473,-0.00266559440100346,0.056152950359933174,-0.008912947841012587,-0.07834967408929466,-0.033476029074879794,0.16097488020359377,-0.07929820275727979,0.04427647608081168,0.07415249961218623,-0.05225999607826281,-0.09845834824809854,0.0069263964991929244,0.016424393631971953,0.011631937103501909,0.09389815568478463,-0.020121254603258802,0.0034201298788359776,0.0008662929658630866,-0.046978362223342396,0.03657283928937762,-0.07926672846395572,-0.1148449681411871,-0.0027470198159880404,0.04395441189598552,0.06512550238081699,0.0011619178798340513,0.012702802685861242,0.008226638025411515,-0.04587510800816852,0.024986846701294634,0.024570187293903995,-0.036494885958048666,0.04932540515808824,0.012211390130920803,-0.03566455216558393,-0.024341311982743932,0.01745613393273871,-0.0589137824233203,-0.04115187572255304,0.0011768468460609089,0.034872182285684825,-0.012038555600875012,-0.01752493378396912,0.031833499066251436,-0.054110855973585364,0.03565016609561791,-0.031467135574765985,-0.03306846627994195,0.020874989800997754,0.0495726693954905,-0.05765892230909131,-0.033826899035478246,-0.021816006529159052,0.050545464486254896,-0.015626326792621624,0.0056202828721269756,0.030041944771224245,0.05665152914960081,0.06374352483321578,0.0796331919167316,0.006512216485952805,0.022247103055926278,-0.0690846914424064,-0.024303334794979554,0.015149496953475368,-0.009898327123418607,0.045792067124683276,-0.0071094596441559025,0.39036909454322155,-0.36128558939501343,0.2438157324693225,0.30385394831462764,-0.3947518536137368,0.06719882236731815,-0.2574885548407555,-0.007407601618871623,-0.4834100047295575,0.17494372510010114,0.47256929463270303
63.22975158691406,1.0186996459960938,-0.2853188680436449,0.10783088450151783,0.10084501735713339,-0.07830806583504005,0.14917375401748625,0.01770650291810605,0.2449320025959734,0.06927657778459395,0.03652862910674575,0.19807534005476968,0.4189554406782619,0.03248050121574791,-0.28627762256313616,0.07755301759139874,0.08346599465724985,0.04096123325970636,0.06105171770738611,-0.09646320918567879,-0.011498607214455154,-0.01566111102635756,-0.04017955343302103,-0.08529784234056419,-0.0077686115346932315,-0.1026497807828484,-0.0006599353765652724,0.08793593428843298,0.02598580943554768,0.03339913773504795,-0.0035505077977005875,0.018624606866091555,0.02865330769835915,-0.03499184576507318,0.0027099742689839948,-0.02125890045703982,0.021453011707857995,-0.09672449627395718,-0.052913099075518326,0.003752758204111904,-0.036198454312710654,-0.05814173642992099,-0.07405846432548764,-0.03012921337196389,-0.06785051369221598,-0.046459068116797925,0.019334298159386004,0.017028413263054158,0.007540328119764616,-0.030994962281991896,-0.07228662237870617,0.005652349939497181,0.004604307801038981,0.035143376125266856,-0.02165270050506686,0.03449120155426831,0.05795384740026764,0.026373969569349523,0.04260062794305073,-0.019117488248800427,-0.025287157868164798,0.012144697182140944,-0.11701878376257377,0.008235694777045164,0.010513990187785281,0.07619358118835932,0.025477533660658216,0.00865147461001579,0.045942677478684135,-0.048108833098088805,-0.01915693550458325,-0.018899545314442486,-0.007607240118730964,-0.016299420499670373,0.04045933342906308,0.011860372150562624,0.0327304162347605,0.032861336508435965,0.07898613594546613,-0.002771556622548174,0.015145536426524754,0.000653149063214562,-0.02201977823805057,-0.007973923742226635,0.03047614547714649,0.006989777212405277,0.06472116745259068,0.021617662114123675,0.09963640052565331,0.09323012937838002,0.013536244187493676,0.11206879096515371,-0.12455763808324692,0.456386605798449,-0.2780615709046359,0.32469940826162147,0.15133638240511815,0.213669386989404,-0.24006449708240957,-0.17269840196596245,-0.6762586207486436,0.2244717920766418
64.24845123291016,1.0387954711914062,0.22944218178822562,0.15245071397647614,0.10559904434732968,-0.06387321142099509,0.14252107184326465,-0.29203253727481226,-0.22866963824945757,0.5230659942598305,0.12707448593878248,0.2939074806179234,0.012760803451421802,0.01224634759279554,-0.016231792043953343,0.1295800995158268,-0.05347091656638347,-0.09353116023226281,0.01746430412385521,-0.0353511924105573,0.010088874338950319,0.06561444309510805,-0.015167184457723979,-0.011387173593014253,-0.05261122957884915,-0.04467525787085386,-0.027116479062507127,0.011981287085071762,-0.08071442244186057,0.018600572705183505,0.159429842171702,-0.11568702829818919,-0.0547144691387175,-0.24613185014035455,-0.2384714071795709,-0.047941419268347205,0.25029833643645966,-0.017173891490213786,-0.05647972120048901,0.026654559703209166,0.016331269158707393,-0.008196913970789995,-0.0440025773481736,-0.012075727517598736,-0.046380139809360635,0.04136418954588991,0.005701046602216132,-0.011325804405078958,0.027861133954790878,0.0002882259118424718,-0.053340335514218074,0.0614307120275535,0.03555829650097075,-0.04352225337099301,-0.033798869432937195,0.04940856028367491,0.10471471414359669,-0.03415055181755087,-0.061622396862329995,-0.03878106956851797,-0.025473294660479803,0.04964590428874081,0.0714009265038471,-0.12276508148280785,0.006745439821317369,-0.0002507484068535346,0.03427873705417909,-0.06838906875308975,-0.01822871567120366,0.02802586147222378,0.06529010609158603,0.09067088908230814,0.032372179296331856,-0.032733475028520344,0.0017982186006054476,0.006763527891227396,0.04167564912657297,-0.013075625940270567,0.020247873563371738,-0.0032815187263971987,0.001260642105956776,0.023666768947412768,0.01455218851497334,-0.09127774532577998,0.016507633921459514,-0.002732305025082745,0.003145709963207863,-0.09601615967716007,-0.0013759020142245786,-0.026467673647288713,0.051386760975424765,-0.26803152098103256,0.14301247105269513,0.18155092700674103,0.22369894082767827,0.27135815813267056,-0.3318600526162686,-0.1843513608319622,0.21652554649357383,-0.31320530204896063,-0.03135758347506687,0.3063431939516044
65.28724670410156,1.0391998291015625,0.41576680340098104,-0.05209775676947319,0.08720825459522126,0.1814295950639035,0.10349300034625471,0.02419433543876092,0.40257275175274193,-0.26478235789614135,-0.12534796637916165,0.01902918988934138,-0.17197804656814034,0.1871778039561388,0.0028632829067539445,-0.09296114647033084,0.050750898562773664,0.0004824923867645021,-0.057654834599517285,-0.07308165689828096,-0.02314820846635069,0.02561353893864411,0.11352071907418261,0.01637444999024164,0.060200306408919435,0.015223793536676189,-0.029005090534902966,0.041393951639928976,-0.012937051646849197,-0.04409512947716577,0.03343893610393434,-0.07300936195752974,-0.10884843341005924,-0.04036203718774983,0.4389305618434334,0.09678034868386616,0.018959832909280848,-0.082539394988241,0.02114202040895774,-0.06620261598425918,-0.035092009213076154,0.05020647293994519,0.024615047536520357,-0.02933955517046587,7.59988282327259e-05,0.004296756964032148,-0.03214939189384921,0.024296692192716414,-0.0005598981055252926,0.01917754747933205,-0.004613014920968592,-0.008914213028825448,-0.0020693849786458385,-0.08789932209324612,0.05739124885210282,0.0040371637784596785,-0.07583311943339553,-0.10123603269846151,0.01908905800053018,-0.01710060972491602,0.01019015924170017,0.05209659343609742,0.0514409116535908,0.0026797966805072893,0.004105293999653415,0.02255280678683839,0.06917653260458478,-0.03488792929634288,0.003990557604554846,0.04855430682998408,-0.021669026255495785,-0.01708069911055782,0.012457039764584026,-0.012657120721886433,0.06790851778659297,-0.0024374536677960927,0.03318626204207714,-0.027305801903465748,-0.099534621246277,-0.002527879043058961,0.016026444429987338,0.06269094014198234,-0.03325570397902736,0.012425718135793046,-0.0091401155578043,-0.002298764948312301,0.010289139349685625,0.022932929478254323,-0.012592374726918244,0.11640493926159808,0.09224701310033591,-0.09768008668844397,-0.44930207644344755,-0.1841688125674825,0.21544730402657272,-0.26203032739670307,0.1495597595617671,-0.37425489922919797,-0.06377213422438177,0.3796805897789467,0.3093083111465835,0.24015262607281437
66.32644653320312,1.0481033325195312,0.08245755649226763,0.09486607882451416,-0.20870494136666853,0.09144129041140553,0.19793075368824464,-0.07665268961985584,0.09944568400093537,0.19702342759846914,-0.441020561326395,-0.03488855080272244,0.33716408756013405,0.04724763820097222,0.1220152990625612,0.04281950784024471,-0.014155843963493793,0.18279268217718103,0.019841814780100192,0.05413037116052215,0.0092796897848141,-0.07410689361273722,0.13978533149695277,0.022196123112491417,0.03199834966673745,-0.006457362537190621,0.03521584776851942,0.03607401078539996,-0.06757856656880842,0.016239020341997104,0.03756627624457558,-0.10730402632684546,-0.10662924418029188,0.03127863626312899,0.013931867869023094,0.17575681426618353,-0.05387277662159527,0.06890728058301518,-0.04762563546622859,-0.01702390286219415,0.052756236174324275,-0.0033289397707273044,0.000635552873634801,0.0656661689057332,0.04771506575472056,-0.04340785730093649,-0.04115033657607252,-0.00817404196393005,-0.05047355716757545,0.013901125481308244,-0.02441725264312708,0.04385793204814264,0.003954789666701654,-0.001656678337740874,0.01100501937384498,-0.0755457304905608,-0.013545439200856492,-0.03126680799932995,0.040053040908745584,0.049479908845284165,0.0716587620658207,-0.057210304895616314,0.031869109156157434,-0.03197182764040196,-0.0011198107225310248,-0.049921608304040285,-0.05172863086181238,0.02304459530207253,-0.0157843759442261,0.04268896089636327,0.010324967547025256,0.009732370062546998,0.01868903650550827,-0.03795937578305006,-0.013610264427084427,-0.06443025488841751,-0.14384017948196864,-0.06981041818730871,-0.0015121031302667938,0.0019594391104652983,0.09183791833919233,-0.03327178335951574,0.07839556099923133,0.07068631561785688,0.023532629543919263,-0.003724668169179353,-0.11382626409609493,0.02585336550612722,0.12662458866919885,0.12033709193957765,-0.18283982521584752,-0.12912057353686635,-0.11399236961364345,-0.3162468101119007,-0.006236593762316549,-0.08383489915093956,0.07590690883106306,0.19087236213467856,0.020886487682889077,0.3362674999806891,-0.08713857091773383,-0.192808813523228
67.37454986572266,1.3490982055664062,-0.19983034201036148,0.10859761006637343,0.08035205011940492,0.13297208940356672,-0.053729298419566016,-0.12231457800181703,0.04389449994833488,-0.039271171501683494,0.08440074097220687,-0.1164430483240037,0.032616918190561936,-0.08368267101461459,0.017339777783178665,0.03767291650722872,0.04069556250723352,0.051805170209579254,0.022598209586429902,0.007338837677793286,0.013794003197947706,-0.02994150782849688,-0.0002512027361948897,-0.0029189955536512526,0.016858257706091808,-0.006810988012562541,0.04504751744284085,-0.011101714283020859,-0.004028940139801173,0.01576533137775314,-0.0003286480431047541,-0.03165067089205305,0.005064478906364447,0.0078577422860846,-0.03837686640445126,-0.05163400045530527,-0.006073932363594735,0.010414332698589131,0.031361559939900766,0.06410016187552359,-0.004111302183545117,-0.053646216115263934,-0.01136354151838648,-0.05794584720508164,0.0068200964193652,-0.06327422685783735,-0.033978378171473866,0.0253685587746053,0.04638288506257983,0.018697631578904722,-0.0005115096890551277,0.06975159079608992,0.0006464099791951332,0.006213869843150553,0.07756237134625862,0.031918944272664194,0.0023949529711540726,0.034303240091681314,0.0076491232971178935,-0.024739242141982115,-0.04107208001450806,-0.03961478893606212,0.02100417059657338,-0.05370460387507908,0.05570208070973134,0.017850456870111532,0.09674163969269743,-0.0006798268403831677,0.010812325952690164,0.041087030670457804,0.030304165418566197,-0.04458160937032543,-0.008508804795942267,-0.02730551018121219,0.03953294353088031,0.0004932799342188682,-0.0937189193100827,0.051752306920660435,0.01373943716402618,-0.0018997590929194434,0.0005770116123600109,0.13115826890818796,-0.05101392217630952,-0.03763410690009217,0.04544576962701213,-0.1639984942127309,-0.002880482771076884,0.1346113086470925,-0.028495428825706832,-0.09951856358640938,0.07208426050900882,0.18701502376175727,0.09714561227719111,0.09602493326488765,-0.14640331838660298,-0.1902581912885739,-0.053622556110041436,0.2672797182511647,-0.18105982863129633,-0.1703508478779348,0.01835346101156271,0.10777816414603875
70.91085052490234,1.0289993286132812,-0.09771445419465412,0.10140994024699448,0.24742822378407675,-0.20877763163899357,0.13444008993857542,-0.12855589824494779,-0.11333539844851086,0.048631788083851546,0.08226666023932197,0.12701510347742095,0.26949312472481973,-0.1287688544066813,0.03597880450207109,-0.2311182237949041,-0.04225915422159459,-0.030318514465191904,0.2394392845727652,-0.1777783827752784,-0.04703726770663794,0.08150617537079828,-0.11531051703561834,0.0708679842563157,0.24647073032165628,0.038998140655186246,0.09547292721140808,-0.11434623426223511,-0.11528860770023633,-0.07774774468119999,0.030532593878628906,0.08906892905310301,-0.3964443823046871,0.29995459993165646,0.06553087246984148,-0.16007306204393024,-0.12927303796685052,0.13833193878881805,0.12567680215360996,0.06452514632929374,-0.03652455096330573,0.027071430163259854,-0.04859760140658441,-0.008417912939321998,0.06849477458509753,0.07182956554326406,-0.05012563082952736,-0.02135548282326418,-0.019096498124701027,-0.04783502827449133,0.01734650142370152,0.04376058070553004,-0.02175685729026807,0.03617661678407192,-0.0793879970883354,0.015845790407613514,-0.0007969700869593921,0.011316648182716285,0.03045747976880193,0.015249573726735927,0.02902814248295316,0.019063076318838572,0.03573900122019956,-0.0344397461991978,-0.018483995728402702,0.02023841913640735,-0.016773127759525244,-0.057929870544730554,-0.04688516477657114,0.03308114446904384,-0.006230435128543179,0.023978800264718807,0.0011754722795138256,-0.07056026516116462,0.03138089594615418,0.04801390077394706,0.002927958265925151,0.07602601130171878,-0.002584903325432847,-0.002542369147856935,0.0027373846462302814,0.001406121937586477,0.04317395056464954,0.0022251497024399283,-0.021561757106527118,-0.06948378686623284,-0.035058064484921866,0.00293689988921408,-0.06449935950694044,0.004665869951936573,-0.008148666490653374,-0.1903787444912454,-0.05727707246918791,0.3008549923641991,-0.28591663464548783,0.1539818529131526,-0.22304203029342787,0.13147320926722064,0.49385849800887194,0.12741174314060222,0.3357624653449125,-0.19350327726264355
71.93984985351562,1.02850341796875,-0.3788190666377402,0.13885366742846267,-0.15608457579616908,-0.20612472042489774,-0.28356724087163593,0.08703661400275359,0.03944415881486871,-0.03817124737704478,0.19528964048309536,-0.10804606086513638,-0.1546737297541719,-0.6095476621355556,0.0034562941087942526,0.06004936050771989,-0.007335060920779863,0.0508961692793313,0.045442883424286415,-0.035983135529094386,0.035960387775395425,-0.20236172530413846,-0.02703031931738148,0.0255025943605921,0.011058559097820553,0.04608734830044797,0.04224870132764291,0.18461803945584604,0.023049611575342285,-0.003159337916856517,0.18038862832450858,-0.48434218823303876,-0.03715148324899925,-0.6266984473377322,-0.21381434957600376,0.33784155580201125,-0.2841033034303681,0.007367230734507978,0.04580257941703298,-0.009969133525121961,-0.02099522386557466,-0.06724344745640283,0.024808353582658725,-0.0322777770136586,0.024432317813881332,0.08104910312666656,0.03941516984984818,0.015259989517317092,-0.0038408287813597093,0.053933758913446816,-0.013063812133271924,-0.03144470566887008,-0.06204893579650249,-0.05748324401064299,-0.03011995025591288,-0.026797068369278584,-0.06858092338409619,0.03326081808450649,0.027074269392670217,0.025028609179079966,0.03529696161572658,0.007661813513063717,-0.013408969224294956,0.020088357800012523,-0.050950688669335165,-0.042516093458146276,0.02696997834414098,0.056750794497433754,0.05386770071461286,0.03174495662874753,0.042989492249848264,-0.00551340973121605,-0.00178569085595255,-0.056001579690365344,0.029738658976667304,-0.061388907367209075,-0.028834212855062664,-0.06367440791526496,-0.058012879686794,0.007675033734082159,0.05427324432251274,0.07181728406018204,0.06673873983774434,0.060619432830225875,0.005439330508966819,-0.009440618268293914,-0.013583614546343197,-0.05402919390191359,0.006576555072188468,-0.02583957715429204,0.08748742600992551,0.29744341550504355,0.41479714900875564,-0.20040903041877275,-0.20536575733975368,0.054258563061439335,0.506606545144459,0.01582173902317359,-0.0945758860749822,-0.18124784078928569,0.17758665603896495,-0.010378067078187947
72.96835327148438,1.0291976928710938,0.1299919762688554,-0.20808892123564016,0.20535749199030215,-0.0034805978784844174,-0.005635478927087595,0.039895785602926184,-0.010010223046447036,0.16468751067333065,0.205729573587416,-0.042962365800901715,-0.09206806886976007,0.016315827261648784,-0.1045767194837806,-0.026883705912018805,0.11079099293103711,-0.08466842752233171,0.17062034799340714,-0.007787817258802343,-0.19588171219296785,0.5116088751517437,-0.005657013657443626,-0.11283978210181475,-0.01857857063789354,0.20319699956882759,0.2743158530770665,-0.04114533526097295,0.16939875653113565,-0.20885075836726905,-0.5794461118379695,0.08080332973196952,-0.1193173724318746,0.16168707956317474,0.060574813595781984,-0.05191810182529649,0.14597744344352015,-0.03245029244651073,0.3581602033204795,0.35668963080080907,0.40796742088406124,-0.04118180144109881,-0.08493184827854358,0.03499930267794577,-0.003408509425871067,-0.01694695937836926,-0.048147620489739425,0.04430729953192403,0.02935551048919591,0.003517225947454845,-0.008009124883351473,-0.07427900130847567,-0.007246321742981607,0.021593767152015893,0.018661655118196282,-0.05686430039663967,0.02275970932263742,0.004947869768371921,-0.002452576379254498,0.04493249052981018,0.023744499354737,0.04462782212204315,-0.04244292571243636,0.03775391316848673,-0.027217131012455726,0.09265929457489479,-0.020475137294153376,0.027045319715133045,-0.0718127570446347,-0.020170056630081458,-0.027422821616167218,-0.043339011943131805,-0.03855821750114788,0.05037222102526389,-0.05257616143415657,-0.0005956835330183295,-0.009053549700214854,-0.03729932601328409,-0.09316146051470267,0.003757757317559701,0.039678770400756416,-0.01343919371170359,0.009625928442537617,0.019467864248344485,-0.004174594712299074,-0.07927150207332298,0.0505232775051027,0.0298894241344558,-0.08901584995998282,0.22466728956088178,-0.10717128753724244,0.24028319115577304,0.13682760134880906,-0.14463252730738385,-0.008605039170571647,0.10584859252954057,-0.19735003197846895,0.023494224572182823,-0.18303092710062038,-0.17900239964002462,-0.23174546322555892,-0.26552020458176295
73.99755096435547,1.048797607421875,-0.27253803764162365,0.2720979205478518,0.07903147829369639,-0.2854978051402316,0.09275476601579938,0.13670012273382798,-0.16001834709934354,-0.14010417380340578,0.13583920991790252,0.04409231682488301,0.046129410900369025,0.024584646796461978,-0.0300958447917559,0.0820020097274836,-0.07430233945924383,0.062276990082835645,-0.24701032544817175,0.07730976792886637,-0.07928110083944084,0.09976446524907238,-0.45926628500027616,-0.22473391809748258,-0.2482669906528831,-0.0783006557697525,-0.0407907821472148,-0.12724694657084093,-0.19523259887000027,-0.2765719775489014,-0.14618503372119704,0.39070497006262245,-0.03651851221780617,-0.21444450490136474,0.5238869612059046,0.0007310807373823362,-0.12960946677214624,-0.021534535826364616,-0.02390704408454232,0.005770525990614135,0.0817002633992941,0.022250916624535013,0.01996365450568942,0.0010891967215788364,-0.0004695895217459778,0.0018732312487031901,0.013070660181867066,-0.006346191190479756,-0.05057156664898374,-0.0275735076987685,-0.016397263599939857,-0.025958954459563144,-0.023142187698191728,0.023033755410538745,-0.006635230613137238,-0.03578116923461563,-0.04300034240922078,0.03233151202437843,0.025650838560226666,0.006564178052295116,0.022177630313944263,0.04618194729385004,-0.015263235180852689,0.051135345439765674,-0.007573862334414053,-0.015234644955315796,-0.0024139220065675865,-0.03790750995259795,0.0050330104606287115,-0.05035520128216358,-0.042086964661637305,-0.0007289811259598717,0.020783275159092954,-0.006124997080303575,-0.03693692253343072,-0.01120131130927816,-0.017379858795082647,0.04625155575118469,0.029912921147604712,-0.029376699651858493,0.06401756953840619,0.07966274830967983,0.010618443796817811,-0.04633660286385232,-0.016157874444157644,0.01165877219991093,0.021456067093887407,0.0006466877721319868,-0.11298345010930182,-0.008801862559860832,-0.27111107729586953,0.058111357723171955,0.2618540666558739,0.17504131563526265,0.06713293775967372,-0.13605472430812607,-0.19119822190412952,-0.29416722744683177,0.10504086867744758,-0.0394004079621352,-0.3322280444781539,-0.10557597951837261
75.04634857177734,1.3882980346679688,-0.10646746277616953,0.03139492166616498,-0.045380207912315305,-0.06996331683276713,0.06766473219918706,-0.25414246260281625,-0.07967159366993794,0.06157677744009275,-0.03037349689713139,0.10547152961012791,0.15391971506055488,-0.14021883255209028,0.011399226203218087,-0.06886933907031528,0.013577385138554096,0.029636317102483534,-0.15824348600489,-0.3466007297888037,-0.06485644416574188,-0.07630420896933988,-0.00694594228805539,0.020988627495011774,-0.008487969576572205,0.0013777977795043437,0.002293097651942716,-0.019467689117404832,0.06594578858122288,-0.0010356035304737617,-0.001224026779729841,-0.11490543079068415,-0.08886308787977465,0.0009372091291890703,0.09837551215278562,-0.03240781430892045,0.00483965286340071,-0.02211629241575716,0.02779710188244723,0.03868766275872496,-0.019731100998830867,0.01744471683002858,-0.06862049291856835,-0.025839212507676453,0.010725617786826938,-0.06418085263432212,0.0142995787221131,-0.024044260367190824,-0.08738074373373247,0.006908754751559924,0.0593481714650494,0.023022291088213315,0.018805199293314152,0.0173047039568673,0.014502515627706533,-0.00915902712278687,-0.02420357343250088,-0.043226455061798244,-0.04611685704500391,0.03481063654284395,-0.0019328055770675978,-0.007330331364615737,0.021361859552635122,0.013394354978972746,-0.1185893515423216,0.05354356978810789,0.006251952230467578,0.08768553465795753,0.05661867516222523,0.05115170563745843,0.037837408285452824,-0.025680377961542458,-0.060768663229400534,-0.005115843651226531,0.0576576988454859,-0.014982054799506778,0.04566516095099907,-0.06481386313838629,0.025110094313409395,-0.01463700032705767,-0.10304049665682449,-0.0490622630243993,-0.08118372805489238,-0.035299516761053654,-0.006530621486292998,0.004689584715677221,0.030696730062736925,0.11506065047405789,-0.0077890942274256615,0.06518410032954139,0.005899160253687058,-0.16778557687346,0.11488841384618205,0.10042340911533251,0.21444503747560528,0.054353098854411766,0.07078344484589241,0.07541449076614959,0.10650420597814761,-0.1255175337452456,0.3066305455611784,-0.18984694592406565
78.64234924316406,1.0188980102539062,-0.528986867500872,-0.2667788723471458,0.6085043743532195,-0.22462309780336176,-0.11190392723501977,0.5136503653551218,0.14590579391424233,0.07714774310459113,-0.3358014680561117,-0.3478008383395412,-0.25094714206272783,0.10333193976749477,0.09247775852549947,-0.012828064991492144,-0.1558371770038398,0.010678583602283217,0.475689890569027,0.17675601821833387,-0.21159157424409825,-0.03897756994810915,-0.01592176805427799,-0.09608557239187576,0.0912707571796781,-0.08813237791596157,-0.22777689484000296,0.014193279351862816,0.037699215618718376,-0.1959114240130237,0.0016573073238142803,0.48875018339102355,-0.5439139850093497,-0.37380147682331,-0.09181137912629446,0.026815050632113466,-0.092661832563136,-0.0723068585011321,-0.012653352548515837,-0.12727921726849514,-0.06324912008987553,-0.004002120588610605,0.09908689684435522,-0.0020227558262990476,0.05896036575636394,-0.04993640711821042,-0.011061082851392772,-0.05489827964731395,0.015570338482655254,-0.05950791136565727,-0.00044064882442381185,0.03471622626594006,0.08658389641835247,0.0939029690796541,-0.009475585741229269,-0.020711208974461943,-0.03096004473872778,0.056821715317299265,0.03651096134211978,-0.09729092826902169,-0.05429995539319507,-0.11266783206818944,-0.041758531434348184,0.00408605392178452,-0.05820640363340929,0.04637359225683473,0.07659758252524543,0.03316570563696021,0.00989814401430332,-0.034171127315169116,-0.014091931615927398,0.025354174117512767,-0.017643011758403885,0.04563245169642008,0.00469721294817144,0.052750676944450375,-0.011175456944045658,0.07179842386898698,-0.007073320559348757,-0.05139536362060496,-0.07115065626278291,0.054242167452819484,-0.04334385877581266,0.02146332088248349,-0.010353227473189803,-0.000796144270512483,-0.06366780966054014,-0.08875253384877323,0.09871287154287964,-0.11344865252288341,-0.019652728473088455,0.16954904273541055,0.5396223785418288,-0.10880383644500408,0.408141900393128,0.1799133921598955,0.2781851351262915,-0.4358047241270914,-0.4153899526593506,0.07708167898017206,-0.06045838436288178,-0.16062873823383506
79.66124725341797,1.0287017822265625,-0.01082031687752183,0.06822085070760303,0.10247101857754452,0.11416662171794882,0.08431165232278524,0.3079075965735515,0.24958100265635647,-0.047269314864514536,0.015843337601810677,0.0008447913031456727,-0.07806687315434378,0.07232133239098171,0.12189488527317593,0.029703924770152646,0.12174462862924698,-0.30670915509726765,0.012946314523451387,0.684556512917011,-0.13503495341948726,0.002148972762918815,-0.004187872038206728,-0.0017028741108452766,-0.05251844071671566,-0.11659727410552934,0.0004647269651764374,-0.149828445414467,-0.04871978379600894,-0.1579254723710433,-0.016194714061095492,0.08284598195878329,-0.01348698289124531,0.10709679402227121,0.21003856223313053,0.17035969353227198,0.0791516749140379,-0.04007410719980212,-0.0014624860330177498,0.5048021929631418,-0.1403076701652101,0.05632217712114062,-0.014742960858209144,-0.1175205004484961,-0.08090117478209746,0.03355750514312813,-0.001575216150658699,-0.01996689328144509,-0.053402791231229624,0.03510009653727588,0.02279169368910034,0.009897851630499471,-0.001790989863654049,0.09975778589459666,-0.006891430488963129,0.019378429650674607,0.008955094312090527,-0.0061351092764414805,-0.02090605277434871,-0.028549605778945712,-0.04725975105387985,0.020866286517128373,-0.007556882880743412,-0.035302714019004436,0.040075575082860755,0.044167801497086726,-0.08154418336680573,-0.02282441730407144,-0.017884334003149947,-0.021806904852774034,0.006566936158589935,0.036355757738818474,0.013026262614380687,0.007359908191784628,-0.00017087365874745731,-0.005734172553612554,-0.11130403859445503,-0.06369481706652992,0.003705980620908612,0.00059829004810324,0.002403137724431367,0.023262164812589706,0.0790126175213889,0.025868739255722722,0.011185263471688377,0.0471026440932084,-0.027645383888177055,0.008449323649526958,-0.0896136812212134,0.06743585010560532,0.06232843617884197,0.01949763542542196,0.13570228038560628,-0.4969018981290132,-0.297555951430013,0.2024607259717822,-0.5902080958785337,-0.14227444141046508,0.19321301910242228,-0.31813089527730953,0.19897903083491064,0.12994796342765527
80.68994903564453,1.0089035034179688,-0.01261295108602492,-0.5564364209522711,-0.11444632344242513,-0.08644413981101186,0.16285768862236846,0.3311599924048064,0.29885843230387893,-0.21598344918039508,-0.038429529078764534,-0.1742129122203748,0.015606874470911348,-0.0826044694905649,-0.2592788012949894,0.059410402251586635,-0.07774105890063276,0.02542158643612743,-0.06395106812698512,-0.2596719835600662,0.052128848368820715,0.008665831004591718,-0.06853642653689349,-0.07439280321973504,0.04539020726782034,-0.014115314760641165,0.06916305833329685,0.004339723913337026,-0.13288979701556577,0.3047246321901538,0.024051789044236334,0.16169773901846962,-0.5146740964027112,-0.23481339670591742,-0.10387255875914912,-0.49579685234370147,-0.12997001402074226,-0.0897456468779802,0.04812544962408197,0.16376129632013975,0.015065216714369698,-0.02439637793497018,-0.08147405574313434,0.018222449643824815,-0.004671255612886763,-0.004632232221589435,-0.018237366408640383,0.08868887577992494,0.011164972558768888,0.027026442757855568,-0.0003458346416332727,-0.016796116703268305,0.050546365510677795,-0.0540353308662867,-0.057420019852827194,-0.012060284811940939,-0.08840486758631472,-0.009524722904923623,-0.032902385316542944,-0.024610167689694512,-0.04456019498917684,-0.003351018339549053,0.008908656893254808,0.075331015875959,0.06900198933621166,0.008841762719515932,-0.01172178455148018,0.0030407097475287394,0.005703936488285903,0.012501218541126041,0.06564533704619675,0.019614872456686416,0.10524097229988887,0.020846918413229134,0.06793160646514113,-0.03691380601622826,0.002649772282406939,-0.0940774230102942,-0.002497458713955226,0.0024438374395552393,-0.014236392010785632,-0.014077695930020881,0.007196149591809454,0.008409739699420007,0.023202454540148465,0.05587593292308667,0.12238404397219896,0.11213829590319782,-0.03727664665126344,0.19501615991880447,-0.4671383202276086,-0.2915412280801467,0.04948218701879666,0.0512522422206229,0.20393172732107934,-0.191926022409591,-0.20635588918128028,-0.17741676002188903,0.39504340244511615,0.10709938110858613,0.1871434232441541,-0.8668410862636755
81.6988525390625,1.0185012817382812,-0.8770141144195525,-0.37439010669311834,-0.17147291133011505,0.06709195281524571,-0.16387536263176594,-0.29048323093841416,-0.07135589165648572,0.0838697487888724,-0.002715328618178345,0.18077973067319472,-0.00041937313269132734,-0.0053406334775248174,0.05654102603099964,0.1420490889369484,-0.45070731921096324,0.025283356076209046,-0.004984048460694928,0.6418599757644307,0.003637889815162371,-0.17023545641041396,-0.028245165971766267,0.011342436115397841,0.18604937529434717,0.06531435219925692,0.11375318513421732,-0.0711344697944164,0.2227430260562585,-0.2934673268269923,-0.0677494312430687,0.16136546980224756,0.21825757997682815,-0.2234851061983281,-0.14073881176991954,-0.15779590326061735,0.13420879796894208,-0.028940511682269104,-0.014523110487248862,-0.0483857729274736,-0.0015768576696422176,-0.014849503461233296,-0.03779970047732408,-0.017184794879567727,0.006718542499825805,0.013698300368117457,0.01053916083978568,-0.007021326816061484,-0.02913752336738581,0.017617991834679457,0.009440042300026437,0.0921122802246198,-0.0719709610485532,-0.034149464859481574,-0.07398039079306812,-0.026928921127991626,-0.0817029406232605,-0.01196663873572397,0.014089744427613085,0.012357181604050764,-0.07100072508389396,0.008727008129829811,0.06996352351385252,0.009178717746265528,-0.008663111664380024,0.041969190104259035,0.0335530547532137,0.039336050231342526,0.04113359256431017,-0.0025329037986817553,-0.007194402728759649,0.025541687945636687,-0.0013729225747236525,-0.012529633339335974,0.022423077957369395,-0.013160941486027134,0.00199255946110323,-0.001119970120143787,-0.0007244695117137944,-0.029751396849860355,-0.05401666396874768,0.05080109165920593,0.0008678865869836752,-0.004034572618974344,-0.029006301535001965,0.0011225048202505407,0.017327996923726056,-0.09759137291280279,0.03337524147870085,-0.12867356792110785,0.09859764737971269,0.22451354140893665,0.16856976510041757,0.02506293199100472,-0.23303252759303456,0.1254172635473242,0.32427501542436876,0.02288639136704046,-0.20521757515600886,-0.7283667014818257,-0.07404445108719811,-0.1672659770867692
86.39344787597656,1.018798828125,0.20285600523554,0.1980407913846052,0.04362116365301556,0.25590941112519133,-0.017765068491737878,0.1165411316721889,0.1927898624080479,-0.04219988771161901,0.019024599466869605,0.13722735820411827,-0.1703338789047446,0.15186132470261365,0.054318199747354454,-0.0023834287690528448,-0.06991908057475432,-0.19717132832141576,-0.0772814574648715,0.28030479552759685,-0.24504963606249183,-0.0718053293281477,0.04000677296337258,0.016124826832187515,0.03314120100304888,-0.20950236724431603,0.04147154334466885,-0.07633410258976628,0.016650378469040324,-0.41442214487178164,-0.13365763885204388,0.5151099479559506,0.10015296864890658,-0.15497832113556412,0.0967596579861901,0.5920217305118115,0.024260122920549194,-0.10549884485076098,-0.023742197444983692,0.01808492824017091,0.2726581568124265,-0.0934682377886544,-0.075834718846826,-0.034514157410386125,-0.002200441566764689,-0.0036720231783268957,-0.00924809535560869,0.09124868867894567,-0.03844181996453533,0.02992313175480496,0.00879857212066699,-0.009588368977905526,0.004907677873353744,0.007432210595037164,0.035861444298567816,-0.03441473079339043,-0.04092116360092402,-0.014058019376319557,0.05243792870693413,-0.04616103708901899,-0.036619316646351735,-0.0567258511219951,-0.04013158965607199,0.011411238936947758,0.0024126396668893856,0.07641881628606428,-0.016092634719767775,-0.06378853727749374,-0.06846425657595816,-0.06318895196162158,-0.06102352463949472,0.022225249208174168,-0.003796352797098461,0.03786660731798529,0.050289441458767806,0.011084936435978972,-0.013135155767131724,0.015229518065770779,0.03808570318372264,0.007287658984574956,0.012971956540520711,-0.06302452374921508,-0.08260536702750686,-0.008775515419944192,0.008792666747802946,0.0003587942848295428,0.061188796524558046,-0.0015749175288900068,0.018010123627785212,-0.11687035603849172,-0.16677023230371435,-0.05082768141909669,0.15806786154502234,0.44459539597735903,0.22976732742368614,0.0620384456857255,-0.2629792020207331,0.2523617857977163,-0.022808553575921015,-0.023448662186886918,-0.08255960276839787,-0.2356433289582819
87.41224670410156,1.0391006469726562,0.018832351472744258,-0.10295426352990635,-0.0003244222517082701,0.010130856243949327,-0.17573442935454558,0.09099338785613895,0.3396967325311192,0.028920327308896376,-0.09731402477708427,0.09731233554504798,-0.08176317974076892,-0.06246873927773962,0.09427130294641697,0.08031409749903361,-0.1149326304266837,-0.7611905800909021,0.06423001004323528,-0.02039231231730415,-0.2765270754917451,-0.16605609654304387,0.33303331727943375,-0.1875273720402892,-0.18913444954434036,0.5276345756266368,0.14248410255649196,0.41120150531547606,-0.25654099773055744,-0.014362972893506671,-0.2251608698169336,0.4329665447737242,-0.3264810078084377,-0.6802388550210284,-0.11909219554065235,0.02650515397558071,0.8069549902602703,-0.0596951707460487,0.04513142850961209,0.06655775090239323,0.013223014896949433,-0.024806477006655565,0.013342467440988019,0.01823147149183503,0.017482882824720006,0.007205930902239494,-0.006679341651622795,0.03979330309626743,-0.04303769002538467,-0.10452818344648673,-0.09129394937530323,-0.1015971096196046,0.026858809562698524,-0.03768749286747658,-0.024229947173045992,-0.0181444132918858,0.0009988969293871768,0.05523675096109287,-0.015119812241860972,0.06293053856983091,0.0022041472333790696,-0.019408394499230354,0.046028615720847196,0.00482478008695652,0.08042864716987899,0.022792209571005435,-0.018169176282560262,0.0024881187186050063,-0.06646760591493708,0.011372885219672349,0.007218339461376502,-0.00893322381266811,-0.07866705035233823,0.0026677847787153043,-0.058404450209711564,-0.007946803996148045,0.04108518358206051,-0.008813725730094476,-0.030031583873575365,0.041029126354454666,-0.01080782962897715,-0.08239415934765171,-0.07930307985388604,-0.09664822602128574,-0.018599383304575796,-0.0032920028155339898,0.006749217064442488,0.09213294754775993,0.034925632252881395,-0.008729038805976835,-0.01061840829578328,0.23470211816335385,-0.29374916251762334,-0.2139495137421536,0.7595672551116242,0.004566460227636549,0.43143263973498364,0.4280465043181928,0.47814643961537856,-0.3424692106528967,0.31471140887441595,0.42799219907588804
88.45134735107422,1.0084991455078125,0.5483101296926759,0.013748718541663318,0.13909386287109649,-0.2652032171415031,-0.16636436963371812,-0.23146095920379392,-0.24673974061165835,0.0337846598963306,0.05654464963786088,-0.22683217511262538,0.3734677089837092,-0.3322578705252411,0.11339770336185348,-0.21847878293290038,-0.22427983420115777,0.05430373806125344,0.1455415917416791,-0.16841252342364382,-0.13670946616319005,0.0005792741378913002,0.02988330646327653,0.08487585478138834,-0.12503799158895806,0.09379316633307223,0.027507205932306683,0.6333938388643233,-0.18454187792301796,0.4388486752510935,0.06549687484838347,0.13066431624393884,0.0011764831604740705,0.525954791408816,0.07011373259759443,-0.004450673468856297,0.04098942991800979,-0.011887169773875763,0.10115038951529538,-0.027304992889029902,-0.12599148973551852,-0.030045681636049062,-0.026365566279034157,0.019343675842375965,-0.04243992204515437,-0.0799853341598066,0.03470008444794202,-0.011964646853741275,-0.04609907012586681,-0.08936913218383669,-0.01149326113511297,0.056654988810915685,-0.03262044079542736,0.07101820962623527,-0.024349594689414125,-0.02008787005208517,-0.06530980399172005,0.05269762813338849,0.016200995880687304,0.03277757971820048,0.03037664395746398,0.0603778308744275,0.010293282410413863,0.00901935363987389,0.009158706517941385,0.042880433057906064,-0.04802507492458205,-0.12000824846424171,0.007282167547884787,0.04298935578790947,-0.06579552495642414,-0.014365778318018314,0.010885966652384154,0.03856695329810178,0.008230161255298952,0.04163540984088419,-0.005261699132654707,0.03267216304233206,-0.003593288775899587,-0.016202135955142975,0.004514466983397974,0.01284412946486071,0.016385100041662024,-0.010190506480791034,0.019743299496219127,-0.01130526254010711,0.0062515023837556825,-0.009776276953049667,-0.0369035489299841,0.08070986205229916,-0.25667252533057094,-0.0823781658360514,0.15903098346306185,0.2775203469553657,0.6685929757893337,0.11596444360627522,0.3453282782012707,0.32380819952358475,-0.04771302551488979,-0.21938893669840526,-0.3036433109933526,-0.2179465786572511
89.45984649658203,1.0088043212890625,-0.059480518949950545,-0.14862618123955762,-0.20260715293805623,-0.043194593136731484,0.09029350803696978,0.07878764984884924,0.3564486525515064,0.20428888524557037,0.06483200687949298,-0.25188086511114804,0.030126257632257927,-0.05616008968932571,-0.0007475607099316217,-0.03618433122887036,0.0022526026677172632,0.22521214854055477,0.14472248483309433,-0.1615194431377338,-0.034133274478784434,0.10782770451303035,0.19669612683599502,-0.08164553204098465,-0.012389713959785722,0.07342073575648415,0.02937763956791132,-0.013557830313941074,-0.12318346263333385,-0.14783227180373143,-0.06977961723632461,-0.09652193983787181,0.10576442116819217,-0.0630386271934366,0.058560432556557254,0.07069082851940967,0.3409904393858611,0.003878197486902479,-0.004515234665784129,0.10553745883672876,0.019989778864246514,0.07775858495047908,-0.08853282113042807,-0.0735276984639404,-0.013184653557230568,0.053384387273057096,2.809114099686528e-05,0.014096776098375535,0.030202654987649263,-0.0007342674672841918,-0.018126219258242076,-0.061324498977264275,-0.08129346914577469,0.05258955099880798,0.04233067457951568,-0.019366329280046696,0.015349978995155035,0.03226003471340355,-0.08037819874973887,0.023380547356028798,-0.05885132157909176,-0.04066696085453802,-0.0042458686534985884,-0.08409701443529767,-0.09951950035425301,-0.1369615982068294,-0.007711514310841092,-0.11981905456433745,-0.05346200968803912,0.011797595639304798,0.005739123992600046,-0.05316041406680355,0.05413694942323664,0.030185125686715164,-0.012338829367184338,0.04967089656040811,-0.00019805251896636087,-0.02375342925164908,0.00441852524745309,0.01995450018485632,0.06654072080825016,-0.030339827473271755,-0.008868012837031439,0.013700816094953647,-0.050248971225274074,0.005637290615830144,-0.011822959359563779,-0.09973701442130008,0.36384076129401394,0.0060849576449662724,0.04994234536536428,-0.0787780436266776,0.35036833464436035,0.2357361934650788,0.017342466478368578,0.44382705929590077,-0.05541550680908655,-0.13557002554675412,-0.3194687336236137,-0.0592449112641721,0.02031583656276502,0.013616118331659332
90.4686508178711,1.169097900390625,0.01925162199534871,-0.05056674303977502,0.009167279478494711,-0.04263785596829496,-0.07324259183258645,0.24882981505936508,0.03398624763288747,0.12657682552429692,-0.07599528308192345,-0.20043865467904487,-0.23626811167860556,-0.007813485294584768,0.1470446899285875,-0.16366767984825178,-0.10450682200166184,-0.000377754491088985,0.021503744179675367,0.014810135442255672,0.024790982980066104,-0.0027218677391967327,-0.017818294217601817,-0.03998815991441993,0.00195958450156712,0.002506458913308989,-0.04630638861424519,0.06422118554696654,0.031906073732665886,0.006422053933610597,0.03870274061283843,0.007995421208876407,0.007184191206554159,0.02735339483073418,0.14770940233765617,0.09221597166829403,0.010442879030515542,0.012753073185893932,0.04371632280711478,-0.018941488495448647,0.02789365827422369,-0.013140272853625831,-0.05209497086947221,0.013982035398690649,-0.0017347458977765985,0.09570321038211915,0.022907833765540765,-0.013653580567783251,0.03679193197011017,-0.003984289261421413,-0.007329530210392861,-0.010557443724786649,-0.00818625897991668,-0.071169858345947,0.033241789711263056,-0.017793177938802567,-0.02723376297515722,0.00592760556573689,-0.024134119145350373,-0.017090364752329897,-0.10304815229201893,-0.10208299876164136,-0.019184328035460666,-0.007599149872298679,0.054845494748605096,-0.08704315544420735,-0.01849367534563489,0.030838267105695046,0.060476596512906294,-0.005831555454489504,0.0695984221365061,0.013364006050867995,0.01235924034355326,0.057580664912241286,0.019829723258101138,0.10707735060396442,0.0008690313480931092,0.0018676327743156335,0.018195178884108574,-0.0039726048183393314,-0.03785484669559441,0.014760455151521726,-0.04202846795958791,-0.027509522780751187,-0.002283166369442418,0.0022772826720988764,-0.21710178552494436,-0.03783466130379488,-0.1884056159200733,-0.2321690980182892,0.16084033971322068,-0.1457604050559388,0.04310535553772875,-0.5675424144499526,-0.30214234934259,-0.00014301940742379553,0.11317159611145629,0.2207566520189366,-0.29504419919294805,-0.3830282481662635,0.05211452279634708,0.05815000534621935
93.88465118408203,1.0493011474609375,-0.1372804024877174,-0.012997766510405843,0.27760518595243405,0.5319855988798394,0.17882098738375315,-0.09653714313605834,-0.3188288137685722,-0.16928282751017604,-0.024541260200961902,0.6593504143368762,0.022038826090881727,-0.15910710725598615,-0.1799271980666376,0.18738332415189987,0.06523849015373977,0.08961723884063337,0.1044821636396009,0.0021450964500259314,-0.10060463793815069,-0.03369895127700949,0.018233722569486608,0.04254509281330919,-0.0018430411670012224,-0.03390515815228973,-0.024363586357443102,0.037269722398768704,-0.011516490700494438,-0.05574595632414537,0.056289349369675966,0.025938055181750682,0.06598380874929646,0.003930343004741224,0.015561036478135275,0.060734778798158834,-0.023140256086952943,-0.01631514201634668,-0.01615218709948916,-0.030929800896044135,0.018677504528618872,0.006444013327110363,0.035672600580976634,-0.009238425268210015,0.04283274759955894,0.005949224881082798,0.0397362168201604,-0.008305172093624446,0.04441130665907434,-0.022397039610291734,-0.04550961768707571,-0.09754674988120195,0.06412744091680089,-0.03829959405023229,-0.02950063784300644,0.008616063038989041,-0.009420195665373847,-0.03983340830097091,-0.02408765455896101,0.017178414122854826,0.04504800210173365,-0.036226835306043384,-0.01775143485476053,-0.018806724986823026,0.0026950221478396624,0.0028893532999267613,0.030412989417912917,0.018579515459282898,0.0640098506057993,0.050045774965185454,0.07235327834336586,-0.007478940570525769,0.0757058761754864,0.04610716094321121,-0.11982174990544699,0.003400438893781013,-0.02775509856632378,0.020330124929005388,0.0024727036741010785,-0.018166712674916152,-0.0035743002208366097,-0.03285011075862817,0.009752476075548692,0.015407889868858127,0.02058746376592157,0.02988517816860175,-0.01352477497786498,-0.015740176404586054,0.04069342006490378,-0.025873039939416878,0.06642084221386015,0.09755631683345753,0.3151489404950886,0.553495935690739,-0.0698473012041939,-0.3805559517363358,0.07341946924716418,-0.054223392481725,-0.25571461535983125,-0.3866792536712784,0.04341206301772889,0.1192576639216209
94.93395233154297,1.048797607421875,0.15530706793554816,-0.5294618907881946,-0.17668463443278193,0.049608274331643165,0.36821470536918866,0.02409004072087326,0.7822568914498469,0.08027776462414882,-0.03745780613881937,-0.25730888995430423,0.35495792419675526,-0.13719388678023747,-0.05453824476583884,-0.1151937390983013,-0.016136029783182806,0.04636839089325116,0.07217000870754496,-0.11824653335635094,-0.043539977235530755,-0.012667119371020344,0.0014654586872455343,-0.0022957739265723476,-0.00541390193567047,0.04921475458459462,0.06914067491019571,0.0038220757809208712,-0.03367012921858079,-0.079113167792665,-0.04871340426404573,-0.07190918719074176,-0.07571000135255691,0.050038654336196656,0.06341528339490772,0.07662854722436208,0.03338136303323715,-0.02371054685586295,-0.025148751852905334,-0.006561849188546283,0.005819233883991309,-0.06633521981179238,-0.016236767999345186,-0.05696339284837275,-0.05767670047916993,0.0511671977342107,0.004353337572870243,-0.0015330959680834974,0.021341586718592084,0.011345614382894042,-0.021494772201381157,-0.059532321193484006,0.04373361166877441,-0.03098081446675119,-0.026856684085672124,0.054048448741156524,0.020179696567158147,-0.017638509416580916,0.0074335087142485025,0.019379671272510217,-0.09312610213619388,-0.0636016405486517,0.046977646163739374,-0.02344439079546756,-0.022799654819319927,0.040456290138082676,0.037259080233009736,0.027468823052167135,0.03227322438699158,0.009612818664906894,0.02740866717030458,-0.10452222301158272,-0.04278183201841459,0.004423314161373634,0.020788899222690164,0.06444078098356903,-0.0029752796375734055,-0.050288561847249544,-0.08048893261842291,0.0006927281375681594,-0.008050086394017136,0.017910268176106248,0.014996935407670341,0.019688744544130825,-0.039786062674579833,-0.006147047262211495,0.038843975075012256,-0.001802824476777087,-0.0336779427470663,0.05267142156026987,-0.0004279925318906169,0.11707209888087258,0.05934274698183219,-0.18522486940163832,-0.31348828967986053,-0.5473661220537374,-0.04086711812276118,0.13154350752718874,0.08175464725991086,0.25397353966248437,0.16466545098129914,0.09043589189727828
95.98274993896484,1.0385971069335938,0.05675504916617749,-0.06477993467442066,-0.14269229734741037,-0.09712355209377929,-0.03196142848346005,-0.0723194184579657,0.1290561768512062,-0.0766512833527527,0.0029690059160270565,0.12247512182950283,0.13885983164224003,0.19085437196936766,-0.30418413321231136,0.07618071615121011,0.06674721605375775,-0.14740017452761245,-0.06384173552598012,0.0019346378922524554,0.026565461395322145,0.07762238248419963,0.008711023379206168,-0.02964250540701202,0.01842988134083427,-0.0552120589604784,0.0678790376089807,0.0015991241219367883,-0.053328207309448976,-0.053874783852769066,0.007530306874080923,-0.030805670899046636,0.08023794579612488,-0.165102970586749,0.06073990742158361,0.0412456072078684,0.03909369662011694,0.07661326376591068,-0.025790554517576374,-0.007024646924560519,0.013705932400690759,-0.04865820756450128,0.07441744618234901,-0.0022371063378892318,-0.04201193390120329,0.017220439564922856,-0.0043748402537300305,0.05061610775964984,0.10046231589635962,0.0227901999272524,-0.003363280155068695,-0.04418761635201539,0.10206278744861452,0.055900282705397014,0.06395492066824181,-0.0031553852255562956,-0.052703633194273444,-0.03009829539421941,-0.044519382181776465,-0.018759183220189855,0.02680001780354245,-0.005381414248950696,-0.09397880097937522,0.07662705428486238,0.03218244026016016,0.0661675234952622,0.06208809365651168,0.00023866865710166587,0.02457609967841687,0.029411562160269314,-0.004569390275768408,0.023895807635064374,-0.028801874276555936,0.016980378347452574,0.03860088291843197,-0.03962520821476709,-0.11258922067804306,-0.004269202366162208,-0.03079652302664449,0.007434936964443049,3.187466263005617e-05,0.06636455752401513,0.07525127678609106,0.06395187830126083,0.05425290769010473,-0.0221620431379694,-0.01754617898621856,-0.0074992134070162595,0.027243948328824038,0.04599998356568886,-0.04789746247604677,0.0683931391672051,0.13461279916093732,0.01930612096054269,-0.002354643397531178,0.2571274636105443,0.40360754278386685,-0.018108588867967325,-0.03004297076005326,0.5148034515192921,0.007466906369005141,-0.173612584288337
97.02134704589844,1.0489044189453125,-0.3207052494550206,0.02537836483966266,0.17583137517547875,0.04836998756814681,0.3812037718374838,0.08178525936083506,-0.11108383314115818,0.1691814519547182,0.05601621310497737,0.24693815927626506,0.2299728250128115,0.1709395576522748,0.11803322542467136,0.1786795525309086,0.24960173523518098,0.08457869890961128,-0.10164329404704284,0.09728765966334399,0.09744853254844983,0.06417831322653227,-0.2104099308199353,-0.12695092101762023,0.05353873862148105,0.038110613581281025,0.14800936383868682,0.13386070091880953,-0.05539703720098654,0.07273529652503277,0.1463504605823231,-0.02403378504723236,-0.07018855127057413,-0.12294703865416916,0.20108586024568087,0.27710488735984407,0.03331573476875471,0.01906394853677734,-0.06848794533196945,0.10018326012921944,-0.04669275200114694,0.04765612403939501,0.015193287029923992,-0.001993647382248958,0.040483811125850526,0.006128721980392653,0.06694860546825583,0.011677855480039122,0.0023155320365023093,0.002452893787777126,0.001751919088581879,0.008518523100881241,-0.005467874894659374,-0.02016203749726854,-0.0013478155310523994,-0.04429344717392933,0.028904434322024684,0.0026850911227457807,-0.006903186284998646,0.001676761362741218,0.02527077048623282,-0.019821562492550456,0.0002375036704433737,-0.10064516856422034,0.004809437772778514,0.019611485890582064,-0.001157400266128057,0.017143277633431712,-0.034711852159126824,0.03301591746756931,-0.08164624485790925,-0.01543172779150029,-0.03473355029397972,0.01479431134934477,0.039936320716304534,0.01649161335937225,0.05972848776232269,-0.0024371302466698374,-0.012761090550681909,0.005657216089134484,0.020511293009092754,-0.0028049957191693302,0.0035814180606778354,-0.0011792040618367604,0.01928400411987801,-0.0378496806680852,-0.013530067231377197,0.08558200431556817,-0.11750459176290562,-0.08009023416976165,0.1755722858151106,-0.09866636397448632,-0.02536564942898807,0.32152407444535697,0.05080222615051164,-0.4842137614878516,-0.04118056856936124,-0.23667674924279247,0.007368167318871001,-0.3156140356011963,0.3238297634835263,0.1364050752035448
98.07025146484375,1.3584976196289062,0.12422599353168298,-0.06936532916953363,0.37919084916554585,0.14910990543847555,-0.20174438219759064,-0.11159692078038407,0.0834494921036835,-0.013002213951897693,0.007882155156623378,-0.12813356960889538,0.20937449973015965,-0.032332470458803816,0.07914447550490952,0.013725312862045373,-0.09084368080574937,-0.16854694360678957,-0.0714024634928108,-0.13409385573937382,-0.03595725536466092,0.07041801704409484,0.015610427672832956,0.011812547933872819,-0.026647657522548298,-0.1154633677171625,-0.09952856986379437,0.02127062951554752,0.01972558351924848,0.08270447376497328,0.009979563170729573,0.03259545196052861,0.12257871615376106,-0.00544293584806887,0.07628429068026528,0.0017026789377813153,-0.0685384329217922,-0.05574659877194354,-0.030963570413228805,0.019299948425595553,0.054050762085988746,-0.05888088591405939,-0.03983314263418757,-0.014524094586799426,0.028998339450363283,0.0378059418037978,0.008646135358122954,0.03660030746118891,-0.03295426872114145,0.007773826273306889,0.008948567717286068,0.0036596708732662226,-0.09458126188752625,-0.032526810848266835,0.028797791974591907,0.0034352821955744703,-0.008931825387770612,-0.09673255897152233,-0.00917971387872828,0.02588501645061871,-0.07623786526503284,0.015505734297412144,-0.005735533809830671,0.00751117407174192,-0.020649354117212877,-0.05308893608258989,-0.037399462707931846,-0.053610036104838985,0.02582282701516241,-0.004081557527585583,-0.0015642951833022,0.04344840132666621,-0.05133457083187297,-0.008811205910968418,-0.03745157849498396,-0.03503156291179967,0.05159573001317057,-0.013139984771379287,0.02261047288741768,0.005764614228332298,0.08428651860915615,-0.10726639731802048,-0.0034059946099011117,-0.0052385294809994265,0.01071871475153678,0.007087957465073561,0.014705710686189762,-0.014320571811758286,0.041222141232452034,0.02090737826309494,-0.0005769103411386815,-0.3669491349429334,-0.2331737867694267,0.3905839719941609,0.39694554484204114,0.37908735564582163,-0.1495043551727433,0.07286075990052365,0.18475858516610763,0.3051091170956008,-0.20648648448880583,-0.09188999449822494
101.6762466430664,1.0488052368164062,-0.032611122481979865,-0.3821511472143612,-0.11601372484622971,-0.44437423201645115,0.08925562662054715,0.22484960498004083,-0.5137232397121061,-0.31857903441414187,-0.10595975204095796,0.09576929621970398,-0.1931261829348156,-0.032730563264503486,0.18183568867741604,-0.028180884243780062,0.08086709663174575,-0.1047491795714491,0.047700699192846176,0.08478735956281312,0.3758559644739825,0.2281664427730538,-0.39664869420563803,0.028569306331630264,-0.03602416948070554,0.3204103850142189,0.03609715371964406,-0.09705822548191474,0.0994614338682005,0.017293510081722245,-0.06488519475278877,0.21737269208189644,0.04129966768270473,0.11053866433377584,0.1613976996069492,-0.04068511767339611,0.032583771263491726,-0.05279382234147638,-0.009018882450129809,0.05538225843990569,-0.007871421036861845,0.02776154516625509,-0.011816275445383072,0.042877282313483256,-0.0025807538528395623,0.0010815896572506608,-0.024201779440950685,0.018424272434258652,-0.0588995555020224,0.008296208562062353,-0.002971501841918783,-0.018627014921534527,-0.07063931462973823,0.05587630054129081,0.08072015023098847,0.030895195729295496,0.010900364294203787,0.003793611797406806,0.02165164764353428,0.05333013007223226,-0.04889572353870218,-0.01244838788877191,0.009085615641250024,0.050993435267282936,0.005674397087249251,0.026198110187489493,0.022139563463282573,-0.04294250254713132,-0.046994727623517786,-0.0462768615569014,-0.022808946191528387,0.015347822117211618,0.03061724402357291,0.027038647703698,-0.035970207990330794,0.0153673017936965,-0.05342842386682996,0.033140078584209455,0.055046731957716824,-0.05363132993609737,-0.002726757989315473,0.012630749947564272,0.007260319705024072,0.03932263773649678,-0.020022178644817437,-0.12761320029913717,0.019608945699051028,-0.020672517903257852,-0.008993152758170073,0.004863462326970332,0.019524450664112833,-0.018590395183146285,-0.20059281660563794,0.10884303141321121,-0.016348717264979655,-0.1491977586310798,-0.14796236978249136,-0.1543330459210914,-0.4560739631787294,0.14567331061391764,-0.03564824526870128,-0.06185390599540064
102.72505187988281,1.0288009643554688,0.08302234857386043,0.022884908172426464,-0.15060917206859553,0.052170386563428005,0.01725889580138649,-0.0763528546038015,-0.04181388208024149,0.0985350698034985,0.5218568262456262,0.5447695706551271,0.15110423254961927,-0.12111783606325395,-0.026219759035430154,-0.011091066712171561,0.015885089371694458,-0.05636563607791749,-0.08046241647951335,-0.031315169699841425,0.024437647489654667,0.12432773711885145,0.08023777786537728,-0.017683839392357622,-0.05217746432528008,0.0901218355074621,-0.0048627198160457324,0.01891415756586903,0.0012667691754522717,-0.005128401917983392,-0.016328401554392823,-0.001154339517743012,0.012525666531553601,-0.07967641540388355,-0.049511759635144925,0.03942874154816594,-0.05699271548323033,-0.01732376381621392,0.0251970848568611,0.020683741346024177,-0.030385313603033263,-0.0044171035369424015,0.028092818529705597,-0.0828112644873994,-0.009461644055304957,-0.015842645650210825,0.03545733525022796,0.018243123867342635,-0.004550861492465345,-0.09067134608311773,-0.011941989755201804,-0.014384751462918705,0.0699011283524517,0.03258149552159563,0.03170955327848337,0.09537846478501648,0.024982420694570677,0.010942664147663816,0.02529412030209998,0.04453898432054962,0.05651866298899738,0.0728740869996994,-0.022104944366079113,-0.005801271646539936,0.015090975249639281,-0.025150858181976134,0.0028432270464410943,-0.02398600567274953,0.08900485416751752,-0.01659819224188487,0.0060056941586596885,0.01888468106265963,-0.03232668865715167,0.033495926545634505,0.013217162111092327,0.09904239168703399,0.014933867115155937,-0.021089221116883706,-0.01734900714808506,-0.04008005236905282,0.023387763601066362,-0.007771346951427782,-0.03990580677527125,-0.009199449297656112,0.0050695454758548225,0.01648126232817526,0.035379631936894494,-0.0016046689948233175,0.03839224016990936,-0.14750441047187005,0.0438470201847843,0.09835545657981894,0.055623418667031105,-0.18853289581960656,0.14539249545305086,0.3192554379408391,0.05515524288281598,-0.04003987199295224,-0.025008441919471158,0.041864153488927316,0.14537179682667767,0.18703513024359425
103.75385284423828,1.0188980102539062,0.18540688484509701,0.14463910906639454,0.05543475534166475,-0.08687524614724085,0.0103576651513848,0.07587288249369764,-0.034254370862659166,0.029388373524432132,0.11862269348637974,-0.07216532305256132,0.13572172494075915,0.2419269310899064,-0.07122481156136604,-0.05355840862277812,-0.00866661896142236,0.023968286938106237,0.0302718720407179,0.10969027455001053,-0.4960972624923961,-0.06866820470382327,0.008157061684539571,0.007641815987903663,-0.13411927964626932,-0.07996243374422904,0.10242056031131547,0.11003219343069005,-0.1759346663608104,-0.23568017564997842,0.0034931953320351955,0.2629150661087598,0.14333585391695589,0.26129137771566546,0.4387621739251121,0.01688059841285732,-0.1421452259187007,0.1617090616769759,0.3517157886200838,0.17469486340599424,0.05540693153438539,-0.047415724242249484,0.029117376370023665,0.012500417405711913,-0.07694567061480095,-0.06978352208391578,-0.08941998767799951,-0.0032219234734511314,-0.03282283300789251,0.019585509623711167,0.10569405481825186,0.00318712471395928,-0.00031549213794245255,-0.006058283892526326,-0.008991823391448052,0.040103115058909886,0.007357576070097266,-0.04042587371720356,-0.0639730149577063,-0.061307698157330996,-0.048905103429668556,0.00034491337798356596,-0.01888954457210077,0.030574731312660454,0.05639863721709618,-0.008573513255164013,0.009178221297983598,0.01235638712884806,-0.057263487816439376,0.03028446943521103,-0.08717886941835257,-0.06685903987261553,0.01869332596748,-0.053127965709321635,-0.08908232036609792,0.01723077679845384,0.0609967586764647,0.03227379156380236,0.015823562245824256,0.08374410756074631,-0.03354320573820642,0.0013737288834791833,0.002946484264428956,-0.006909395818109232,0.0774884542506184,0.008169202975106468,-0.011397891604809482,0.014932386716112201,-0.09993643970518593,0.03381120590148197,0.09038390213249847,-0.09223381919227587,0.06492089122462406,-0.17340654138547856,0.26032013258032954,-0.08866667908698259,-0.04709868085352452,0.0025083258837660938,0.1527377438204852,0.11933512444237543,0.24222409256710853,-0.042303739226895565
104.77275085449219,1.058502197265625,0.08430951796967787,-0.00974213451680426,-0.06838649214588338,-0.19893366203462118,-0.038025214317264605,0.027611651440243093,-0.005146473010279598,-0.021129619034658362,0.03872520569026186,0.26489782257698574,-0.009733526860464938,-0.10786757883763773,0.025478857489587434,0.3204132753874443,-0.09765215753190794,-0.2723797691086027,0.12931382865400706,-0.06745917648814179,0.03832135569689577,-0.045335929544393236,-0.22183310225030098,-0.03859133057715439,-0.1066064877426188,-0.110470157326312,-0.009702042666741025,-0.088551237795379,-0.0975999099411053,-0.06114881439348109,0.04966241408962463,0.09292812103197354,-0.0004079785528249675,-0.03184577060666322,-0.006614412439801686,-0.0004658300542494339,-0.02908801847144771,0.005348898657843966,0.030552364652652764,0.00729141975653004,-0.04114416220780197,-0.043108416504608144,-0.005215752307314346,0.04745264139219129,-0.004196735182480676,-0.03603093838505526,0.051620026581612966,0.0009848910223599508,-0.0277293612815753,0.036995243832730625,0.004970530902798437,-5.495507759895708e-06,0.015370640311821315,0.001079157728139444,0.012357524283292724,-0.0064494925539882175,-0.08595276468212897,-0.07957956193156562,0.04480016899631801,0.0517053578492053,-0.018918689644528273,0.04651932340605622,-0.000225845502747639,0.05917041420829179,0.04391123081422208,-0.019001326598103753,-0.05395751023430165,0.045367060241961896,-0.013050062191186866,-0.003040958473620759,0.005280242564171607,-0.025887237190417963,-0.019880851584901143,0.026504500314389015,-0.005436420741826318,0.053615781530659934,-0.0054523231698197505,0.009502093153236812,-0.0022775751050000473,0.025873607111945276,0.016822546355201848,-0.002067683416548742,-0.0014033884845697322,0.009096058599357368,0.006781025737612322,-0.07315863073588774,-0.03191674107156311,-0.012147167661400149,-0.06839808361320673,0.08128856826830005,0.22714836968048263,0.16099998878254707,-0.3703916374636822,-0.2832451897333319,0.26406077353751095,0.19020483941581606,0.32058452841966883,-0.5551135503753412,-0.017767885267143242,0.0376653039431942,0.08475825625503006,0.07391337251099267
105.83125305175781,1.2285003662109375,0.06347032561092356,0.26708747996828464,0.034974290824432555,0.10456480048020916,0.20235863313795616,-0.044380037583420295,-0.07394909550659437,0.04921389444975149,-0.18600619779348368,-0.11418448642090397,-0.23175397091649438,-0.004433186476126196,-0.036961394148457075,0.03363643779825544,-0.16923783236003828,0.1701429148852056,-0.12107458150988655,0.03188826752189373,0.13702561341076652,0.010187845319712169,-0.03492663369585667,0.041274280847365265,-0.14145510216538726,-0.21431876624855267,-0.0005373650162038713,0.053683044886366826,-0.07049643478431217,-0.00022970910691101631,-0.08869084401203593,-0.004821582617535519,-0.060864464131647256,-0.1279426345383219,-0.023305814122697444,0.11009438906366464,-0.09104969138622308,0.067461261579542,-0.0006367815755601212,-0.06849028328332278,-0.02121006350773856,0.0590118101989474,0.022055507487068353,0.018483389252981625,-0.00032451937236796817,-0.0037804154200071763,-0.05674784143815312,0.011127965508160323,0.004362081746853833,-0.02988443016337209,0.02586193280122027,0.018683346263146536,0.009198211700632206,0.007373504202909359,-0.06317543288488889,0.021988954746421305,-0.05815479382369226,0.04070473290695979,0.060817263058843156,0.07038017386919207,-0.07081504226446877,-0.015954838979390058,-0.004003780345742835,0.004271009401395468,-0.03419567668285942,-0.0271450326935907,-0.08777624276376035,0.0015050467486490008,0.051577512236591065,0.053891990723136544,0.0779962268503989,0.037562078291228956,-0.03763555125475078,0.008766473188841504,0.0571079106342839,-0.003920535879939237,0.011736311640756704,-0.04547054621089614,0.0424349906780203,-0.045024059026021725,-0.015419464056985771,-0.005679340292265874,-0.005436001401185955,0.0007657579959705078,0.013740109902683303,0.014896923548997156,0.03733139567940803,0.009291782970992701,-0.12519818506901087,0.11217691690585377,-0.04343059139422796,-0.030451152736422543,0.07160336846754135,0.20227997661425728,-0.27229139425545057,-0.438248070969249,-0.03939553977959671,0.31557804344802604,0.8887693983130924,0.15726975846258734,0.1283048877389053,-0.024444279328821317
109.42735290527344,1.0388946533203125,0.614524223359082,0.16446773025639047,0.15357847672031238,-0.20683747875079253,0.10413010855106714,0.01753324232196539,-0.4204450717931656,0.2150579510649708,0.051041618140970024,0.033699762642013784,0.21046490113732225,0.40895430091822893,0.19060577984923907,0.08565636398458551,0.031659952345776954,0.04750001061449204,0.2934800332478487,-0.4185091748333876,-0.22670227763941514,-0.06989859852849799,0.29915443237872724,-0.015275212807400972,0.28525467950785866,0.03144504010688645,0.023720582908376142,0.31124165643563595,0.1776194519162173,-0.3650085461559022,-0.22415371933244926,0.09583457309935585,-0.04841196191402102,0.4671988441112476,-0.12900024079251393,0.001228671460626829,-0.013107878200118488,-0.06275538977793532,-0.007422380286951203,-0.09651237805381598,0.0017012710702356641,0.000919816982070682,0.023888461029003945,-0.08271944252867022,-0.013880726965496477,-0.0015248707878850716,-0.0646977744470626,0.013995385425631848,0.028391419570116733,-0.037002775775014166,-0.009278249975335467,0.06975839843529794,0.09942201424262047,0.056056193693490644,-0.04504920767329215,-0.07946745196065043,-0.04069554496607682,0.03525963299627752,0.04302950564679267,0.06286061709234948,0.07363346179294472,-0.011490594387920834,-0.0004917563511010765,0.12863588742830553,-0.0013918116427804614,-0.00395654960278519,0.005513355030298885,0.05011078652775549,0.05607250608858003,0.008383599188216411,-0.04805767947050433,-0.02803524874243877,-0.02629509089803865,-0.025955449376926662,-0.0010320908591807537,0.024224079547592252,0.042659120997824374,-0.05132217434484157,0.016577337708065035,-0.06379634955451684,0.022461074747885758,0.011964591914605133,0.021494654506067894,0.020837278994021186,-0.09579239094997008,-0.00339972946847034,0.024849448761179845,-0.05192578745167148,0.000622485797672804,-0.0001184628545762012,0.005027156285099831,-0.09694447074410256,-0.03517998596900768,-0.11193311101236195,0.3337515539650759,0.0785953240504985,-0.08910634281428623,-0.21892786469270897,0.1401092581637742,0.15573788257542734,0.2557036496949552,-0.14959900969066697
110.46624755859375,1.0288009643554688,-0.026968505585547864,0.41928853293667234,0.09104596869462445,0.12360746534049008,0.08861690424553953,0.010386008494482693,-0.0933473593640202,0.10114278162152746,0.0431242077521594,0.1148021246109361,0.04606429455009254,-0.05230427501571578,0.308397435717568,-0.09440557401505013,-0.09873752607542303,-0.1726257122620925,-0.2399259807906621,-0.10449892255351645,-0.01458977672298282,0.03135061875438168,-0.2187307623122132,-0.05220062322870035,-0.00027013293376740793,0.036707590969412535,0.06401399819045407,0.01563339385958871,0.019242329453675242,-0.08195141186551878,0.058832023719482145,-0.0723788534763659,-0.19641047281409046,0.04303448906892176,0.008140798633722406,-0.09150074107823242,0.0710012726432957,0.010168482129818024,-0.05417907478623907,0.1866653786278477,0.004092905026933991,0.013948904163351927,0.025472845005377512,-0.048886246606295265,0.003536101027925058,-0.0039230855887848765,0.008197625106195195,-0.002740004115408153,0.021450411255382607,0.045572636189339356,-0.0040765926700728405,0.041669073168055994,0.009995398121488492,-0.0016502570811466498,0.0031070469478575004,0.004669179107907202,-0.07884170476315495,-0.0019481165257610846,-0.0100364198425128,-0.005813365228250279,-0.0025013584789244864,-0.007620322186619015,-0.022462890952645333,-0.01621085887271241,-0.046966150541455726,0.05168973502026957,-0.027372295945743943,0.057397981724048,0.06683711307750587,0.04723473545467965,-0.07350181343940036,-0.034497599676290736,0.015052345933990399,-0.031098061094562226,-0.06309834607343465,-0.040038989645969705,-0.002307592396010044,0.046958915442640636,0.09450083935881765,-0.10469671041590695,0.051108196221134765,-0.008683048986641292,-0.10498975582452132,-0.008023412796102823,0.001446356202045546,0.014320748494899083,0.09411668532157716,-0.004636077522328643,-0.038656494523933466,-0.05028562275560287,-0.11947694455664322,0.4841874666295229,0.0982791307419277,-0.22517616787973066,0.1554872985250971,0.10604121934627506,0.40550748219621546,-0.18703127026664798,-0.25930211331334246,0.1522352222021251,0.6245305401783778,-0.2434670608608796
