start,duration,0,1,2,3,4,5,6,7,8,9,10,11,12,13,14,15,16,17,18,19,20,21,22,23,24,25,26,27,28,29,30,31,32,33,34,35,36,37,38,39,40,41,42,43,44,45,46,47,48,49,50,51,52,53,54,55,56,57,58,59,60,61,62,63,64,65,66,67,68,69,70,71,72,73,74,75,76,77,78,79,80,81,82,83,84,85,86,87,88,89,90,91,92,93,94,95,96,97,98,99
11.867949485778809,0.8191003799438477,0.3427743391001409,-0.27967367315136,0.5323870467222763,0.004992242603723537,0.021902917691474656,0.01732928901017762,0.02198496898780745,-0.014813937489588369,-0.20043154067885988,0.018527701696681508,0.13752479867747525,-0.10285446816999835,-0.11093410855607155,0.07904800702012024,0.09057143473984461,0.009432703940778718,0.05464029171787193,-0.02611112569671259,-0.0726787987358938,0.08449240062187383,-0.06504663740446724,-0.022329095748513925,0.015573578739404403,-0.0020872983196089457,0.018175469139570133,0.04785100873062659,0.019988821822819455,0.09596536763192129,-0.06944202156127037,0.010474826561336387,0.08937331470095407,0.04029844392549074,-0.061788308554171105,-0.06613421611461139,0.031207771132165364,0.05357584162203843,-0.0007085897919453564,-0.04340662118439215,-0.006699164770709382,0.287386828825566,-0.10700125839066832,0.26299438011166065,-0.4231839134522375,-0.12994123765044385,-0.19681011206514584,0.10673875022822664,0.0497505729299548,-0.34490721974254185,0.1975984101879848,0.10454989442942056,0.04752020312517692,-0.09658230573451182,0.026140644861920796,-0.2483422617972707,0.11101395355153271,-0.10735037937764227,0.08199958568394106,0.01179730802360629,-0.011194174176140465,0.06628977434729531,0.005907569192469585,-0.029261337761805874,0.1368472348726395,-0.06463503053338109,0.02845390247222864,-0.10547527045375053,0.07272614711732908,0.04999948151628017,0.09854356973898609,-0.2752568241040627,0.2280181010304942,-0.013025831657894199,0.055086579945507905,-0.03931448525841435,0.01712852116962655,-0.08445412688561377,-0.013413626534593524,-0.04938519114608428,0.04539845887299599,0.038110510852058785,-0.03190997651010535,0.06906769928863371,0.012549441032988847,0.04369598953854169,0.06733465742388993,0.08608573658124496,0.2578790329596184,0.34828927580519276,-0.052741592966601275,0.16074115476075262,-0.01688004165623783,0.1462570462946861,-0.19235347191718777,-0.45920019507698046,0.43297576386139325,-0.1873257212305263,0.31810229644665217,0.1661849296632258,-0.1153068642072225,-0.007839979103187095
12.687049865722656,0.8088998794555664,-0.11259604234080237,0.03498211968671502,0.15898161409449924,-0.048129110736898004,0.17564056308268708,-0.21215026660965636,0.41056597082947077,-0.07319729650455635,0.31559182831250304,0.06563768691721107,0.3123078447114539,-0.004394361131584083,0.10417578045779047,0.03912112778122935,0.1613457828317989,-0.06403725286837739,-0.03760185078773107,-0.08598845477102307,-0.12041844320401641,0.1789152489241005,-0.13975750897351513,0.06138022695227041,-0.07079348261650581,-0.003943523003031668,0.009691613038290511,0.005550559570409293,-0.01118115412668606,0.03613215383988748,-0.045989653808500515,-0.055224617305285294,-0.10471827115679237,0.09383352340478315,-0.05155465400532525,-0.009227559958783696,0.033617065347416784,-0.19543981742597155,-0.1426384631141431,0.00842293804681133,-0.03926378234411184,-0.10912020503822757,0.003932946106555792,-0.012317729813839285,0.32535401644626516,-0.33268704981377806,-0.00343526083565536,0.13190443521437756,-0.32085954745407125,0.19236264522988208,-0.19595482141284426,0.2682242594747216,-0.058530764892788176,-0.18742388260157236,-0.09821028672858448,0.18622252869604766,0.025911533398184083,0.0891728306953299,-0.04793009086920087,-0.01979641059068081,0.004094676123581539,0.0010135017927306485,0.005145401397528518,0.023408996583818013,0.015975136688602315,0.024727599788621327,0.05042631964860969,-0.020153557844610495,0.017559379758467053,0.044039124736784056,0.015200912003004614,-0.10798388115037433,-0.07798731459515817,0.1477237274331276,0.06528964078230648,0.0409659326793034,-0.032672747984415385,-0.051207734287882806,-0.012713356380606066,-0.05411657349873058,-0.11161114193558885,0.12250780787989482,-0.14936055837351564,0.11551947595429822,-0.09544050935677983,-0.19419418107523745,0.053994955232584345,-0.1060904441930242,-0.05284586128611997,-0.12315394874317312,-0.34471542102977326,-0.04885961914119001,-0.18321110986839834,-0.09529633549145973,0.028700078295810186,-0.31413074759291315,0.5907000773692374,-0.20548833406792438,0.2619349576995845,0.22304584494491164,-0.05292746738035305,-0.1842817500545284
13.495949745178223,0.8192005157470703,-0.19733648894690603,-0.18933966054605159,-0.0764345473795509,0.18515464028149375,-1.885685839185156e-05,0.1072545662491794,-0.08519947921103546,0.05138365683958869,0.01008574181030504,0.06593541314724939,-0.21014244235646218,0.0053271445577719075,0.08492763472508974,-0.09095181108637268,0.024512130643891315,-0.2045084350355999,0.07253564485878244,0.0645448766236426,-0.07233681669991236,0.055892343628523286,-0.14420106959253906,0.03645759859028336,0.05543596694352772,0.011445285533977063,-0.027273694793391874,0.08129339737619382,0.040998875381822696,-0.03227042971376572,-0.13256343932765538,0.036633995956777916,-0.06200079935067343,0.11318323755298901,-0.03221248847473949,0.0673828210359197,-0.00886559367798512,0.08866655548635702,0.11257312618564703,0.050031915517841266,0.006596650728407298,-0.131439284638984,-0.0029051062087559762,-0.023505317463446113,-0.11469222230335144,0.23707048366201908,-0.18328102030529742,-0.18081314392855952,-0.006245892442689916,-0.07934470876129233,0.07575731522399477,-0.09625352430665966,0.08005391830877268,0.03276644506811634,-0.007650171904194718,0.05147548410823807,-0.11563777784819129,0.0902272648968415,0.08202057832996006,0.006715663757468531,0.003324518148302235,0.0062677178766797,-0.08279928454583903,0.016419010000455522,0.04191977111852341,0.021321433936482094,0.04474702762968284,-0.11019564817884955,0.009662469730222573,0.03699286669820506,0.003147422346821187,-0.04597015291773077,0.038985754254368905,0.023002665634542646,-0.0034452188728058804,-0.010416946095451352,0.07701109797361505,-0.02198830329197156,-0.03535996726777872,-0.06651341400541706,-0.0606882699903858,0.07703242862989203,-0.018148473513527486,0.09791601716062656,-0.13629938749078793,0.4681502655586688,0.29799846696307,-0.012492169988617456,0.031225415548038073,0.2471701207460496,0.14610373705524787,0.1103243439230993,0.10091501606041829,-0.1864599285002112,0.14821608496975613,0.27055462722518664,-0.3205856387382611,0.09225717161542206,-0.4617533309031792,0.2579509024690475,-0.009416143189572788,0.01391596397698286
14.315150260925293,0.778599739074707,-0.14756747808242268,-0.02896411134954492,-0.05901535896562812,0.040526031600395425,-0.20244204988071712,0.02169659430376246,-0.04651081249656916,-0.024185996714379827,0.04781452601794994,0.005883890459032506,0.033913170552856683,0.006816206241879924,-0.054463215402373005,-0.007841578912897036,-0.044968079773408984,-0.04102832422021356,-0.07070331324620385,-0.03389931236218091,-0.020390523736397763,-0.027755069325127807,0.02556839671868474,0.02461028950879344,-0.08515006384474698,-0.05807720794569389,0.02160780098546439,0.006693778702035673,-0.08724106444968631,0.062794974661674,-0.04100983769303063,0.015294069418691587,0.06314195922035867,-0.024036335269353476,0.06574378489119463,-0.04047158915531602,0.06230906480601843,-0.07233372899048268,-0.10327445579345346,0.02983922412725503,0.05021844751585383,0.0012390724945832016,-0.058081759920205214,-0.13669933662449452,-0.09830547090334031,0.029239554891803334,-0.06180632434660638,0.13201910505873682,-0.020799478731114106,-0.023194188843608715,-0.18820897175129314,-0.3158939028398832,-0.007901153280550589,0.06578070097819289,-0.2238810117981938,-0.054996875362243784,0.12115858494121139,-0.03320253734480347,-0.024317667521681144,-0.003861576713575835,0.002994916468944595,0.0004790491030953873,0.008776498374028835,-0.009113742790887875,0.15449305299241134,-0.04843475690035899,0.015140295101148135,-0.05934181201934663,-0.005146929534961531,0.04793045140866245,0.05686980217272218,0.012393229158490969,0.0046969097479342345,0.008275499156944359,0.13786949780755614,-0.10129605455813293,-0.02120612887995361,0.00237298176321301,-0.12052793785057292,-0.020842087755808626,-0.002322474356759141,-0.044040362215478565,-0.008025412553544331,-0.13566765405635073,-0.03911066135274528,-0.1167048089762,0.06820854572175071,0.7162739063468755,0.061531167307911444,0.32279606671900524,0.042672996693638665,0.22330765069678504,-0.4919522431196079,0.37176919477430276,-0.030289520539486803,-0.11119049221327575,1.2872260289381843,0.3110376211294752,-0.11183478906697288,0.08854960000748895,-0.17624728030373132,-0.12234621025388404
18.449949264526367,0.8593997955322266,0.06918299676263873,0.18947569619528992,-0.5998144408235655,-0.266283872257882,0.076628170948179,0.13928658487720005,-0.13948301362246535,-0.007621231295120073,-0.15921925207485732,-0.07645075655354958,0.13211783787479392,-0.0007290596811356694,-0.03726746062499513,0.018257752104113695,0.03748281748062318,-0.10788845369400094,-0.1032343677659899,0.016408588999671,-0.03401113351827265,0.042276868209017375,-0.06490841331665598,-0.05075159825232801,-0.0008236167239469557,-0.042419561091548805,-0.004054832106864803,0.07433852299215209,0.00803631987297498,0.024035374810760745,0.05505716336429708,-0.04217966992198487,0.008099249161192588,-0.011732698384927819,-0.005890944110253628,-0.14200256531527075,0.07050124122996783,-0.08862476273377681,0.02032215150738668,-0.009668982906950388,0.14010911879899224,-0.07229843160184417,0.2068774259022997,-0.18214924605641,0.08561276144576417,0.05992661210525037,0.14452798290619354,-0.03748157266049022,0.0852449840176349,-0.01990997437909238,-0.0647573999270854,0.005101667089100955,0.07455148087209701,-0.007045928868254341,0.0006504542067934671,-0.07901129716962585,0.08308071214547372,-0.0049576863009821726,0.07220812402932095,-0.060539839714168736,0.025593927404533385,0.04970559763629422,0.007561047340222,0.028603522214456233,-0.00393404956021003,0.08144709232371897,-0.07257432486864365,-0.006615540610693922,-0.08911923323342902,-0.033264221216623716,-0.07184985287968569,0.11839919456184306,-0.13987250216582733,0.2745322765052737,-0.2307066326743804,0.139107466270439,0.12846399550778453,0.033608533404656575,-0.01761600370718186,-0.05283817689321757,0.09747174752808874,0.03489249836605218,0.1343453871118397,0.016812552348338186,-0.15923130274171096,0.2563991789161583,-0.0052052284186535555,-0.21213426276897362,-0.044317361660334974,0.09910144082556302,-0.08936523371917988,0.002471071729878496,-0.05428372513822055,-0.27991830308314064,-0.07176742377685885,0.003726202973695578,0.41228435792838714,0.24887631240082494,-0.18231483373711688,0.12193933123972467,-0.173517896919534,-0.5581629152975962
19.309349060058594,0.8490009307861328,-0.24597260324255799,-0.00337909782376152,-0.11625034725532317,0.09186931381033797,-0.11598486180122951,0.11990795627000606,-0.11713547027244361,0.0497290401108475,0.07950692937394871,0.0647663879871323,0.011857651377561113,-0.002938056216498252,0.03196362858285656,-0.011272301456658092,-0.11942518749913887,-0.012751876149937582,0.030264319917182897,0.0029826153679151273,-0.012303653076320717,0.054986264272662254,0.202403924193069,-0.024473786704862992,0.03883695886459691,0.024345354734104197,0.02879010018686132,-0.01348448483771598,-0.11860043349322881,0.024249555921443008,0.009033427999487134,0.013779352678002864,0.02810989819398063,0.004914929736466624,-0.0029834223674898596,0.0022960750918360486,0.04503001105159118,0.05699198521784564,0.027271502045372247,0.0012970388798741392,-0.08012124428790808,-0.018436227693872542,0.03634224219767402,-0.3002715456723873,-0.16960648511993462,0.2002947954001235,-0.018750200302295173,0.32851114807692416,0.19970934126851544,-0.12326327105191516,0.06079187935083301,-0.10940336552015144,0.04628474106922178,-0.008326980924783125,-0.09959395457080687,0.007894657972028598,0.010776132197928258,0.06799109488498876,-0.00018890882602543013,-0.010044905707961543,-0.007342314469369042,-0.003951735238853334,0.020749496848124212,0.024408386572294934,0.08679958162367817,0.006646239823775199,-0.11784230064900542,-0.08718270111986846,0.1761896454958342,0.09085351600376994,-0.022944196635541435,0.03644702554044123,-0.0004718379724436908,0.0022501407060405215,-0.0651857441430618,-0.04023647816994586,0.046650496666602564,0.04328904377848946,0.10216444741696493,0.021214437626693748,0.09944837144249316,0.0494460050076574,0.04475095203701569,0.014744819417873173,0.10652740392156411,-0.10843985791695664,0.21270974029675066,-0.36359538930157065,-0.3212625335385877,-0.17306361544578652,-0.2544957100584097,-0.7402158582377187,0.3184439327202426,-0.1168851175232473,-0.17832391859487942,-0.23667320433153774,0.917429422615152,-0.095327621483387,0.19090678793553684,-0.16613631704308174,-0.07908978925134812,-0.04150866239697798
20.158349990844727,0.8087997436523438,-0.0360154898572711,-0.0689977230797152,0.05515298198413722,0.09121846063910335,-0.13450548770213927,0.21195273121658567,0.15269461016084387,-0.06098096920331707,0.1787650926916721,0.02708404577595183,-0.08848644762481352,-0.1218828033945631,-0.001016943298123506,0.049307644981561295,-0.01581257722797437,0.014632157117355564,0.022851692934812866,-0.028386003855325467,-0.016778178455785178,0.010846256060261444,0.015588282802925036,-0.00038275363672252496,-0.003601414931152421,0.08691393569234507,0.02118359732084319,0.011108090154338314,0.06631569710253733,0.019303368684607067,0.0206284152523368,-0.03486215417286126,0.017300197800568864,-0.038635210118231,0.008333173585480642,-0.010714328840679134,0.09316680105014052,-0.0888280967450248,-0.008789027135042388,0.04708092209640123,-0.04142632657681068,0.03611128631952703,-0.0234035287142312,-0.03526236646555454,-0.04967434465956455,0.12314525416446279,-0.14767198533975967,-0.040980492090104875,-0.010418792817887733,-0.04105412040050506,0.010032955905609419,0.00856320299459362,0.010787738641550873,0.019114247910050175,0.027990220936264923,-0.10891320765114287,0.003009764443514923,0.027879231556103258,0.04080421078118437,0.012275623050586494,0.008667323658992789,-0.004232525179723202,-0.00746086806312138,-0.00788629439351744,-0.036834343472716295,0.012807163027183294,0.004374776449338053,-0.21514970134756936,-0.2941397968525753,-0.19784394999494007,-0.0718522138952128,0.05833210366157762,-0.00812718612840172,0.014002989093625379,-0.0006913020520024349,-0.0298580328465407,-0.06822424113425905,-0.06590916060026542,0.02457931776635853,0.02757261842784359,-0.006933452254216625,0.06283048431457045,0.08789116171290921,-0.1545969678818029,0.07245522935223242,0.0017949213879984716,-0.31798124558357216,0.21417152322350563,0.05234188632444245,0.29142033982643345,-0.7258700794638532,0.2617259704127392,-0.25339905685805947,0.5859224361775522,0.13560726744345142,0.19360900130789066,-0.08073946380291139,0.25571761914419855,-0.25621374154634957,0.6182507464996203,-1.8124281711505734,0.06474410575546719
20.96714973449707,1.6485004425048828,-0.12627026031484467,-0.23892017960051623,-0.5306509886463372,-0.05570551516538934,-0.04370166546799059,0.14921773988148074,0.1163264968770838,0.15511023272300073,-0.04526061091266977,-0.0839711994165738,0.021613253305837993,0.015586529927776129,0.0633801310464586,-0.07676198712414722,-0.025596309055162407,0.032963731456173956,-0.0014816422311342923,0.015013262626831086,0.040596409523453204,0.029844342243546824,0.002666401701141175,-0.002654818197991708,-0.024414790911469243,0.04808427794208747,0.08243256643031163,-0.03506266237991517,-0.03441069226637836,-0.0005583553775896893,0.008691715679938926,0.010332109004802071,-0.02282897382761448,-0.029331135238856283,-0.01918578092595183,-0.015262321440389916,0.0035297415181829617,-0.000920065600970214,-0.018179793482432604,0.02109944401179513,-0.07402281407486387,0.06413555624511719,-0.17871302391419383,0.09436274721821705,-0.2067543296754326,0.12971235802646078,-0.060114545505490155,0.08816462436300086,-0.033624795797249724,-0.036859399927207576,-0.04120069635964529,0.0657606429608579,-0.04772114404797664,0.12969441704731727,-0.02500939326523719,-0.04372569515270552,0.05524951900333898,0.0018016800710721694,0.03774522792764507,0.09129991710966129,-0.006825363305040875,-0.028792567788329372,-0.04985946866367929,0.01937875116970757,0.02594864932365322,-0.1159840397018865,-0.024092711202647513,0.046303140656119054,0.058864253317322,0.2569603097184572,-0.17391397491132754,0.03236525052981329,-0.018021220633812618,0.0019415213711769241,0.07458347500079728,0.10379860556212538,-0.3371700313958895,0.0718808169362892,0.003934463010264238,0.07816211808194508,-0.03971984766475286,0.07484515383825074,0.04924464497676982,-0.023951528983198796,0.01918956538472645,-0.15843426306690953,-0.031171037959068604,-0.20976842203178764,-0.12256716240833168,-0.08397411937137148,-0.1265269472436382,0.04851769231475751,0.24588150826996513,0.035976741549668546,-0.3182784320957963,-0.3446971306241818,0.1071357806676817,-0.013452363480245748,0.1533175404367321,-0.04312938185548107,0.22354169920535924,0.11460405288417487
24.343050003051758,0.859100341796875,0.41478899340161707,0.02134752637594357,0.3648499640398796,-0.1268191130901392,0.2512316241907969,0.12979298194547192,0.0875607801191432,0.17485834018318913,0.004065566667423526,-0.09852984006854336,-0.24741225742840672,0.2096942081338493,-0.08120272214888817,-0.0880526459817333,0.13820220241911427,-0.04708837274482354,-0.02779116639242317,-0.06496142649875244,-0.014883265921059055,0.024849687435163765,0.15475072291563308,-0.0425100536257749,0.020748029548203817,-0.033647149994712994,0.02912689859138907,-0.0163793674890104,0.011042278405002303,-0.01121840329916409,0.013212434471174952,0.03564999785115217,0.04239926086182043,0.02427687307467162,1.480097439116993e-05,-0.010855590008050958,-0.020004948796538437,-0.12609224768848787,0.040672510204742884,-0.09669404164096662,0.06316097865726733,0.19845262242981246,0.2260582482363912,0.031079551536043346,0.19481566075006682,-0.11971135422277392,-0.4603054654817269,-0.049202564071878424,0.2881659252506117,0.02475270540420521,0.12257457147327579,-0.08525106374508966,-0.06320591653959214,0.005802190999234622,-0.01486435433134845,-0.012080182743603864,-0.026853506896117364,0.0579020536735538,-0.04689916337774278,0.029303358242836378,0.004010637011146697,-0.03973761911431073,0.0013328879706001615,-0.018475884375254374,-0.021052238331629572,-0.054159010795847236,0.0617560996752128,-0.02173897159798228,0.08954359274713748,-0.12939043716811355,0.21816272768509398,-0.41952977806686853,0.12494433349673159,0.034729103152243805,-0.059986572940908756,-0.00562342299344501,-0.018369663990554997,0.045146820231015725,-0.009861360049006427,-0.04114380119879861,0.03541599801306928,-0.015393855835011072,-0.04001738293319161,0.057173023509719076,-0.001890891903616465,0.021919918454240597,-0.0951117563527093,-0.20964277979407137,0.08223294290877545,0.0406483039900999,0.2973202980277828,-0.06763846833446731,0.8469769450405461,0.06279934607124597,0.18094795723394588,-0.30396994877625394,0.7982908279051643,0.02364212739067302,-0.09906868854353235,-0.3623526298951027,-0.11105313352545657,-0.17824901067263538
25.202150344848633,0.8097000122070312,-0.3156105015977537,0.026469871871022316,-0.2344576297929374,0.11812839532133448,-0.054745078211171576,0.11602957196626491,-0.2005868787143417,-0.03572487549917866,0.10247452877067155,-0.20776020791596764,-0.09176175725148303,0.027975568692652907,0.0807098667954489,-0.02151424684327312,-0.026770213663108836,0.013769677490758737,0.04233657529151809,0.03547423987285836,-0.01389536648471312,0.02321934767146653,0.07048042013797065,0.019212357718492053,-0.026074995141833618,0.04450703538045801,0.026123851699994243,-0.04088523187197555,-0.005729153328944915,0.0039602088790922025,0.005110933733198212,0.0009050049863737931,-0.10553140269983616,-0.030761999625768324,-0.03571013939803977,-0.016554188527805394,-0.021303399548878124,0.045563378646014924,-0.09513002325266272,-0.043753686513897425,-0.06210385748738319,0.054168999829533035,-0.0591301199950836,0.04147576300507659,0.2575918881303248,-0.06918884688921001,-0.09754907843101529,0.018658507882295124,0.007834812936578379,-0.03297442290844308,0.051850365003757434,0.10510754874193037,-0.03881227999885517,-0.01838843345743086,0.06142135243304373,-0.03967440695814881,0.035496016320325875,0.0061615618921767295,-0.019894906573865508,0.008961777518837075,0.040491678732388535,-0.0363405379126297,0.038455664697312215,-0.1450649220822743,0.0008594531627094358,0.041512410220572254,-0.05740030739340552,-0.07010418984422083,-0.007136079451032866,0.006922843875334423,0.11283392453346888,-0.3210327555749535,0.055154173828981135,0.018685880908536446,0.040209572234358976,-0.014952850125232786,0.004842741533839737,0.08667943138461197,-0.1072982124274565,0.03669919606425172,-0.07399831788368334,0.021114811812293452,0.005406256351270658,-0.03470729873219348,-0.00155319027728415,-0.07182266898373615,0.1821622794182319,0.19309411568546336,-0.7207391180328077,-0.14174634294140517,0.1977751932904103,0.009659037132823414,0.43472194340780695,0.15484876492725186,-0.11207839557579301,-0.7355783287611679,0.6947749741878534,0.10464463155688294,-0.09802804691955541,-0.06575533653942671,0.026139236042468997,-0.2860637240967099
26.011850357055664,0.8188991546630859,-0.4253786102419504,0.364688118769501,-0.0525543502626427,0.09749193038883969,0.2516343125740939,0.0493936313393702,0.056419132171681784,-0.06965127344664611,0.08750316646882131,-0.04535477951763994,0.007794458300505765,-0.18695089478787932,0.17678998640818938,0.057228972471095575,0.023751163818642486,0.02717264351301371,-0.14523351964089762,-0.030891561282051255,0.006083563448972151,0.06660425250931107,0.05777458984990332,0.0029831469155763915,0.0014292192468057519,-0.005506921495531451,-0.01725087671313015,0.005907759399131297,0.053606182629752155,0.0021046636299173775,-0.08045016165576081,-0.01868712386211334,-0.0019328962320823543,0.08734304682826448,-0.035368484382161836,0.07101566929454613,-0.04851585065009,-0.02520406400363177,-0.0055701034843843,-0.06147961806972052,0.16260126825668858,-0.2680823213054604,0.08545190203122188,-0.33851764923126915,0.0441578233052615,-0.23378973269345618,0.03108969152734109,-0.041510094032045815,-0.16799111373192246,0.11943847604945904,-0.15611175874583608,0.12001951321415844,-0.022714901555355355,-0.0063518024328066735,-0.06576019213167673,-0.0626573640021425,0.05888747770171984,-0.08961331380853392,-0.05589463924897064,0.02187145255427431,-0.051764986870781717,-0.03412794885000328,0.15735157538631078,-0.011458961182296064,-0.00928815236467824,0.04576524434449006,0.013088988434975662,0.0352709103163133,0.10546279033107347,-0.01945427152096024,-0.12080809151485311,-0.11796254320319731,0.10566553737574688,0.08812681317081568,-0.23274662867926316,0.1305824323496544,0.08807226484353031,-0.03773052692022781,-0.040212847093196974,0.044584421758691296,-0.012315744935412064,-0.03270672366077923,0.0910461351846249,0.1182487111329841,-0.20143396045634723,-0.05511996149330857,0.3786718242920788,-0.21790840733495787,-0.13388846569962604,0.06578037446669051,-0.07515184604026146,-0.1722094645260984,0.5305390131859757,-0.3245242047769466,1.79688942918733,0.3676228686204695,-0.02735948084687251,-0.4264188499171763,0.7863845490041672,-0.13180291588422302,0.09673248488766473,0.5111145702802544
26.83074951171875,0.8085994720458984,0.4065323750272885,0.12439523413745707,0.09838251362690092,-0.1339330969959428,-0.050969826878194874,0.023554473051941024,-0.027311430035937584,-0.023301778849765233,-0.14181698798345155,0.019603448815099407,-0.28252265971941565,-0.020885098957152553,-0.03150873721167871,-0.0743174455801934,0.07094423461865833,-0.04346397864764936,0.08489001099896104,-0.019305029414768048,-0.008267740091043564,0.01894247786012791,0.03437594398477793,-0.06238376439708928,0.000996654134829373,-0.005481598211072263,-0.04397723883411266,0.030310282032880012,-0.031940902961081936,-0.0026351222176656877,0.032480823038162465,0.04889509365148273,-0.10970247221072779,-0.05062255416074407,-0.009942856803115328,0.003894196049748967,-0.09480480510126679,0.026157425874295953,0.022020765516993297,0.015743896966780913,0.0077845647497078365,0.2858522326796899,-0.3423457633282962,0.2185420946640912,-0.08788016672876053,0.7512342099348511,-0.023019709738545724,0.2490650932192737,-0.1820489982268948,0.12864400948814236,-0.057155762996674464,-0.022947041023528986,0.025885898500550432,0.158326568426467,0.005556798089555304,-0.004610796558797495,-0.07666600553299616,-0.010542614995778493,0.048023827400567064,0.019309991295099173,0.002357096701104224,0.005492347958306776,-0.03549587477476488,0.033001469750605306,-0.01542729471728517,0.06870553508952314,0.006982276625909368,0.05580906898744718,-0.048012856700853875,-0.006569093255175069,0.02643306908273766,-0.023972011149093978,0.02700491358739733,-0.1543517388890346,0.06490961970518348,0.0583621766779147,-0.09687584948531268,-0.026558389727967233,0.01630220713677916,-0.03510739755879004,-0.02389918853112558,-0.07365661639185195,0.09700270617762281,0.03832701789512437,0.12676378397354,0.04248786455205345,-0.04101787188682308,0.101701072779486,-0.07799785147238701,-0.04749650276310714,-0.09200302554649345,-0.17902024107469022,0.0914006144429772,0.5733554537074901,-0.20832895471685053,0.28363685907075614,-0.05079179617755114,0.16354953142257622,0.5077436691358559,0.40344444006717806,-0.3763797195019189,0.5948254643572637
27.63934898376465,0.7990016937255859,0.4857188963959571,-0.1553166821897057,0.04342392246530259,-0.11682087498171337,0.016697124785497702,0.007181040455917456,0.03133710777829106,0.3372671025261909,-0.06824431705477702,0.05059628341540424,0.027401329462641094,-0.003858519887067572,-0.127953993722799,-0.03685507006430817,-0.05958044945642191,-0.07144261688165755,0.09890882880975115,-0.11975403236765433,-0.07767108343194665,-0.02525052724174523,-0.0701288298564113,0.053724270116029905,0.04848256926843077,0.027214723510277865,0.0038514551567189964,-0.019559392530977424,0.030079168925768885,0.06557383062432989,0.09126455459936196,-0.02589472086105157,0.043646229356096265,-0.01342703010056864,0.01216059605735035,-0.003807838981241212,-0.0026928868629078817,0.10297385412795385,0.11851938836285568,0.089230987369731,0.14038758002902174,-0.0030650427287825304,-0.004754476144478549,0.025440706605682054,-0.17496874221526493,0.0419966079988832,0.06521439788862232,0.2436593336072314,-0.3190834142930549,-0.20714554759673875,-0.12455210371778015,0.07455796640794242,-0.10417987229465846,-0.05045872863797044,0.06563075485824564,-0.11961499605493671,-0.012225403975319226,0.07805694370468641,-0.10789337693119423,0.07280723404273687,-0.020645382788713324,0.031020417195187545,-0.07719858600593203,0.0733445768787635,-0.04538958264292557,0.09852941596292447,0.0040598789396200105,-0.18430746830307726,0.10784923219843542,-0.06453740322411439,0.2418124303753137,-0.293432481969757,-0.010278180486422872,-0.2468704229514527,0.3714838512431431,0.02278733034161222,0.03713111744460461,0.015715549607578237,0.0031203267602903134,0.07886713031469982,-0.2703894634225004,0.038781061640205346,-0.0776741014961635,0.10726088718243423,0.2625378293690508,0.22968133213343261,0.31876438795361733,0.09632091209793113,-0.2776352842907634,0.03813464497827995,-0.40601661642428527,-0.2558082921582588,-0.36209512642417824,0.05166234670368228,0.46918072302637304,-0.393247075995034,0.10792990506064307,0.1579293051116064,0.17178755405495205,-0.23430049356800706,-0.2568352195103349,-0.11547310483742994
30.985849380493164,0.8187007904052734,-0.16435508565090823,0.27450902658292264,-0.2992107446643504,-0.09663008090760114,-0.022155778571148282,0.07605177525903699,-0.015838888016773228,0.38213142267632366,-0.3054595018809114,0.08665764374393889,-0.10948500441443314,0.2522529902568995,-0.11765878916321763,-0.030968930445390966,0.15367942102440132,-0.041758863885727186,0.1009306765570062,-0.2600960708811759,-0.13853859284194808,-0.15250501187332088,0.2581003489460644,0.09202164351444125,-0.15239614110545546,0.07196381147028677,0.039742140710245705,-0.1315615452080989,-0.02088258601390238,0.0209709038640565,0.3331969188544271,0.2948488973990837,0.016650058716406,0.9173848660853484,0.2796772804369057,0.021621602819644134,-0.2078552280899402,-0.027335940407133295,0.2029726318622833,-0.10263286884872823,0.10821431048424757,-0.12474660446902114,0.1130781985878223,0.05889799704537854,0.1392429403460777,0.3446356255344961,-0.3486583110511219,0.07020207539481631,0.03194198332015555,0.36055410074429506,0.26896128714468037,-0.4148667082972897,0.10607581241064354,-0.13197048672872436,0.08692976509186734,-0.11795953431923394,0.1719050448780051,-0.13495058550307212,0.07284330672258611,-0.08318897182325904,0.05169616415611165,-0.0176120680011161,-0.018345986436248574,0.004262039277083723,0.10840486513706671,-0.06886520700821251,0.04379165336923728,-0.055306045573564055,-0.044300959613404314,0.0015415884936128966,-0.0789437328549665,0.01138465273397615,0.03657352918137699,0.004346672535718632,-0.11659363505341955,-0.2329892392110695,-0.30963730800572353,0.04846296689000496,-0.005213432666976784,0.07990483133529007,-0.032466714344034565,0.01282280943655787,0.04494907924869176,0.10397231201823415,-0.012734690043257587,-0.13087739780581653,-0.16726005969511795,-0.45156356526987634,0.04780923375897406,-0.33837808463956287,0.5702487051947189,-0.3225781637979824,-0.4612985063725261,0.3876122895758648,-0.8524974309198561,0.021713901510284808,0.1658197904133844,0.24412592330451552,0.6361892984881893,-0.351713172881325,0.1449576106427013,-0.3211312561338176
31.804550170898438,0.8194007873535156,-0.31747152585158656,0.5106290684505835,0.22024658664623292,0.23376550023334572,0.44096656896630076,-0.4676891152691365,0.1915737942759424,-0.09055412931203052,0.04411252256035645,-0.07966171920155682,0.05785319073540401,0.07087961581443188,0.07003166898063434,0.03765345300312758,0.07049327791159488,-0.022082788504845376,-0.07355240500449833,0.030030021267775583,-0.036854318438167256,0.005389115920998997,-0.08308153799573681,-0.00016611972552568722,0.02079823056706448,-0.058512690322606635,0.0195299715788933,0.09434840596633129,-0.054695959868403296,0.04034907156858916,0.050124405477581534,0.0402976801287121,-0.09278757518749352,0.02114046408687898,-0.01877977435101794,-0.19779308484102168,0.18860774258115184,-0.007812999418025528,0.04611426216047205,0.03894724836947009,-0.03995102174468018,0.022101783706873844,0.11194386328584383,0.07799243532268837,0.035784401582129706,0.2011328875823303,-0.08025231662807548,0.06451591714738834,-0.0689354569459529,-0.0497657175342389,-0.1405874731412964,0.019101595587133455,-0.029071790880159272,0.11597917790390025,-0.07459218361725076,0.049146571872704554,0.05122613945385502,0.051514335050086804,-0.09051008744503432,0.05554231362617308,0.054572239607512465,0.006156049920876128,0.04795184352888433,0.04338966659256267,0.02499103852036285,-0.05024672926750459,0.004799917629724627,-0.000787161133856365,0.07248810604728562,-0.07247904522750603,0.04126124088098519,0.12521353641139712,0.016313834769189683,-0.0007594827686806388,-0.005474862631673932,0.010001522080721454,-0.04672131335872301,-0.014317377658597676,-0.004132750159812539,-0.030037074210611508,0.058347685262520765,-0.03983336142908345,0.13999693198184543,0.011570950528455026,-0.4065176015061627,-0.3013431557126425,0.53919699229908,0.1850104962736722,0.6704740325373351,-0.17394676039447685,0.6561445406193609,-0.10306902388975223,0.059118237075468205,0.2616595426147603,0.006663508052817679,0.4025060484553572,0.23826794448412786,0.42655902474538876,-0.22935901695532082,0.7732755447393796,-0.10923148113472228,0.18081344458423115
32.62395095825195,0.859100341796875,0.32818803600709145,-0.1652145085875643,0.1650827866022713,0.0877364784741029,-0.06985095447350846,-0.033685424001186834,0.19834891821249073,-0.2190341437064594,0.18209504253320707,0.143321307014149,-0.27046286875317516,-0.06875483850363456,-0.15456039912636663,0.032583413063195524,-0.10820540994419603,0.09506732646858693,-0.06161455252538354,0.011432939441800953,0.05211288342080467,-0.0445075027807571,0.10978406693856682,0.013639161137986099,0.04062389445931161,0.037452911124855756,-0.05052422997322236,-0.033983100598240876,0.09598816188907296,-0.013040203297487955,0.041949799503867055,0.026784662073027266,-0.0596079874467238,-0.0065991212828547295,0.12015291256808205,-0.052728035233084586,-0.017805150116771574,-0.12283442948806482,0.05101723004530358,-0.00986192976290388,0.01330642490452955,-0.03195626862175795,-0.14980113126630903,0.4407765367864688,-0.21434958212639946,0.4132847011416998,-0.3477244197126635,0.22896454961070745,-0.28152935088292835,0.03684594022608011,-0.00751181861212845,-0.043258135290256634,0.0025079457651003916,-0.0019175716842296223,-0.006638831577999724,0.012017271845907174,0.059209276024222615,0.08398137363678919,-0.018741276943028823,0.01683378335521651,0.005459278116533574,-0.030322106473379636,0.07459603815220152,-0.07256496606885313,-0.016517261326995762,-0.08159495991362754,-0.06362425677704728,0.10032130885222165,0.057475976494611745,0.07637067871687121,0.01161069284569266,-0.036582995373527216,0.013311166433509424,-0.026834559967211125,-0.059293610481475426,-0.011936915503045611,0.0350093786146812,0.1145869809063704,0.025689713793122168,0.01581265517584395,-0.006214960019965226,0.09993817620349896,-0.04241761943830212,0.04797126215109364,-0.19972957259758914,-0.03237412779701117,-0.29428877205906967,0.4766780222660264,0.22402445762506193,-0.08203845226303783,-0.39500416316714076,-0.10692979646890693,-0.15591437726776747,-0.11004079485956006,-0.30902592146103325,-0.6699185607336765,-0.609769258435566,0.24540686566194905,-0.7256247568839825,0.09413890050809616,-0.5011780847322881,0.19874775195526231
33.48305130004883,0.8184967041015625,0.3207976045132087,0.054331053461725065,-0.1399362158630277,-0.10976799351139968,-0.04461135903094023,-0.08649453415298278,-0.08399416134911664,-0.12484402762744239,-0.006635313427006653,0.0055712005254107775,-0.0032456970323474256,0.03714117350742577,-0.037978269518008256,-0.03910529011000724,-0.03643547744420083,-0.02410212799103782,-0.06909950141376456,0.018523724334385164,-0.026296140562503602,0.08902006116590183,0.08138083773916746,0.0014288976956002646,-0.0582931322066102,-0.14021829345451034,-0.028120760218414916,0.04862464249866387,0.09390792670727029,-0.025648480323542916,0.03369363621407548,0.034408553191740215,-0.010872254585728228,-0.050765214136950725,-0.0950460087071352,0.0028880768166391624,0.09394214432224227,0.07877513126840271,0.08285117482088239,-0.005086521750350256,0.10413731441632565,0.0038385609583358737,0.09641803823205493,0.10847664891757815,-0.014470042763968323,-0.14179428430671973,0.10483695469004826,-0.0566571269777361,-0.04935654340435482,-0.02152102192712782,-0.022093148669428776,-0.04147384502576086,0.08402011394745748,-0.1199933545471499,-0.012457199906947453,-0.003875877588979873,-0.03682558355014612,-0.030798975329843204,0.0477138807212965,0.005433270950193929,-0.02155805869438425,-0.08930741051805624,-0.05843329694762658,-0.0017260845106156913,-0.019258355553989758,-0.0029181514983167567,-0.008823730188038094,-0.04606954630802258,-0.04216337982051225,0.090213195080901,0.16075758063137816,0.009397465482578828,0.11388003675400495,-0.025236336436682463,0.047289538623208185,0.06016152210491648,0.002140771683092486,-0.019150343882383167,0.0399213309324843,0.04245632551429329,0.028550784515197904,0.0010169165244952641,0.11224479656932655,-0.01647739986579826,0.21945995113662498,0.13075003922787262,-0.04789182093587345,0.09722431301062018,0.04915918101226665,-0.5252226400476232,-0.7563419997430476,-0.12506670471247702,0.06952122565101113,-0.3964567485883589,-0.3313913991889451,1.3348551317116841,0.08672081880217501,-0.6038146354171572,0.12088966674396938,0.2959403212884644,-0.2140487432900886,0.005906132216302942
34.30154800415039,1.6586036682128906,-0.014401397579181206,0.016823768964871956,0.070742954683254,0.13244412280247414,-0.05493902553395287,0.23517309419899365,0.11047542824244777,0.003783613675358441,-0.015687677254561272,-0.0450129780537811,0.17814561658698974,0.038395191128677834,0.051799678604770624,-0.001355223161443285,0.06726351944510646,0.11430520304315292,0.05066357596308357,-0.022399987320559575,0.022222603384145254,-0.011996311076059463,-0.0050119154335576555,0.004797941411580971,-0.005163767829391412,-0.02665495775702009,0.003765094926774671,0.0687790900322577,-0.00783700706049716,0.014720959647623037,0.026442555973692668,0.03933364187034913,0.004552391686172594,0.07086341013503451,-0.030256283921159824,0.003977321421329043,-0.05465894124016743,0.04885056357443299,0.0581020276939765,0.08558352290322882,0.012792609219902216,0.14315169495492,-0.070287812875886,0.22861707456962008,0.11903477468103116,0.23654500720180943,-0.06731517885398164,-0.08601036014717217,0.03910030936440511,-0.1129116920782712,0.07355066962376132,0.018855172019681992,0.015980016244438913,0.07076121737374141,-0.11712408327564147,-0.0298333869556493,-0.08897598441729519,-0.003938515960692834,0.04653303979714977,-0.03615692619146489,0.0034106498162193304,0.03356572819264701,-0.00015917385666262214,-0.0045372153857518895,0.028266365973679094,-0.01563428889848363,0.008204536358625213,0.011232415598342704,-0.10256556454619013,0.031262376326333545,-0.22125493312998318,-0.014704219472174693,-0.03075691643700605,-0.008646853216222251,-0.044777302673176075,0.046267402813948214,0.021415767547749456,0.044813687154129096,-0.061867441828793925,-0.048268568942550806,0.05886424885995378,0.04444349636180013,0.26000253786502553,-0.53502414412623,0.14254932902750272,-0.005236686324607357,-0.3316075277929194,-0.26623067145708884,0.19865991510183928,-0.13311330262653706,-0.05584956055670129,0.09739527191696415,0.6672742886260347,-0.28684963892928467,-0.08316014137506889,-0.33554789125091145,-0.2409644049280543,-0.17588264869703069,0.09724051470074019,0.13203297466098543,0.08968475357614192,0.1708842290724144
37.62825012207031,0.8288993835449219,-0.0451194587398506,-0.27521707685397945,0.26041890384855404,-0.08431546936038439,-0.0035270459472562243,-0.004397478805821253,0.1680304594124915,0.08409077324323182,0.03930303158761761,-0.3598598993123911,-0.2055520890791123,0.015802066845967078,-0.05996004582650878,-0.037646577342937346,-0.11983856435542317,0.015313274626586618,-0.056522403214263564,-0.09419285786370189,0.08603273202389547,-0.1870970875259872,-0.02974736427732913,0.017422990845148492,-0.0680927809925474,0.046475009288870245,0.02835654366606203,-0.04627076493638577,-0.05262482894191714,0.005775648041374655,-0.007008611196415219,0.005428705763023748,-0.09867088222292907,-0.11545836897840075,0.004567418140962235,0.033192050176500655,0.087835334774313,-0.026118123133706934,0.0013940705921607684,-0.0489410466644327,-0.1565434610183342,-0.03128587206677123,0.050131838182316986,0.20910704645378994,0.030343442201371845,0.4191352866067034,-0.882540557773217,0.38298321573986693,-0.30733793325512865,0.2064791031972284,-0.07977870735623198,0.01727971424065781,0.006607268222184822,0.07627682120818569,0.020749977964757187,-0.013280560314585382,0.05831716701207609,0.10395154753973311,-0.03325625213992397,0.025480217687646713,-0.010761307488563951,-0.07652018164225337,-0.02512959047111554,0.060277354395801105,0.015788044878086174,0.018016042854212447,0.014963459989848157,0.023414764856844062,-0.06031753802985333,-0.06434815754430302,0.029739700305388365,-0.04412423596077543,-0.011751547221503133,0.0028037714306429215,-0.009433506024203286,-0.152741328249718,0.08816881511023984,0.012067866253490432,0.005736494298030506,-0.003398718901105189,0.01332425324726505,0.022314164819512764,0.04447369286509196,-0.2901695009437688,-0.01445178223632564,-0.29531853230969646,-0.5988562493396328,0.6785661023025239,-0.2332001482607488,0.4271570919384975,0.17636287899169895,-0.5653917998182443,-0.43060468888475706,0.37254929553949345,0.38066239784453504,0.4480074756681569,-0.11130604906559409,-0.38475660302318027,0.1226784931258748,0.2632367680890397,-0.2195815221402707,0.03102446224275155
38.457149505615234,0.8389015197753906,0.036505510208699646,0.13194440167388927,0.23714965313438272,-0.06295269379472283,-0.06182775946414437,0.01938578763427315,-0.018078545730298712,-0.10711132149747812,-0.05938593956453102,-0.00943876787046687,0.03880338580843079,-0.062277517861671496,0.002166217133335596,-0.04532665648102263,-0.009847370430937084,-0.06295760805845327,0.14975150370751567,-0.1160618678072353,-0.0035289971377074087,0.047731881793503406,0.01748924769084599,0.015520499649274969,0.0018673266307131042,-0.015122348623775693,-0.013268294111238137,-0.0009006408381112963,0.03827738642862033,-0.014666032216011501,0.04760296024484776,-0.008606522429550432,0.02526917261174503,0.07934218297074604,0.1065343374465125,-0.034003786161365845,0.2083129884560564,-0.026153290340025254,0.024780117228024645,0.05131105636724935,-0.05752048634852338,0.03110275152303602,0.036467835415027815,0.043070805434131956,0.04035943327931284,-0.19644579567980539,0.16466442684575433,0.013231150083214571,0.1538198002294655,-0.07124999980813679,-0.02075711329823582,-0.06896531281787825,0.0002196090018896854,0.03536489676303677,-0.051368693721973384,0.014880798876117433,0.03891950381645612,-0.024700382060583226,0.05940010410631652,-0.015133656389417011,-0.01241076063869856,0.018395359179274942,-0.06747379379966456,-0.0570203042921697,-0.024675839125670753,-0.0042593679697879505,0.0509005592879619,0.008449004247238986,-0.058268397132521854,0.03152919636782094,-0.11236046020071572,0.2731468575770721,0.012332314429272233,0.020883641062944408,-0.059423534184546795,0.007784591125794776,-0.0225452840402001,0.15166812314633038,-0.12915530481601217,0.11704896650440251,0.13855171971907104,-0.001763504592064244,-0.06539816638538858,-0.030066267038500634,0.027749723190337076,-0.16235302978545707,0.17900791404086538,-0.2245866240536658,1.0385275033379668,0.14889537417474152,-0.5172676888762191,-0.35745976933425316,0.14268542773928067,0.09590267582936675,-0.5054052883411341,0.14079964468535142,0.9282956802863563,-0.5800036368791122,-0.24220040876845012,0.14690442868833187,0.3244324984732496,-0.20147026473318075
39.296051025390625,0.8192977905273438,-0.47400303198662097,0.048806971212732045,0.3222797032363284,0.16764372568055536,-0.01184664453043563,0.029250036714169113,-0.0029192090473289683,0.21516597354916664,-0.053632610826363766,-0.08297514222197114,0.019052326686530133,0.0031115439300376663,-0.0029740230837247555,-0.12253475190626312,0.011613946791696545,0.014741361942206174,-0.09346393447688009,0.09785196545824042,-0.02643744845221566,0.042880958879969955,-0.007389018408578833,0.030661428704057043,-0.044314824990844964,-0.08801645453837562,0.04419051205599738,0.034669126119423035,-0.021631273153653336,-0.13032895136625652,0.07181451936196864,0.0027301658611863597,-0.0045237309486681745,0.05484983142504238,-0.056985510049688826,-0.037886218843306535,0.007472676494763908,0.009402592311752566,-0.016345076927494026,0.0089182892090387,0.04547179988925211,-0.012254125899513468,0.04904051029152434,0.04218811894670135,0.15708922638673353,-0.06274713813377622,0.15590946823583238,-0.10225558059795063,-0.08826278570376975,0.016519877592793122,-0.23500284233864796,-0.045540711089449806,0.08508542861384494,-0.02028111960144498,0.024537618529628488,-0.16338846217977288,0.04953114219233068,-0.04825767338120135,0.12693752936329597,0.0684218371594794,0.09015651686953556,0.032526237573985706,-0.0002845446174302409,0.05173263102252799,-0.07726153181091618,0.09438266087203187,0.0006882424761988359,0.03367052811856805,-0.02446901083488576,0.056326563020870545,-0.13378760525427383,-0.18323177596066595,-0.038139692429204716,-0.04656312802760193,-0.11371048801651647,0.12867023216917736,0.043687703392016455,-0.00546090626599477,-0.05541168407924599,-0.0134981399987113,0.08688567252959119,0.01162645438551387,-0.023653731696222174,0.06401251218057004,-0.12560923856709114,-0.1887529835589521,0.1311433013217437,0.2787592074171585,0.027687799233333373,0.19186901133602965,-0.25538593442958896,1.2295268714032856,0.08846632471060188,0.4496976014847339,-0.40677999735152415,1.0273174313835136,-0.6634180648404904,0.4664154407246187,0.4895825045681934,-0.3850608404135231,-0.11548520011889142,-0.08088541174118269
40.11534881591797,0.848602294921875,0.053719284429763564,-0.1246883218179052,0.08411864073336237,-0.16868699926440356,-0.01831075707482076,-0.15676185852748584,0.08150756632960482,0.11442553524325168,-0.02288971217872583,-0.09668496445786784,0.038935055540044367,-0.196464366250952,-0.0584415945188396,-0.003595065664333248,0.030618207165434334,-0.01129667174352042,-0.10631266872111318,0.03531813148390554,-0.4030166007267212,-0.1718810678005163,-0.14138795448454355,-0.02121597073155089,-0.03727059946459393,-0.00045392075533829193,0.032315636360211286,-0.015674734234698545,-0.1013379272992542,-0.023677326228796973,0.005905091788989777,0.006042654904131042,-0.0068890248067632505,0.014850387941392896,-0.09795694883524037,0.015387086678315759,-0.0028761229092677605,-0.09531907619195948,0.07093823071315769,0.035957072937534265,-0.050303621824640286,0.056913610683026146,-0.00343015695274047,0.06371718821380144,0.13016661404595417,0.28636501524967695,-0.05831839640237707,0.07262453857849564,-0.0049798357430201725,0.27496278904826926,-0.3969080312684657,0.0803722666862026,-0.1355838944012598,0.08054242895189422,0.06138655529164561,-0.04592034033363372,0.008337518455308683,-0.058354261930983704,-0.04694626281191347,-0.030125890704713568,0.02668583155152174,-0.005062020740476725,0.02538370239611837,-0.01287567883252394,0.03364333268479709,-0.0036327934964471504,-0.022743244307299584,0.0036028443224241646,0.06390128122393358,0.0313294359984828,0.03083141746363558,0.000187860373481538,-0.08101721667540107,0.07489021940092105,0.07794376698014291,-0.0572332075078667,0.03770458887454858,-0.11289527121014617,0.06333459787601267,0.007729799172618495,0.007205485305828973,-0.05603068403642014,0.030500656100761647,-0.14524746142906214,0.004275033130721112,-0.0002676516146177055,-0.376121736446027,0.12177731877432438,0.7246401914879032,-0.3673753912091762,0.5168408829584763,-0.42002105316733557,0.21374053425498463,-0.6205002907196245,0.6844582813918175,0.4772914211271516,-0.19916906754921276,0.08125746376102445,-0.19997155269462769,-0.19425269216739213,-0.20668377875315225,0.27091911072891517
40.963951110839844,0.8491973876953125,0.16375336399769466,0.22777755250345805,0.08154982213563321,-0.01676005648023553,0.009000854891867749,-0.13776568005026568,-0.062483908449762725,0.13333577301311478,-0.26146064000641955,0.018937710467768723,0.08444423764146594,0.02638717016029167,-0.11605731898107324,0.19350711297330195,-0.04248756085818536,-0.007950656524107268,-0.0022968574910859824,0.049430151593633995,-0.031926565874413525,0.04973769781169446,-0.010053533138290998,0.011544306750661924,-0.020215205608816993,-0.01336076404991847,0.16167097115932322,-0.0361592715295719,-0.010666925111164276,0.07194607460579572,-0.09503549779954634,0.0036085804970575146,-0.0882530287195732,0.02226026328821295,-0.07675400778462742,-0.002939784932310588,0.02696132348109393,0.0431489097998061,0.08781184951193723,0.0011564614955401383,-0.0091592923315058,-0.024597542208511625,0.03481727340938563,0.00046190666468325526,0.016820170622539987,0.015552422609401463,0.07734141372024704,-0.032977340120092874,0.06123400704144451,0.011438781176391206,0.02284217954604808,-0.11985608982244385,0.003526922368798219,-0.10512570041918892,0.03796430393126145,-0.08153734117130704,-0.04793259545052865,0.04775266396834795,0.07643083675857158,-0.006397323308218274,-0.005701221637286753,0.05685335717487238,-0.04188172571188516,-0.019626506480617513,0.01896984754712777,0.019256672193923685,0.20577341687341177,-0.36637026841075465,0.25131157909316043,0.12226947084424344,0.2097661579548259,-0.19502784015249258,-0.2129634439581744,-0.0010076102221673391,0.015883780912562442,-0.1324719967514845,0.02202228765971899,-0.3958969298428219,0.037830527722209566,-0.05940796869888453,-0.02250107308720038,0.0059624085921868315,0.4878536995672415,0.00822573372455937,-0.09969270852826677,-0.13128851171947958,-0.08746761289386329,-0.040349758277315254,-0.08412481942938257,0.33578282419844185,0.1517673940981498,-0.10534271220062535,-0.054074316493337965,0.3305291106247614,0.23629679891052968,-0.23293206188531246,0.8611412612650415,-0.0038582489344608506,-0.010044140660721929,-0.6380840381153895,-0.6808916386301662,0.412366381737862
44.27014923095703,0.8094024658203125,-0.1917905779827105,-0.09835129669788166,-0.05999199641990019,-0.3819727636898906,-0.3865909188571192,0.08461348399957952,-0.13293539082235212,0.09922139018968582,0.0017712775598142452,0.28240522821011327,-0.0024529735334677116,0.00565611837657385,-0.07579037331532557,0.002181184437039377,-0.05082567585960418,0.010155557477719832,0.047078935883905916,0.004571311958825537,-0.010823221017998721,-0.03154350768319542,-0.051124735193750936,0.02824489862825261,0.07137878222444785,-0.013323222988112214,-0.013980407326818354,0.0030237208063593375,-0.10692849947340258,-0.015972684317462627,0.05545516138152387,-0.01378788789181611,-0.002666394693929942,-0.06614431299321094,0.03834409433052176,0.020725423123353796,0.03174894247763023,-0.18657337422761683,0.04008768613158867,-0.044725141223470634,0.04364296470584614,-0.012322794202902942,-0.22497549779822734,0.014998453588869802,0.07158903083739238,0.15012003501913035,0.3311137052629817,0.3849851875488729,-0.07297392663566443,0.15136777275968388,-0.15532246414930873,0.06936365216475687,0.009789757826897935,0.030703248398542,-0.11158868560884033,0.04955967403358979,0.06309181653599787,0.05293635880821515,0.11488124783308643,-0.0825593342157143,-0.008558959559460547,-0.024311708342670872,0.15214114600921502,0.10191136811650675,0.049926270650924774,-0.0003882108433924097,0.006116514797450984,-0.007371355139034929,-0.14897964743978528,0.03577666589491758,-0.0721437107074159,-0.04105897108607094,0.11711343026989005,-0.18049036614498354,0.1195446105504364,-0.29909047433801333,0.0949426624558721,0.026260285195963996,-0.1942430436373993,0.08578284834161827,0.00327125589722876,0.08829447531927997,0.007442753328432125,-0.09047036267335892,0.007097463368850018,0.2799478432308796,-0.45815172001869864,-0.033589775763493944,-0.020046984534111564,0.6886153640156019,-0.5162995283377696,0.16459765154569736,-0.2758515735069134,0.4256027945908203,-0.4228451646291215,0.935639240949282,-0.8712133920655165,-0.05471527151445623,0.3623333853509493,-0.7449742124729692,0.6005734394968393,0.6286907340369805
45.079551696777344,0.8288993835449219,0.46126905181755445,0.000594388735503527,-0.010992877307002134,0.003525105039329929,0.11317995186841079,0.029227906283027863,-0.11805309011224965,0.16562118633438602,0.10450091153387417,-0.02166749637895791,-0.038480896646437876,-0.03928803980056469,-0.08186086777088927,0.08745375983839836,-0.05589455223622579,-0.06618863081500187,0.04955364931929527,0.020514951432728277,0.09866596379490647,0.0761738111597527,-0.14735745795003113,-0.12743377896708358,-0.008243688220141685,0.0961960237139431,-0.025104894735465733,-0.06541773452871869,0.184103174451667,0.1561570971955366,-0.017257662699524202,0.01264623697831015,-0.025642539343656085,0.11966968083128841,-0.04386675714846219,0.01617223520498186,-0.004485153428013673,-0.0037209852812822245,-0.005087877959482623,0.13837501183580572,-0.04104093063086499,0.0012849567479773887,0.08534574367696901,0.1396502761940578,0.08639799956407575,0.03125243808114463,-0.2754432948414312,0.08982962504313192,-0.12656512378729023,0.15126998622206622,0.003172256407444604,-0.05182259317201604,-0.08500272343505672,0.08220585127640362,-0.06610028571048181,-0.04169408322968092,-0.02989716870700667,0.061862394820226714,-0.0019182037195632218,0.06621444515182683,-0.04100574374495659,0.05573409995789219,-0.020866340395640445,-0.028431189960135238,0.0706416207289913,0.09036142121086246,0.01176732889790684,-0.03206784677581476,-0.16010090585643025,0.006217377318276034,-0.07992085902232353,0.08979849978930736,-0.10648065632535711,0.07437112331242227,0.010393788676403289,0.026400399470240803,-0.01777499517335148,0.002704906261807841,-0.028857066092264735,-0.06723894029505804,0.043420190670980664,0.12366266632327565,-0.01369215289744688,0.08368779996588367,0.159976413362706,-0.16958438638668702,0.18924256906062775,-0.00287298822084886,0.35357884835939074,-0.4582498926145309,-0.0988196357074243,-0.1340152760534802,0.08156072625003284,-0.27777766192133607,0.1717884401583671,0.10657602631336059,0.7026423293464867,-0.1413911234534124,-0.3769525659955482,-0.530027722069991,0.526918620276092,-0.5720904393490203
45.908451080322266,0.8286972045898438,-0.5495986940289606,0.12206798271920899,-0.22994175679800105,0.20929149971701536,-0.12440270300211899,-0.02136683445021144,-0.01535852083505385,-0.06993798806511649,0.08520320331501291,0.017118432424540916,0.12456131101856757,-0.08150846501710343,0.0921302243128324,-0.08740375495541579,0.01013578094592807,0.0025761797763538623,-0.14435112681649223,0.04258087052262631,0.041198591365879424,-0.0062348714904807475,-0.07741225040988506,-0.0029742442505154426,-0.014513166512409147,-0.0278313067694744,0.04681101413629418,-0.0020798184115857275,0.03286789241902071,0.039391157726148,-0.03826567292127581,0.00813423128705103,0.03465146433233166,-0.04523550188616836,-0.08596921162729167,-0.07907818898687947,-0.04767843705712168,-0.1475403605412827,-0.022607115074140042,-0.06515489695775913,-0.11314900612675156,-0.04399557922116075,0.052499874992010614,-0.21274332425172676,-0.02872503129413108,0.1698947119542254,-0.3679339670937769,0.13032851183337263,-0.25349003395682146,0.061314468941683284,0.09542413916807756,0.10736978555283287,-0.029734571127204075,-0.04860529225204258,-0.040484072424973816,0.040083684228595456,0.013450005293954483,0.025237778287106962,-0.03549679070485919,-0.07753134823928218,0.025264097339529515,0.009678439959337962,0.011047582796703804,0.03501865444113417,0.02376758826058095,0.016605829505274745,-0.06323017905183453,-0.193482109085074,0.1601214984502859,0.11117171854505548,-0.19185705961313226,0.08581660668316048,-0.036600715710274234,-0.036514800142789364,0.034936801845676664,0.11843246524758032,-0.05963546932126303,-0.05690616978897421,-0.0076823731932717625,-0.020850391072383907,-0.03462920233123338,-0.03281527760586897,0.04682140883247563,-0.06176727379676178,0.026633371895870527,0.11406259717391799,0.5032073963334567,-0.3595124898048198,0.022902430160818513,-0.13586324710057918,-0.20245665987203032,-0.030713227960013755,-0.4872368242497927,0.1233055054817027,-0.3284084931269276,-0.4267163695587023,0.1530612228994659,0.008800170932213105,0.8133421822013258,0.07469484310870945,0.049182467241132066,-0.13029086779066204
46.73714828491211,1.7282028198242188,-0.11446411631488239,-0.1644228851059936,0.04501127677589567,-0.1837887285867007,0.2802474237594963,-0.03787148945676158,0.06945132654904763,-0.2975738023575297,0.11517395116943895,-0.14288854649741545,0.06801536547733024,-0.07330630578895159,0.03366023659635525,-0.04720719951837321,0.03283821786711632,-0.04254156596934749,0.006760834116742359,0.006739320107490912,0.007655401254833452,0.0548628221463166,-0.013778246683210149,0.034893430478858824,-0.011212305330655155,0.12297226157514492,0.07243202878113837,0.13978338787380892,-0.1411842275272376,-0.10644835155894683,-0.03375442100093945,0.060478088848989114,-0.007506353940198299,0.050167554430436814,-0.07909753946624182,0.0018542632231780959,0.013055458602775068,0.042399605999762835,-0.03135705730490008,0.00042630321980651614,-0.08578994502889808,0.01627025157602948,0.044282217613095434,0.04606231726672852,-0.018342584015595388,0.0769573559965692,0.03721719376955624,0.06250437501160075,-0.06824472660035641,-0.06943690025451571,-0.0019911804742924655,-0.02630970819032309,0.025414190627156177,-0.0013964264595877163,-0.019553339026823113,-0.013762055887794805,0.004570439963940281,0.04000098557363736,-0.026094794982126114,0.12786155346507933,-0.0006614284824984096,0.04217789242600014,0.06481415011947084,0.00815089545358138,0.032339630561628384,-0.07254389390222907,0.025260915455060155,-0.054341177031008145,-0.054257463314601705,0.24301638892865993,0.2335086678126483,0.01465163934957686,0.017338042178099117,0.040402766874228745,0.06079609527200788,-0.012814520168770384,-0.0023035937564706457,-0.02515513008485204,0.023080534207810588,0.03510602356711194,0.06403350446532356,-0.015360610532246037,0.28101928626421285,-0.0394387505509578,-0.22338463470786188,0.2851089092476991,0.10595451364606627,0.01562848469347501,-0.438572683094656,-0.1346627788748293,-0.39157945382773246,0.3344786674306629,-0.33395435723564915,-0.19674060582019762,0.050665734034737356,0.3725380921688597,-0.11110177527712112,0.06761542991819947,0.3530507733563315,-0.3015553364171197,-0.04119069484650105,0.37622493584934463
50.103851318359375,0.8190994262695312,-0.4485670050606906,-0.11440430977856592,-0.03763841751657348,0.17089399041829706,0.029345229420727384,0.08615003045319451,-0.17887270034183986,0.10535140725978352,-0.07194079106075775,0.06554849759055284,-0.02938416352569012,-0.019908722213602938,0.0920284829883316,-0.13703468387406786,-0.010245564536992848,-0.0327697658674032,0.03628042387194846,0.050736482526018374,-0.05618724065078813,0.11122065748962347,0.005664865361239567,-0.02182255243642564,0.015187670042372661,-0.012450072752807847,-0.03726690439123886,0.06490711753151573,-0.031430093699205124,-0.0010636576508420842,0.09540001676549986,0.08454628672134819,-0.1004197133063148,-0.1888995132815794,0.035736639800452386,0.0005663330110661103,0.023661962385377853,-0.014578367420525234,0.060932976131622484,-0.022170711221649535,-0.007854768010758156,-0.11053097488532039,0.10603116115574819,-0.04031061596502135,0.02393827101160867,0.11363080920870208,-0.04245636247927292,-0.06932110118894416,0.13023099080723016,-0.022092195225498646,-0.015414130770619126,0.051942001283473566,-0.09385211732148323,-0.15098207983435766,0.002488556112815022,0.04926164294261415,-0.05706835351517041,-0.03830329370060661,0.05046675634646705,0.005530727093820675,-0.06124849620423169,0.05793345526429934,-0.12000854536829553,0.02543744126860511,-0.026232543107436095,-0.008298620437574806,-0.023674323843628275,-0.10511136103591266,0.017596053560124496,0.18583649182021963,0.006292018793852577,-0.1339276844800417,0.05976639811298818,-0.038008669950546865,0.08585668338029889,0.015102320522928104,-0.04628126318147627,0.06107168917162908,-0.0545421503029156,0.06718631091555241,-0.002313417333568002,0.09843985812085862,-0.09431402256998316,-0.2011082189029921,0.21371999488110383,0.17769443310794214,-0.12059092628741187,-0.19752800590355407,0.11392837734547172,-0.6339142215448583,-0.04881970412693293,0.39667957803659604,0.17240249766584864,-0.5446462903782455,-0.47359104378839045,-0.05753724551789251,0.29906541258706976,-0.770823616193212,0.7908186692481809,-0.058952637336677896,0.3645811631910566,-0.11038608987361509
50.922950744628906,0.8188972473144531,-0.08125472351381385,0.00802019065574476,0.12734627415088756,0.12210891925141037,0.16258755820927767,0.0941378560050621,0.02886009040312167,0.0845956347686532,-0.2696928744982149,-0.01736859033719927,0.0436735483705471,0.011399564713656017,-0.05312864047011792,0.06990282121202541,0.010744447051525725,-0.11582709538794345,-0.020769309260369934,0.015266994927366481,-0.0017047014370781995,-0.08840396496785517,-0.0020302068115681388,0.049643704569417545,-0.04372900881764398,0.018968969272721445,-0.019578847648160674,-0.045891953885128484,-0.009182764830005371,-0.033229574960928446,0.05573728957082416,-0.03993082917668145,0.01948047054478831,-0.021009371692369966,-0.02407380350683861,-0.10073851113450329,0.02828985797341323,0.007173856876440894,0.007504121373080647,0.044679165089033974,-0.08190179093601382,0.09682894366680442,0.302943856074821,-0.3806521753261113,0.13887802545271707,0.20892884521201152,-0.10485718743979515,-0.07967009005714103,-0.11625964376348366,0.01717961462924921,-0.08957442339002657,-0.014177117109668074,-0.04272136901134658,-0.07075596604656581,0.10328325821474223,-0.06163274750118262,0.035952530417687076,0.009311583061009421,0.036591245371547086,0.04231951021179614,-0.029409598769889495,0.019511331304156936,0.005316939374344201,-0.005605210598095319,-0.025167645633365134,-0.013477472587105657,-0.0018916185793185873,0.07203174678878894,0.13835436631355472,-0.06666239839729117,-0.03665132220892555,0.03828467328360721,-8.221748222972999e-05,0.08866976115098774,0.021282358171048607,-0.0013861142535648086,0.08455913087401978,0.029348717694236783,0.054907649216969764,0.052430356847725054,0.008580909142002557,0.05248832132573865,-0.14721010880827656,-0.07082353637301599,0.06497743259764067,0.26038497438521957,-0.41658312370355177,0.4500040979088805,-0.01179506502043701,0.1300189642937448,-0.059919957783130307,0.2625739620699614,-0.31074825654634025,0.06051870693774118,-0.4201670143558997,0.0595118594216199,0.5459078305056149,0.06962137809941038,-0.6838824903891519,0.04586312651080743,-0.3206439285597998,0.7436872457887218
51.74184799194336,0.8292007446289062,0.3719384789795904,-0.07965332328495221,0.005894268008114086,0.15893999466771627,0.04101862159912106,-0.1228864175085815,-0.042956025590336136,-0.058098719013209545,-0.08687239279070336,0.013184229738687773,-0.13819256332306185,-0.01782241968269142,0.02909618313387194,-0.04983745828884393,0.009851132412020583,-0.04449782607544558,-0.054949534618510695,-0.009984840284767683,0.08691349914137556,0.12553556311151312,0.019701324921224332,-0.008325191099739898,-0.03936813984803655,-0.03765891833701521,0.049907833850121694,0.045290283381201835,0.050469145140527916,0.1382930260263547,-0.13252110708201673,0.08588259096080787,-0.02731190270625669,-0.030427488369010013,-0.07521015859505085,-0.05915394457712742,0.060103215664043017,0.032518571674831354,0.04255667930347311,-0.009209827655688632,0.04213221855203894,-0.06393897348249998,-0.018623466461968576,0.16014370113405724,0.2409207879981141,0.0857880148024312,-0.2346140360635287,-0.034009346141516975,0.00972452463932836,-0.26207469005025796,0.037248597090176944,-0.13348148066051924,0.03403890596011998,0.006808076503785679,0.026324868501819698,-0.020851572723106244,0.011268459601271673,0.010149735599133514,-0.10748202001893849,-0.01220457784700255,-0.07200465525972242,0.005945605640829481,0.003469950209199791,0.0437503382556961,-0.05156255989971041,-0.02326835524116358,-0.004384697704060208,-0.005327362606551688,0.04737147281602699,0.010000208608814738,-0.06300511238148543,0.015185640762757649,-0.06145667303927212,0.047045745611836706,0.0023223535447504263,0.009673847526671105,-0.09975855484222264,-0.02007210328186128,0.034214194626586855,-0.00552866250522318,-0.005636005352266891,-0.023800160219652672,-0.05424919511588524,0.003216721045364031,0.0655163071178992,0.15373539302535097,-0.6628581914932781,0.37127083567293323,0.2822442896360233,-0.29503910083677937,0.14819134588240737,-0.3778429672163988,-0.4296192590607983,-0.6321175310587334,-0.680204035554119,0.03137691055691249,0.08662280506473867,-0.4478593246111965,-0.46361508528700063,-0.4314384653464591,-0.07996544811039782,-0.5357880595783454
52.571048736572266,0.8185005187988281,-0.3953565654783258,-0.2870790870264888,0.2620075898837805,-0.044369613951040526,0.07808100341148348,-0.02499476502353101,-0.04792842006277674,0.023825734145497348,0.13440200566107924,-0.11511304173531298,0.09220874119489143,0.054282936307541774,0.1411435650823606,0.0388954102650862,-0.062006461761445114,-0.024290022098776207,-0.039991615910830426,-0.05555842643500061,-0.08305670235952195,0.05480372207420474,0.05819849989500904,0.018498550414180318,0.0689467502968557,0.050767954782389664,-0.04310156636426145,-0.006646360795281546,-0.029996006420762247,0.036715320499888036,-0.024147724301681377,0.04080715286904545,-0.0021578668161623764,0.024437624086878676,-0.06331806438086927,-0.0026810413640377864,0.03380069435097475,0.03430365994432101,0.002270233140961784,0.008964257351292373,-0.014684159958652541,-0.01423608352791347,0.01659644529114139,0.06803233602208669,-0.07037009360029724,-0.10783950531435466,0.06271936911187596,0.01945037585231935,-0.04299075495876483,0.1702285834358757,-0.05903229371258374,0.17264473116956663,0.10703064889913555,-0.01560151842927629,0.03705028136109492,0.054031117812211926,0.0014865858362889302,-0.009578416996981294,0.049560895931912576,-0.02580418674197379,0.05931172127644082,0.010386012347172931,-0.010860103219353323,-0.003415484376956386,0.02205118189205875,0.0011186467518678883,-0.011849837051182088,0.037126067637038476,-0.018087852041026538,0.12198570858826752,-0.2355962100883176,0.018614720622454457,0.014204979752511396,0.0704675219668221,-0.004812680533833447,-0.09079486514670897,-0.011823608008287634,0.006081031074028264,-0.060094250492073405,0.0012359310221997377,0.04239403196937583,0.0686838967897898,-0.07886753016167025,-0.09294698389050804,0.25114200859662944,-0.41284083095827656,0.09574904131561367,-0.31941600311865587,-0.1860930306459361,0.13117216121708286,0.4588321266898687,-0.21263061538488248,0.04502345460722445,-0.31880123285037026,0.10822942687850873,0.3585759516828858,-0.21956605165470713,0.42873781750984563,-0.5985566717521671,0.28767966519554,0.09162156599176789,-0.05415251622063784
53.389549255371094,0.8594017028808594,0.06611584327295127,-0.11119091094423963,0.04378028384144047,-0.07765907662018157,-0.03807624114376727,-0.24777846422033342,0.057961650181352374,0.12886413266979818,-0.07061251152787965,0.04563621267928158,0.010608269322671945,-0.005841161466023738,0.11011413943593779,-0.08342859065174854,0.007267787382197296,0.04935559504664893,0.04442539005354758,-0.0014710061749863385,-0.02180226190130022,-0.03933932830895289,-0.006554494036155703,0.0889942601903392,0.004768472475981125,-0.003952805000236643,-0.024673846935077796,0.07209027635810127,-0.0578184866576517,-0.019812607764786418,-0.021703851816521392,-0.0143126519013463,0.0007473960762243475,-0.07804287312030184,0.03160597996463568,-0.027022761595122426,-0.0625168274560933,0.09158691582172769,0.07238925516703064,-0.023788541785594808,0.010379548351760866,0.07486169364259747,-0.03961685532313707,-0.0813952853884055,-0.08876567766750455,-0.026990519260331643,-0.012055723874159072,0.15746975696858917,-0.17372581893033354,0.03628966548969273,0.02211018934591859,-0.011761882501442607,0.11041587509709869,-0.0455082470360734,0.04388655812182434,0.019080199313594427,0.04373171761693319,0.04382794448936899,-0.022341180792970327,0.02166024768860303,-0.04145669394445778,0.03375453213369764,0.03894453777972058,0.0041256318171781605,0.06726990780137124,0.04539719425903759,-0.006713305148109189,-0.011773009692161576,-0.09913766208789589,0.2766937942126994,0.1212036628561866,-0.03135526525798251,-0.030938119184057852,-0.09244456167263804,0.09528655581038475,-0.13613971884277978,0.03016235267970895,0.11482719588293075,-0.06990432692408446,0.1932358987247518,0.15404810230022967,0.039491639224013,0.070431804518445,0.13089214085521064,-0.22338788963780276,-0.15539401059003222,0.07347867208719683,0.08086836208005638,0.34186791053203597,0.5015804132572022,-0.5409937034930465,0.12890380238586105,-0.09389340496723075,0.12716132408738315,-0.02824496845935441,-0.14388344230756078,0.7611652140951755,-0.043446707899030476,0.018934209128562994,0.1890256902999252,-0.09211403746434044,-0.08824034230500284
56.716148376464844,0.8187026977539062,-0.09815063062360938,0.09544985676454987,-0.3915502424651339,0.1349589835344085,0.058114773708897206,-0.05281330850558827,0.05478619371778731,-0.18578847165618162,-0.18913236545736795,0.050286256079443536,0.07763559068534796,-0.03209849511859977,-0.1063448277917099,0.08812389592303208,-0.04353663333553641,0.10481673286215615,0.09818048466625333,-0.12182838802930505,-0.030897691585112387,-0.13734939323347792,-0.16022347897220762,0.061367216459199805,0.07345761605260037,0.2861976902902411,-0.47992890593546833,0.03968977151332069,-0.04692198428443607,0.10461003962399142,-0.12279920158052196,-0.06617654859169446,-0.02009082763288376,-0.003727908971115,-0.035703174019671644,0.12016773856285512,0.03445199340004147,0.010898470491539603,-0.03580481218557044,-0.04432029946501233,0.07930275371602301,0.026769358663617713,-0.02127748166469354,0.07003705407987375,-0.10629152821224444,0.06740379821068336,-0.13252093616607385,-0.0029464139377672494,-0.15997652221049694,0.10095579239498108,-0.10595730532846312,-0.02987999106803516,-0.0031708422923866636,-0.08901057008482077,0.03927496873545454,0.12104726406034542,-0.02862211073608976,0.12439622909534792,-0.010370424239873643,0.04754816676169727,-0.14059645051896813,-0.039230061745524174,-0.0275274170848301,-0.09224801591694513,-0.011157129291750556,0.029742511535209973,0.010578808973161945,-0.0155443360124774,0.0086074969947713,-0.10119507124859096,-0.053416145452606596,-0.0671731987658195,0.030092989350449774,0.05765412467211268,0.0017667995960617086,-0.1098983962727115,-0.001571611094248626,-0.061122788778433884,0.0045288201845729995,0.08224755041625958,0.0004693995648786613,0.044765322122615255,0.04885664885702831,0.3352520747780514,-0.09787253602033155,0.019050204516482615,0.10642305326339647,-0.030076129991097777,-0.31913103892591876,0.46245192622815207,-0.40703034436211405,0.08110587123964957,-0.11219222925725791,0.19734072708965011,-0.21563271975077924,0.17282087313012365,0.8959381769747979,-0.032547984758918624,0.1149987869616198,-0.4764632363559922,0.6191619149990548,-0.07005361471543903
57.53485107421875,0.829498291015625,-0.207994370907212,-0.0005790645445170012,-0.23044475976386497,-0.08512186246282312,0.2499629098564633,0.03088755787600441,0.00430765541222744,-0.000641781271743351,-0.1262496902974907,0.02437179491416585,0.02291435684624829,0.1008938340974906,0.009358224353341119,0.015092805645391609,0.03759457805024804,0.06221155590875688,-0.007337610274454299,-0.01998359673796356,0.09117251490262143,0.03001591155704902,-0.03456460414175184,0.01685313383237724,-0.042881143014673787,0.04188446485607761,0.013108102932027613,-0.039442872932317664,-0.0016719610827649256,0.030162503773587795,0.033367017109807134,0.009843088181172776,0.024471698961943827,-0.11403214730890632,-0.028638342138077325,-0.07975072872876943,0.044617898677370836,0.061215171023283,0.00781931477614037,-0.05289127641452353,-0.08981314052076592,0.08961235216699841,-0.0780431479974501,0.07613383592409738,-0.3934267526599619,0.022486410202168655,-0.07338151966563589,0.05300468517504637,-0.11925665797505362,0.1541835353407979,-0.17055303168899622,0.17114708191901604,-0.22922859260923586,0.1336830465947616,-0.11094408741377425,0.029346989678501828,-0.10364654051711635,-0.00999891041284282,-0.12187484262639875,-0.015612203256841838,-0.06683003265908319,-0.04543007269783679,-0.08313113551153746,-0.08814665491923104,0.0023651325764813417,-0.010764010479271422,0.011773795655454099,0.016008042767465206,-0.0732741775005998,0.006729334682934406,-0.03943872744891939,0.06877813424497618,-0.11846666461502137,0.052466028089870394,-0.06044226523419681,0.059223985463612135,-0.11956341713486503,-0.18801124225634316,0.06144790500202043,0.05988641549435544,0.018295340105519232,0.06309772563799367,-0.4190977588944691,0.14069558834556506,-0.0526814583024839,0.1027500772501781,-0.8102079042303313,-0.26276481835408855,-0.10596125429326865,0.6476512642837399,-0.2902547893056445,-0.3383088620114281,-0.22565270427838863,0.06576562760325508,0.3099266064962548,-0.0943673525531621,-0.1940711866532896,-0.19337904364642627,-0.22825241435919777,-0.5026118229479264,-0.19206324926501372,-0.012568126348983081
58.364349365234375,0.8487014770507812,0.013855703198358181,0.12623637578434457,0.05865048787551233,0.08069205072689835,0.2432804746461693,0.04791872229282963,0.12945276356658397,-0.013716673576570804,-0.08169542284001594,0.00027711002650533147,-0.04009911404247017,-0.01668242741219382,-0.010529976940678372,-0.043606480564151624,0.08736654050170752,-0.08691390992039985,0.05423066697826393,-0.11420147256791276,-0.10066826987639084,-0.046656067178102244,-0.0625229569849009,-0.09760541980279655,-0.04771736359017332,0.12881091849998946,-0.036310696311838954,0.30256096872923444,-0.1333751576327957,-0.09034662980210409,-0.0837688050128447,0.12706531260096657,0.03882785230514963,-0.2546842909654098,0.026928750970530994,-0.13938306840362424,0.025976594743616,-0.01691167983241357,0.07425180822461461,0.007559508474934931,0.0786576366204472,-0.014137642167771062,0.2927623119084262,-0.1952967118542769,0.0798871600345093,-0.014370008551962049,0.040206005759521525,-0.11551480119323135,-0.030945132388286608,-0.20122278297071394,-0.0010667732596219897,-0.16614175389537172,0.16328599532015137,-0.019382976299178498,-0.03334196705099992,-0.0516336525606619,0.10791257198213912,-0.01668041655878562,0.010700819152652488,0.04655711711947649,-0.06288211062727456,-0.01007048744818141,0.00944640904578224,0.024579418728650562,0.016827848663434043,0.09041122877501667,-0.006240355467402259,0.05642589417204053,0.03687276701827505,-0.08124336187995415,0.17027089364729356,-0.11754730287563106,0.07999931283080944,-0.06859023909747464,0.04427718275507574,-0.06607863664323443,0.008254153443625258,0.05131839496980287,0.01390759296816414,0.02782036192493703,-0.04555256011044528,0.08121612782853845,-0.09825591591179003,0.024694555292867106,0.2750285684080944,-0.18775355773844363,0.13787529407845683,-0.33435459326982836,-0.015723519445971966,-0.40220303727568857,0.07927582209671959,0.34087109538719146,-0.6918691041758855,-0.3152031842105232,-1.052761541221136,0.852457929392022,-0.04534901794211371,0.1933722828867998,-0.22945621522000298,0.06379675659518658,-0.2866328340275574,0.20073380174071198
59.213050842285156,1.7383003234863281,0.1984683373812055,-0.043285353252969755,-0.07865702839221178,-0.05631264348750558,0.12209569474349491,0.12074109880105384,0.04821068284201319,-0.1398770542621277,-0.08169609860286388,0.011772722726541979,-0.04344669541758051,0.03106308101052237,-0.011760234031436273,-0.06019946921967066,0.014964962550040144,-0.036313229178095645,0.1555068780554094,-0.017356550077870042,9.553500749351265e-05,0.042642771865780055,0.024114233823147223,-0.007592743449501779,-0.016548026597761303,-0.040872157289207275,0.08380969157824875,-0.0031043014003829606,0.0008603442787244564,0.08832850530859353,0.023267957806069352,-0.025033454144605834,0.02573627728890307,-0.01643277964298159,0.008683684120796146,0.004060180533607762,0.025344533539627925,0.04378927969744001,0.07143566378501645,0.04931553076240663,0.010151760347183101,-0.034002816333436534,-0.06193579780906008,0.015895721218820824,-0.04800073964246695,-0.021505745705020354,0.08527063689614078,0.00651005275099068,-0.0839430842617882,0.028107461380636793,0.057653335549920956,0.033500297339787606,-0.02968771758135383,0.0717928224339605,-0.11127016095810521,0.025248719259179805,-0.08968927617010534,-0.029988823652715615,0.0060002149218745015,0.004967428977163737,0.009841515829258306,0.031373154275933915,-0.1095131573891121,0.02114549562558456,0.03824688203989637,0.10162905433600948,-0.06709523754881729,0.06440752279472023,0.11933818329125213,-0.1562282494050551,0.03774664665018818,-0.027457973604712065,-0.005894081624356798,-0.012514887875015618,0.016905948303398564,-0.09569451520046528,0.11115423189671368,-0.019481630784753706,0.12241196301784676,-0.11859797939552462,0.09757790856928247,-0.015623954083362118,0.09475948710305937,-0.05669280486564624,-0.18584596423482483,0.08805242927622241,0.05229934098065503,-0.13789871657320113,0.46723606562043907,0.11804867981076214,-0.25605344865692925,-0.08686599455440551,-0.13263744384742085,-0.14255530869935404,-0.557175479615121,-0.2354059906433032,-0.11300805548474421,-0.01594883984512152,-0.07495721398716661,-0.19995540190978273,-0.026593642236326487,-0.012222296156902845
62.57944869995117,0.8288002014160156,0.01840813895902943,0.026421056380584937,-0.13423549907172233,-0.17315601168546524,-0.11162540677094449,0.29964398582258595,0.11156040348907564,0.10569947695512,-0.0006566219271784976,0.08504153846048497,0.25362823565807646,0.10804947799050355,0.0537972631825233,-0.08404676591640908,0.0760447792985951,0.051172302800714435,0.02864577529748194,0.11290206630549868,0.16855220225894324,-0.05738369310523278,0.007463938708822488,-0.008096124707570568,-0.023714163438310572,-0.053015338632345865,-0.1706281921110881,0.02029849889461083,-0.08027277521993705,0.04815056656588798,-0.031237416381348828,-0.03834385280070901,-0.09965401302303141,-0.01898070707933584,-0.03808925437683662,0.0433622340733758,-0.004822026607312346,0.07053905891832625,-0.00792817082116816,-0.08824221051045891,0.011688453460725327,0.06832396084728215,-0.019028776097230637,0.16539988592940563,-0.09510880991662472,-0.08080126725805552,0.24718796377415053,-0.15274637781923742,0.07001524804302466,0.04364866636430506,-0.0014246185914234522,0.04734184670694164,0.1461430061283165,-0.2821709019592784,0.06219215153582299,-0.044803936174346776,-0.04241214876533038,0.02998788654098394,0.05948172823011465,-0.030142003403823482,0.003991822508120801,0.028312089762837528,0.050820101051484656,-0.04218360946601984,0.05023100085221761,-0.05068742870711719,-0.04007478054939172,-0.038107575821482345,0.06620749255482643,-0.004311746226680872,0.025061793401313592,0.0007005020569208591,0.22651992393400633,0.02476500847601483,-0.03994231431836885,-0.003990607610193651,0.012482076761309068,0.003922135732683536,-0.08347699316818494,-0.10245328861060977,-0.004118186180300156,-0.04984884406856416,0.04368520493422471,-0.009730820304826252,-0.021763420220465637,-0.14635122533203898,0.19779955451102085,-0.011266059415935128,-0.22342169839431614,-0.21910878112063906,0.29703789802570607,-0.1610614158667809,-0.04378128559058103,0.6128147832936988,0.20090686581480546,0.29357557079481267,0.3153678973733642,-0.06261683966421616,0.03483955082342909,-0.40573032967962586,0.06308966647129013,-0.008645997077969148
63.40824890136719,0.8292007446289062,-0.005498358400414155,-0.22482146531400032,0.10726402931607368,0.009449563026582211,0.014830820321271854,0.11812387135796809,-0.21986776445650813,0.015817101463439287,-0.10741670070537587,0.01823076759268563,0.02644635695990611,0.03027377011038397,0.0913609830721157,0.0036827624780670937,-0.005378139281041482,0.05670652196507378,0.07982814041507451,0.013023617583883911,-0.04062823061936827,0.0011897715350595202,-0.0050153609574003,-0.05003726335106365,-0.012889090884566004,0.051496512785592405,-0.08979067680008818,-0.019791887348448077,0.06859695232248426,-0.053176008380225105,-0.0020994555232648625,-0.03645503131812674,0.061974150503612546,-0.0035406517000260243,0.004412429782542755,-0.03831194221880914,-0.0019359607620293812,0.0023620390323709217,0.01272688370732163,0.012320183568490113,-0.024009621084324473,0.04062435981817907,-0.005098713504900456,0.09026163147683508,0.13278212923446642,-0.02311595829868797,0.30293344569769826,-0.1107836570109365,0.02041168063969739,0.030068251576871548,-0.0638611378904733,-0.21288293326348387,0.07374825400726698,0.09409020726231106,0.017554398752348575,0.05394330557931562,0.05013284727744767,-0.08506216316811159,0.1635015895009355,-0.043192051128942525,0.023866062931260257,-0.015903384000807767,0.014467579429282309,-0.055232868104060695,0.010199624428907744,0.09726379034918503,0.01381507727290874,-0.059651768104557634,0.07455152463171258,0.0797165866121547,0.022473731580613755,0.05443831682958461,0.13359192080125654,0.01967000846908358,-0.008060939793982085,-0.08013580288920127,0.11531566052561219,-0.04448731881247313,-0.10788353857716727,-0.01966820756628563,0.06737439819215535,0.0345717565366579,-0.02566303982522322,0.08417928750187215,-0.18943951058724337,-0.22435785569435177,-0.10851758405225885,0.23942003193495326,-0.15617842507608648,0.018697753872500833,-0.08815269014349905,0.22819321580504676,-0.208386508208139,-0.14440378561238654,0.5132350153906042,-0.014212164467979016,0.10081373114377248,0.2799604982465327,0.13548695979296752,0.4072099981613875,-0.07162290637755298,0.48368925378596644
64.2374496459961,0.8289031982421875,0.4638993525967074,0.013096296810082465,-0.6207879705232107,0.05117765765785069,-0.05279298978041179,-0.002838975398152893,-0.142805422379426,0.4881617160346641,-0.17640146324085745,0.19759642313619002,-0.08942312694671205,-0.04083882359228447,0.029218710418954838,-0.005019538308984134,-0.012045563925390603,-0.054864173332727695,0.03734019907098897,0.042193960484293816,0.18182474335006713,0.005163749559817294,-0.050222937834939696,-0.005908488162133884,0.16794206952976107,-0.21768428149574623,-0.0077204929904073905,-0.03137203130338869,0.0761229013747853,0.07652923043991955,0.021491537818781135,-0.03409727222234032,-0.04543931263387265,-0.18247765204351435,-0.014303144812910127,0.05417034382466944,-0.041160462675320655,-0.01014127237317021,0.013743943438279817,-0.02308339870586555,0.07363757259248555,-0.009243851358033885,-0.08317512770207933,0.06923093976900725,-0.08912271202117417,-0.037779576146660776,0.08226999243596965,-0.041173732936460906,-0.1621607130881338,0.08518059157689582,0.3069257746264132,-0.0719244631708073,0.0930703314126126,-0.061060083510847185,0.06794545787709674,0.01419670436501393,0.13643338423297666,-0.11189330807973258,0.10648459301085958,-0.06816554781104325,0.02271719078529804,-0.030321871796039918,0.0221106069025372,-3.323081663088087e-05,-0.11517236048070421,0.042431105731847205,-0.015976012931090036,-0.0035389007418174384,0.12555785708473374,0.005789387921072128,-0.1491686849326352,0.05377019278213954,-0.0987375715896998,0.004431325481764665,0.03374953408589295,0.09137241660716708,-0.04825155418165314,0.053223886549581746,0.021864663900905426,-0.02410301349792488,-0.0452732409266855,-0.004703512941702454,-0.15210355265255004,0.36335133601680386,-0.2374812775591663,-0.07817023049970695,0.39607846578809286,-0.2419836742070037,-0.23407743706281806,0.4111339263594497,-0.15610634525561973,0.48387656413782376,-0.6345595566344994,1.1646329071878119,0.0854139484139403,0.2471430254166219,0.09679582875806231,0.6311784203457869,-0.09428913847520859,0.258629042306991,-0.3484627795220274,0.015637333648087344
65.06635284423828,0.7990951538085938,-0.013162789315050362,-0.29488990778182844,-0.11855229609023732,0.012350495352837441,-0.1491596523626746,-0.0856852525235974,0.07528667574793431,-0.1185783579262281,0.1393531219710864,0.00206911138835518,0.015085965821601544,-0.02189912316493052,-0.0020733385107888436,-0.06856802030738658,0.011137208111171115,-0.015730178491024684,-0.031011493935292733,-0.055540329255988966,-0.010904791255753436,0.02831840444752965,0.01442373696190638,0.029029547305840862,0.017711770230784338,-0.005211677528258573,0.006819495285537061,-0.0090721021452451,-0.0006232947722802582,0.06507225358343723,-0.005033012820537253,0.06433386962394629,-0.01980843165647781,-0.050444889558362946,-0.01095188026245636,0.04590166020990452,0.07204538205838486,0.07721485090423082,0.050128634392986184,0.046337391893922386,-0.05312444178282962,-0.05921571187991026,-0.0669243623409488,0.10806431505494986,-0.09611002458574924,0.09999338885407794,-0.13834912696341237,0.13183479524964267,0.19615977659620593,-0.05813385181322001,0.19178298976377184,-0.06813252085178209,0.01474762308355479,0.09266901160674551,0.013302344843819999,0.016061164513159164,-0.08220637449335952,0.08533701553944366,-0.07346388842784418,0.10841408253939812,-0.027187362879243216,0.0010576691445236509,-0.017744023720267628,0.06758160062095371,0.005942375983178691,-0.11846776940223022,-0.08454633050268578,0.09978507056706688,-0.13044297170285088,-0.07128436483130057,-0.04834245533284447,-0.004114059274397686,-0.020442365628565207,0.06982448716710475,0.00020141005366853398,-0.1445586107641816,-0.1801658716056995,0.02304437633556167,0.12766989494616987,-0.14571405797718456,0.06228074410327203,-0.10141653321346512,0.06193858790752932,0.07519806332300094,-0.206972944716708,0.023395712518001426,-0.3486055923059975,-0.5376461110028709,0.09053306772196444,0.19465328959752332,0.2074876800272607,-0.19210562028244776,0.08493833705132947,-0.26415463535129513,-0.8100226252301582,-0.1414315732765542,0.018358350577113665,-0.13989950341817767,-0.02077894579288636,0.0007287274864571369,-0.20648368201418454,-0.25667572762256485
69.09185028076172,0.8086013793945312,-0.1070428528648219,0.4554767473116629,-0.2536318513106392,-0.28320863413353614,-0.007866770788992852,-0.027256093990476824,-0.10052120191843207,-0.22347279712892026,-0.11945092145814643,0.23097264248299512,-0.01898574666552718,-0.10949082161047625,0.047174075258545216,0.02270239063671066,-0.027887141103279146,-0.13821477785077468,0.14155256031415786,0.09873832510727663,0.05934931417737789,-0.047901847207349496,-0.12573209809675237,-0.015031501378105702,0.004068929379420633,0.03919859135922303,0.053800789982891825,0.030532975312810393,0.029212197128083848,-0.07299165852594987,0.026031958118374,0.003935181466225693,-0.06337433197912092,0.06024442986820313,-0.029497660188235842,0.020015234785850905,-0.07234928810483188,0.04140711862100047,-0.031153582629714627,0.03457314852719605,0.019433557147805026,-0.08977113771191494,0.13093970087886095,-0.09647537682980585,0.08711907509221706,-0.08124866978324022,0.09933262154046142,-0.08081411650433,0.16790388468101997,-0.133509576917795,-0.006654243260582629,-0.03742458633247524,0.06096055754338742,-0.18405331727106633,0.02750759988233375,0.003934589337777947,0.053149701067629354,-0.01699792254661847,-0.05695461916609094,0.07822858511220457,0.01954273891948141,-0.04316119909865677,0.05058304010366073,-0.06287427756078061,-0.011620258574293676,0.09026996706669164,-0.044513017410478355,0.13810699263609735,-0.005476575149790519,-0.010148926346262806,0.0616902885861163,-0.16717423867604775,0.08678537564476313,-0.04712909870843104,0.0002462562626537508,-0.10082160458471308,0.09664602373831531,0.04838749823073007,-0.015893832187819736,0.05259610329123597,0.014602824385433723,-0.13271188729466624,-0.03804234500121029,0.006105262059871488,-0.16007267550344287,0.178468841989031,0.15393706673491556,0.4698816103336136,-0.23028586007785717,-0.4846667283892323,-0.010376655365725018,-0.12185658440701749,0.47824342677877546,-0.24689040549367258,-0.2877318484401832,0.6948978513062761,-0.39342322798947116,-0.4416262109537066,0.43421837622797793,-0.39133824148986895,0.04388442647146462,0.21483499946354753
69.90045166015625,0.83929443359375,0.2586460759166622,-0.3127143817466395,0.07680471129134221,0.09928992171709033,0.23888490319815692,-0.08596507716242656,0.10290723585236344,0.27186172315400176,0.2038498857186195,-0.04217728441319225,-0.22667218175794568,0.11765445280939447,-0.16581286346032317,0.028415551370416042,-0.07818086533014364,0.05669539408102718,-0.15146493704654201,-0.10221163154632468,-0.05422825581460666,0.058645548428820755,0.003300870594622713,0.04810683416918641,0.06566843438309164,-0.09142752741775786,-0.029819972162410183,0.19197425775027335,0.014681703045603213,-0.08586516453880419,-0.06913803031290267,-0.0422843982259795,-0.02687277157385587,-0.1449672729853641,0.0421011594672286,-0.03158895604368408,0.052312332645876966,0.054195705176194986,-0.07728871948691936,-0.050408299215099914,-0.1120236044550641,-0.1046493031705815,0.017821600615162907,0.008967593237529619,0.003722919742673435,0.038701792805222304,0.19079630711300075,-0.09874992182532291,-0.05109405284130586,0.017740160531562556,-0.10282133686683723,0.15319509711720897,-0.061418896803749776,0.17875992858175,-0.029349038748086614,-0.11968776106138324,-0.010297138094643048,-0.014903687818821898,0.11095043760594886,0.04124878585458908,0.08356490897237787,0.02029597056866342,0.06293244796267577,-0.07570591251834066,0.03415087716037775,-0.0143506561113936,-0.012525056115622522,0.020492757189406664,-0.08494800308671904,-0.08138441156252837,0.03049445669088538,-0.016017166765896984,0.012001930491977245,0.024261904393469945,-0.054125936185003436,0.07539828251726016,0.055375942777630374,0.011014770713597008,7.092557399415072e-05,-0.050759697602620495,0.010037597276283894,0.07730901277302199,-0.03314317295404042,-0.17404393358134065,0.49885930798396216,-0.02108972305019946,0.3545861599481319,0.46646487573324985,0.10177279021273526,-0.08221445651738624,0.4278059091806351,0.0657615587556038,0.14529685718100213,-1.0943273399465414,1.0696354826295782,0.5170897908024419,0.6926461885627604,-0.39030732074037733,-0.07191492100277122,-0.18702777960632533,-0.18355385998953752,0.06745398195597284
70.73974609375,0.8391036987304688,0.05359332727961509,-0.12495183712407519,0.0705785566664579,0.25414042492086375,-0.07010046914372023,-0.06360180938680261,0.048458836209459705,0.08374361470858924,0.1414205163794626,0.006976239381675199,0.05567102406780017,0.08786552487382207,0.017011047398635862,0.00365446275607215,-0.00026737498980330954,0.07241411150921499,0.08590153766722773,-0.1313705452928927,0.24806146625891845,-0.11610182062924645,-0.03655920030754359,0.01036075234543243,0.0010154714112192613,-0.06778474916896929,-0.04544121169322414,-0.016405129209918434,0.029478485960036035,-0.02140293592126292,-0.04127032530639589,0.002353243994714155,-0.09908916905567716,-0.0015944297425756321,0.004778761401129266,0.024043240067913845,-0.06277492989209076,0.0030400073764232727,-0.08068867519456491,-0.09843961852724656,-0.0037272391178302363,0.062077819904380833,-0.0665129596236306,0.09700750035746208,-0.04899476976535652,0.14502087044887604,0.050689211398709653,-0.08798818778469657,0.06816105808203457,-0.02483753798786096,0.038839542130340576,0.09181679796995071,-0.007230437103244974,-0.04572816869572596,0.04866160642605036,-0.0629281941008974,-0.07784480891792364,-0.025448915478847894,0.055566139535064174,-0.10555143017228757,0.03316635334156683,-0.07386418281642025,0.007275464956467918,-0.0504951182711101,-0.027696187316415342,0.027373614356151817,-0.12797998891476012,-0.04866829487381294,0.13610586895382812,0.08357252413902878,0.060067650068029124,0.03883274393211698,-0.03208445072290208,-0.03895912734196425,0.011308743791953754,0.02807880464207054,-0.0669277812533966,0.07694098169399834,0.04687689838076203,-0.4046625051921719,0.06849522995450925,-0.05768419029316286,-0.0024417955633906337,0.018281743653391615,-0.0541545324899285,-0.02646175898238877,0.1046170466682879,0.3600066543504252,0.14378998822878694,-0.29517124355597785,0.05885679659253318,0.45197251984137427,0.017530614477291193,-0.08349351270554042,-0.14672596145704633,0.8847378906730555,-0.07069593651132786,-0.06591586853415897,-0.05574641507681446,-0.1550603413991019,0.09516529274265173,-0.08654107192970945
71.57884979248047,1.688201904296875,-0.0763150667115102,0.2490997813779788,0.049935787345546406,0.022557166042189977,-0.11208661925050159,-0.017906064336197923,0.14608091834142792,-0.09578692399681328,0.07761584135988181,-0.008670693374886117,-0.047291039701092726,0.23161164064999376,-0.09557793517139182,0.14073707208402952,-0.14951168441910231,0.008240060248988476,-0.07151801653468826,0.017430716971905076,-0.05822681008090273,0.049561483302756844,-0.023814749979870597,-0.01904014564789375,-0.015075557756469578,0.01713946917909386,-0.017031358132622576,0.034979755854839145,0.01213177927541545,-0.05214702162321231,0.025037013833829447,-0.01491996007969917,0.006161696899976596,0.005396734651324937,0.03486926257131426,-0.03154631133197482,-0.0021815843409745904,-0.0027171452201261766,0.0069963823286838525,0.021218678455127548,-0.031966992699437285,0.029217681493926353,-0.019940687835563548,0.023894696026326896,0.062363320786530334,0.04621105507210187,0.025413522782941268,-0.06347257474310616,-0.03583506588585429,0.0017665784194637463,0.0007240925249720719,0.06862672916077182,0.09741388515517435,-0.11137630691475127,-6.0971077252267025e-05,-0.03412684156174966,0.027347041714011696,-0.006392800087426483,0.0078480789379748,-0.04443961276365615,-0.07899988760373049,0.020914951284783188,-0.023811697883844705,0.03420446457440384,-0.02289693892216864,-0.0013791334275756115,0.06617683617979579,0.1788553359674854,-0.34421149231692466,0.17924650764451283,0.08010271494937737,0.05698086696803718,0.0027147712521632932,-0.08869851106489428,0.026383768685557408,0.15080775105628644,-0.01792902568379315,0.03391531259862695,-0.0016019497017806523,-0.008785187064303967,0.09304909942180353,-0.02662165258503237,0.07099211359177524,0.07615575942526065,-0.21787838318736935,-0.017926575791914326,-0.12444356353750843,-0.04089576512352941,-0.15544916928520786,0.16753317971002396,0.42356421310159004,0.223891611643522,0.26246133347264483,0.08555115105649566,-0.26627876908369885,0.2225634865410419,0.4380879564375663,0.05101645168869371,0.18545136407892504,0.0354398065388069,0.1986930106575248,0.02560236673742211
74.92475128173828,0.8095016479492188,-0.18547290095799718,0.38420946681250606,0.2993746728317351,-0.1695680891705873,-0.4603404601934092,0.0657218787821165,0.20376780630379687,-0.010927215133929677,0.12877936485745897,-0.12395688745313022,-0.12808523447581086,0.010307954244209152,-0.10076899720239949,0.04088642262015182,-0.04197451929729904,0.010118586894535339,0.017784002839098617,-0.06814175648396903,-0.09828189939927055,0.04995361050192143,-0.011364296014089378,0.11919539978200082,-0.005851397712175422,-0.015505758150425163,-0.0110256973414955,-0.016165768186106655,0.17022200034704726,0.032992056980385424,-0.03540936940327844,0.06150020405092461,-0.00012125203386454574,0.1042237616433786,-0.02330365103932225,-0.02125421610174367,0.061181085368705465,-0.03256368989159748,0.046666350092235014,-0.03146218152653616,0.13273543614467154,0.016354577739481194,-0.09686171223391363,0.0742949790178851,0.16903912019824235,-0.10378175058125445,0.22858237677053345,-0.13474072609115495,0.14716490760043727,0.01843904595268917,0.09954390001617473,-0.024342464643822385,-0.06177960044334657,-0.029352718298368913,-0.023745264774635268,-0.01938368848692287,-0.056699282797909235,0.0946290168660023,-0.058782104611726095,0.1376823520605322,0.02084287590700347,0.03058997969682102,0.03501599759926718,-0.02647253199894259,0.022408587586358632,0.06750678673783778,0.0715227646654251,-0.028638860761883406,-0.002662854548343066,-0.28508282876263963,0.14671905687050996,-0.11296555385480506,0.06794862944661464,0.05416455214543442,-0.05177368819152503,0.052354504224807606,0.14957191850838802,-0.17287484726621635,0.2595275019988858,-0.021793719564605296,-0.02196478307768518,0.11447724941842785,0.06799982062383388,-0.018564965255427474,-0.014397370130903836,0.1299176247873439,0.1792534805765578,-0.12704619127525973,-0.5225591056052917,-0.039714183658533866,0.034155180080087166,-0.0849413995505414,0.4623033087379719,0.06835471531027984,0.5784227899603441,-0.4881588240224724,0.5399148103661857,-0.05302585575103445,0.1418245684607285,1.7866762119583297,0.06403052851424201,0.025988989064319956
75.7342529296875,0.8290939331054688,0.1252833554306128,-0.17897741198077124,0.18622185508208955,-0.03166226593743096,0.14273591764010982,0.24153913677951777,-0.3494470506769388,0.04437008606518232,0.16196198626550334,0.10549528382343601,-0.017218794708035556,-0.06680806133514781,-0.036950647500022506,0.07724298837452123,-0.08844334413475119,0.08612026381177723,-0.031306276192313395,-0.08660220573386561,-0.03491219282807478,0.05571242784404319,-0.07949235212908619,-0.03593905041441512,-0.06954489541535544,0.020035431722359165,-0.01821437363892054,0.047634446634511204,-0.011112130045720045,0.057470398784693504,0.02497269128603951,-0.05418408444926783,-0.15270580462822145,0.008846950035888063,-0.018837748734614673,0.09600053933065769,-0.056287474627457056,-0.06088453806350065,0.015116425250301251,-0.02734960368133035,0.050461722851893986,0.028227421331538303,-0.04290427560872302,0.20650466234314918,-0.0015342147560607408,0.1468546011715298,-0.013529804691957276,-0.0340531157829148,-0.04058627340717421,-0.02983870903293615,-0.0649485370050626,-0.11146236428084237,-0.07329237904915407,0.02844358192940115,-0.10648418408804593,0.008863334523996874,0.011712868458373701,-0.026741044768335498,-0.10491710728945391,0.011907655957101146,0.01754611421977583,-0.07521132960422075,0.04682274399582445,-0.03280852141977104,0.018053399209751096,-0.03927531413359484,0.029208662324454855,-0.13346751096626297,0.1423197474255621,-0.0205599889951389,0.05181518929791945,0.0275319412745281,0.051143844209890994,0.09041964755782139,-0.01596636072596005,0.0203749798766708,-0.03203095025177872,0.02146843984531723,-0.11734048125907656,0.03289338407926711,-0.05035178455736847,0.02617421389301865,-0.002336740913905738,-0.02674461701728474,0.059133140280059004,-0.2056081526123823,0.04256558444945399,-0.26949153103362083,0.3615692772512214,-0.16962389381006387,0.46595068846537196,-0.11874962070999812,-0.1314735945139406,-0.09815561381521845,-0.1264479493801855,0.8532989826731177,-0.12840187343913015,0.19500927112551225,0.22108832186895067,-0.6624049062751932,-0.00811197776077586,-0.11767115005474268
76.56334686279297,0.819000244140625,-0.13958746294320762,-0.14597871916497987,-0.05775735697353144,0.003410706642986915,0.011878994562931983,0.084285346387744,-0.22226148025662706,-0.05672669879205918,-0.012108017072362467,-0.01608074743509227,-0.05394059537871543,-0.1508055490176536,-0.08044270721812945,0.07635789683121963,-0.1274719795714703,0.037657735373876684,-0.014573043299183597,0.04961696771581225,0.03722183465540006,0.16246562624562655,-0.04232715376405484,0.040976530946112005,0.010161312715758899,0.004401580958691813,0.03267426754625969,0.2018650300694753,0.00036650263042589323,-0.02725837249798622,-0.053723517007955066,0.003849059224050435,-0.07151626779529176,-0.008509351720665331,-0.002064567437143867,0.04049881602607959,-0.04208027291071029,0.01604863725984727,-0.06226422338641522,-0.012547878242795948,-0.06760900869721558,0.04480265482183324,-0.05818547795439705,0.10742131633633105,-0.21784554108765058,0.16501382134773107,-0.29153910718663384,-0.09578472247175122,0.10403973767093778,-0.14874066702879934,-0.0414581427775629,0.05564137828498453,0.03533227082130593,-0.02509205140730976,-0.0565531530563564,0.03760061551151201,0.009835129042063795,0.01704330610352981,0.0839178643495435,-0.049756108644371695,0.08873159445441783,-0.1127149644269643,0.016841297361555128,-0.02463488911009175,0.05542923361354245,0.030336526685780428,-0.1529923003943837,0.3143312424318493,0.026946290362897612,0.12164733878472218,0.041976916237426554,-0.019823916757959102,-0.114342773200451,-0.021335304695160696,0.01523355158360414,0.05296742834102787,-0.01755223898501861,-0.006257602741848189,-0.06643651998692951,-0.01828641775214972,0.04819530682416201,-0.0024902638502939858,0.0901864116098402,-0.06481107174721527,0.1932517423535356,0.2834498026864359,-0.028387877364273006,-0.4046273882488239,0.07351216238375205,-0.8314459923037111,-0.3657041325758951,0.10038531121108914,0.2739470981661882,-0.7209234455604547,0.02167259154204912,-0.1620710295356154,-0.6004153190093642,-0.3436779124426819,0.022202743326815787,-0.061455732900809155,-0.001005764256670958,-0.22959639597360237
77.3823471069336,0.8488998413085938,-0.2216047869580332,0.13183485891874838,-0.03998573223558896,-0.17908189337727964,0.1094856159876248,-0.08813029549248733,0.1388769542200689,0.031140528831214195,-0.11055320653132529,-0.11823476795333641,0.003469977927763074,-0.006080403600349981,0.20195707054773532,-0.0957313057643359,0.10987565280106934,-0.00948142772444973,-0.009151425989598422,-0.0008933613251760614,-0.054605361919100814,0.027082443544055326,-0.006500068899522822,0.037683396827221695,-0.026625019597917382,0.06896894636401793,0.048675390007350945,-0.06333489693758605,-0.0008867140602312083,-0.039828775660339336,0.014901248909314055,0.06939539316071285,0.04159376650523266,-0.03934615565766413,-0.009670925052350336,-0.07645183232365722,-0.03319671371923462,0.08439764219613348,-0.07294400614434841,-0.0838147073144434,-0.007579428806002736,-0.014568336661890795,0.04376769490557099,0.010753624172334364,0.056357997818706554,-0.021893150115388768,0.15173012485191714,-0.061241194375821456,0.01199855530144115,-0.07256113327837417,0.03265046430880058,-0.04905405678066432,-0.0036042256657809963,-0.00012124855660151244,0.027558173219939825,0.030037056008197185,-0.045941940026673206,0.01629940735422966,0.0030950394837184272,0.025753352775105945,-0.010169046387618211,0.0317605233774321,-0.0032514262315548105,0.09730566834542391,-0.060580597409363786,0.032306369597572444,-0.32322133164820605,0.14566363575324065,-0.13610491530473684,0.04784634117493815,-0.23571032212146087,0.06220891797402621,-0.028797068470610927,0.043362842116410144,-0.06942260749403714,-0.03532836683779587,0.09595564170623473,-0.0826889234724427,0.02737229160727747,-0.029693570220730214,-0.06345010494806409,0.06477444792258061,-0.08270959180311366,0.10566511842291272,0.01690105982549727,0.18626281533646993,0.21837466367363723,0.38324267854151267,-0.2038733249687104,0.04591379331701484,0.46019154450064415,-0.34126071558257126,-0.12056069041764314,0.08631666089933679,-0.12525036617312862,-0.24467364851970547,0.04506197849110982,-0.22878455660507835,-0.44613512631400976,0.4028423298468576,0.001378612885608102,0.10274909903890905
78.23124694824219,0.8593063354492188,0.11165394964111006,-0.16372897323593666,0.23912733294545824,-0.1354588971587541,-0.17872403444309737,0.017322034801601972,-0.06897843154072882,-0.14991418654454347,0.05121020993368197,-0.005645378116288926,-0.135075499187781,-0.03664549590196014,-0.07122078303294058,0.03738061432219907,0.0388055109751125,0.0669720774621162,-0.02009109007288605,-0.04206368181758798,-0.024397949319836118,-0.007542470291486421,0.001400628593770925,-0.012952329592516026,-0.0016196608547033912,-0.022334808801733073,-0.05244590333981837,-0.02388851322169127,-0.005383800652309402,0.007096220845623613,0.007824204087263321,-0.05818133008139155,0.0947079224609838,-0.050168355980496175,-0.002801429728787351,0.008524673050383692,0.04249737908669716,0.08980434145980845,0.05688242622562696,0.0355703856072682,-0.017875346038931955,0.037260818692913866,-0.021550598956331476,0.015546426774715575,0.04301677447603222,-0.11260460391790997,0.12102807553394039,0.11654118093096948,0.050239963871622474,0.004282439029371645,-0.04068907569683884,0.01586137783807089,-0.06167242581014595,0.00661758735253789,0.04661455074631382,0.02386046490949332,-0.021702874874183667,0.030375836974844035,-0.08007745744345354,0.05932565332956313,0.08329759920316009,0.030051233520263138,-0.037264039930961106,-0.01901870638150396,0.061878846780146726,0.018789059255560618,-0.00905778149014761,0.15127153247558214,0.03807847450016001,0.10523801104236685,-0.16403254365107206,-0.07510413681317431,-0.09034341000691937,0.07710083554696562,0.03869613019133899,0.06685565942204567,-0.061663329430054585,0.01752725110819743,-0.07579490364247055,-0.046097780597871715,-0.16018696573877708,-0.10622751507914173,0.03062074599972288,-0.10607942703234635,0.2014236330519607,0.19991563724137476,-0.029562717727026955,-0.4256755371362972,-0.8024446727147037,-0.031170655376113077,0.27200887837137255,0.07390962824876748,0.34237904456095414,-0.37783645882261396,0.06139140168947949,-0.054179193679133035,0.09745713585855395,0.10900199452178667,-0.0156432898161,-0.39313741927836254,0.15198859724557126,0.08917684131913314
81.59745025634766,0.80889892578125,-0.1317246795153848,0.3316158059147967,-0.5710771533108173,0.29265236747104717,-0.15360033924904756,0.15471384913671493,0.011554104915608618,-0.06017427988965622,0.10860371209144429,-0.11535575007450184,0.0358928280878977,-0.04482054986852526,0.04271533963383062,0.04976572312223594,0.12904884518717855,0.007194545630200173,0.07882557533271375,-0.03412466991705962,-0.0870608399128292,-0.06270159704820133,-0.0007774581330227334,0.0005260905861007195,-0.006334101029088693,-0.0060471002599949,0.0037112629416084773,0.075713522013682,-0.005166636903340127,0.010811866462460285,-0.02317629835999347,0.04543858022132973,-0.05287391113942392,-0.0021464890196744666,-0.10326301443826034,0.034464423332439556,0.00014602019217072873,-0.017412505709912027,-0.04755090557069638,0.0705797283863608,-0.039586932037781596,-0.05105813627173797,0.025429052512315947,-0.03972650924553268,-0.0004960595146065727,-0.19417029343153486,0.17476875031778336,-0.25076655941469705,0.03729992279063794,-0.1977168004589489,0.198637583308432,-0.550582986534669,-0.00923466060657721,-0.10514006793714539,0.04415916297544587,-0.04872896961392581,0.010138309628123114,0.041724869241083845,-0.016359465538693434,-0.06016212168163904,-0.04194798372037819,-0.023100755708892265,-0.0047880670332035545,0.013008618959431006,-0.023989782683083563,0.019873638810279936,-0.09589307626463277,0.022801160644803996,-0.05888446272126999,0.0369049886960259,0.05033800976299253,-0.013599158871912513,0.0402836503242899,0.21376707242649146,-0.4008170250208759,0.06891944123803598,-0.04727645482243835,0.08502520724917091,-0.1090962950305469,-0.05914120513164099,-0.0271720749798394,0.1278222294654909,-0.13817270215362337,-0.3949182563821978,0.1852189467341162,-0.3758942344907086,0.22596092355744715,0.687095583709212,0.07690297965845805,0.041301890715685775,0.08580587797043013,-0.06145038959419069,-0.12546144150825866,0.019179444884108304,0.5934206616584627,0.8534433935437361,0.019745364179544422,-0.5586267796876438,0.21000075560595582,0.28024331554678644,0.0407180225412564,0.07362409387781474
82.4063491821289,0.8190994262695312,-0.05309256870328233,0.02286390342859894,-0.18980768535031994,0.14520412136058114,-0.34547709810167726,0.00795725165501922,-0.037664751441965696,-0.06046316933276557,-0.1644161221944834,-0.008917037127659136,0.1286838393984539,0.06389833113002881,0.2594084549003799,-0.11202886162938662,0.039638982821667945,-0.008232036898516634,0.003032735941413154,0.0218454358483913,-0.032598280981989976,0.11661641767172198,-0.04291809830428292,-0.10072801023218379,-0.2510920797368446,0.04775326557555538,-0.0029724516459085307,0.11775822788190499,-0.12275484537712025,0.006376661569841048,0.06230994917349559,0.00388722138820591,-0.08889949987462904,0.10267332460417805,-0.01172012520652035,-0.0066431171735817605,0.002728276721745221,-0.015327344313430935,0.019687261252122466,-0.04201635521606971,0.020172832498778524,0.18282956817147375,-0.06577231477824132,0.2196937189124568,-0.1914031386650196,0.0715475110002447,0.07541555516281415,-0.017691712673246086,-0.08594166705695648,-0.1470063911809212,0.05131615321189938,-0.024838390829765543,0.06785507394482403,-0.05949616053013766,0.0172990301447076,-0.046874461810258214,0.06634574670372824,-0.1129192492293636,0.061713088179029534,0.026785227810999335,0.10969649410865165,0.025925517309230237,0.004149092824811996,0.0365533270917439,-0.058213597449295836,0.023536833983095404,-0.05496593029525372,-0.03581122364062467,-0.049777049418717294,0.14801290378340803,-0.090186989167921,-0.1471624451292571,0.2374856818192304,0.16694055214016684,-0.018644317596813204,-0.05129513541110002,0.02253832748214214,0.07036558404339323,-0.1038312654737723,0.04392451290288078,-0.02993666892918006,0.04706246813748701,-0.026653178324443905,-0.016137581194403817,-0.013926606771001996,0.07712893027845268,-0.045921100025756306,-0.09298085416878368,0.12588403478263172,-0.16637379063587873,0.15775326428937933,0.16822646829649068,0.8701987131400074,-0.02983630609277206,-0.3233473207973542,-0.03270948051689958,-0.8855251645013952,-0.3555335123729755,0.6237036982966004,-0.6762572937684357,0.06942601190051614,-0.060962557137913306
83.22544860839844,0.8291015625,-0.05213187937929477,-0.09812308397676775,-0.06479754786996494,0.060748414177420204,0.1847198942069744,0.05948539823305388,0.023721775544767572,-0.1382741851023594,-0.013039380000743131,0.11657949491812783,-0.013487316547013073,-0.12180226687227591,0.07761714215803112,-0.0849049134694495,0.03096512040411045,-0.007106211236594037,0.04696793831506582,-0.08717296953944037,-0.04572875223355975,0.01734687219715657,0.08407424091293526,0.036067651134254405,0.08513044481676929,0.011851491224922447,0.03058900811459464,-0.008670614204168465,0.04372142461476837,-0.05475915529942105,0.020635325800198098,-0.026022415364832786,0.015241809893831122,-0.025246269472367022,-0.006497606487757225,-0.026471958732921352,-0.06667829844588602,0.07627906634688791,-0.03163204826527849,0.08352127533533289,-0.033948864747764144,0.10059249438913975,-0.17099430822141007,0.04223050497273898,-0.1324099790078604,0.13583457369571095,-0.16740378537552328,0.21431353672037826,0.015275507620674575,-0.0669164615826721,0.14955666030073758,-0.04813305361093243,0.04316953533696451,-0.0057428910393135385,0.014249776591590033,-0.11594466968377122,0.09881579022704377,-0.10487742884758679,0.00010314948451452385,0.011119106519574762,0.005981521218971428,-0.005148138007067921,0.015826274927580482,0.03598931799673498,0.03330211948328422,0.013490227723545163,-0.08237745169878244,0.03652368981757404,-0.09190570539669336,0.04973508826421805,-0.08794329436338365,0.2789232092289745,-0.23218427750928675,0.05578028947096625,-0.061773721225302114,0.10936128854656776,-0.5259741438913575,0.06024895954958955,-0.012520108194556727,-0.022787233030597424,0.02894002761956275,-0.017522301408016167,0.05833692802594534,-0.1349201277879955,-0.2776134613355503,-0.011335187599566981,0.4404570486819154,0.13906837735195848,-0.06252618394438109,-0.39295431997601565,0.13386086489515747,-0.01566610477434123,0.24327644653571567,0.16476600949526748,-0.19199183754252486,0.30848997516805277,0.2529178501725774,-0.01304764926669993,-1.0329213403834154,0.21292771069137856,0.05117777632930204,-0.1598104162365297
84.05455017089844,0.7787017822265625,-0.29421087784222194,0.09960493523983412,-0.19348945462019085,0.1889531230527066,-0.07598900028341463,0.2470363656622401,-0.03658499371825984,0.07483653911679657,-0.021970981174040928,0.05126783631207854,-0.01537568870198533,-0.011229520196385191,-0.01761981360168577,-0.06799326986062473,0.11964965739881117,-0.002572998275041611,0.027110430751365946,0.08518361594760551,0.05857108764943067,-0.00886621102144259,-0.06785140724354785,0.029732430663963638,-0.08565163349916456,-0.08068009394300266,0.019964546924879773,-0.061938371169968906,0.03163319423518264,-0.024979491584252066,0.06418794962850202,-0.011209131636854025,0.08298939404559003,0.01649948146553934,0.06824656342736274,-0.0015131970506595052,-0.0698590118245019,0.010618031550826555,0.020446473816228623,-0.06883890252898202,0.022935236626322658,0.03240645454006921,-0.011569838082204796,-0.010702913919011639,0.19766040010357036,-0.04833445200703696,-0.009810594646682843,0.0480186209152022,0.025558591306641194,0.006412873763527846,0.04729680641837491,-0.011272675735536449,-0.011441093366219054,-0.0017888271893982846,0.014593463323702068,-0.0031006136256581537,-0.020281578420893065,0.02621226356292996,0.013783348991237341,-0.008431596487744417,0.06984211166449074,-0.0099684818498979,-0.0650582560286288,0.048455767153210545,0.013487869310666959,0.011148188902678192,0.03816854262797971,0.04872822152281392,0.047388306023927906,-0.1379912758891983,-0.026393588513977766,-0.17793124130485957,0.04841664614420369,-0.05563423773248306,0.06705921156755944,-0.005803008841551079,0.01868495953951574,-0.04146338462584928,0.04825236513073623,-0.013585213005247957,0.041831683471660004,-0.2573013658625314,0.02447474673891558,-0.13398823420481826,0.18723170010974075,-0.4046212696424044,0.027220385099585954,-0.1601064368922257,0.44610591012695855,0.019220814929807203,0.5053289198068726,0.228749002798103,-0.12927183722206945,0.1901144152915443,0.14798950480761325,-0.20545039232316922,-0.3987867003448766,0.21540639877564913,-0.5105037518267401,0.21920294575937577,-0.06243726840510786,-0.03921346714281822
88.19944763183594,0.8195037841796875,0.6169403390238372,-0.7317708966331476,0.24105167864606608,-0.00868150374654416,-0.09469977679083437,0.40304862119606666,-0.07689990194751346,0.03467126410172604,-0.048840723158321594,0.09059510884749902,-0.14344760709005663,0.14068388569988372,-0.049217397637362985,0.03955584488107164,-0.09482054517629583,-0.04837116984649236,0.03322349739803266,-0.02815749945267178,0.0896959092003207,-0.30235847281379147,0.011531093986349217,0.029511007073204535,-0.036125004233284526,-0.08500921451832284,0.010158811497846613,0.058993220630561616,-0.0987771228298223,0.004770416179618736,0.03588359041955407,0.0071482569384897846,-0.08083825220068085,0.08664471773673532,-0.02490995780656316,-0.04478936727656068,-0.01618842076599425,0.12973165877372717,-0.0028363502168488345,-0.034520713053143075,0.057053372411978054,-0.09044658695741876,0.11843538482988182,0.2551008716144402,-0.06122606925899108,0.02092597159107909,-0.12520842486550546,0.07237474927181933,0.06790774792161958,0.0842728961169614,-0.06681804929653566,0.057376187384938625,-0.033589893600182386,0.08100128337646491,-0.027104846798647178,0.07936782134304743,-0.06442465777598042,-0.042139470753603386,-0.060130141330404355,0.12244129908041784,-0.014568218840035153,-0.01924731193686498,-0.12825990238488572,-0.011542782333477636,0.06447622053130497,-0.09574347923455595,0.02689914050681143,-0.03140035358514747,-0.017812114069048573,-0.009633498725557993,-0.09486163377373512,-0.05330576623509122,-0.04232772570002153,0.002801449198279198,-0.003456216799461206,0.001496133446369799,-0.032853128374931366,0.027254245254538248,-0.04600924316162616,0.030695960128523235,-0.013507693118218991,0.017096317532318897,0.07529257436361272,-0.01906327164571324,0.07816493459410898,-0.048734377114035554,-0.3740515945959487,0.13609017962038394,0.12805109599738126,-0.299965857558584,-0.0450474319486735,-0.12672008450246972,-0.28044055168695164,0.24074744642567059,-0.42889177184669686,0.47556889286771836,-0.2618229179449475,0.30546855637619985,0.5762341699745649,-0.029682183176295715,0.40414798330427004,-0.020994516343043557
89.01895141601562,0.8386993408203125,0.11743381191906455,-0.051187782991823326,-0.060189990000707926,0.10511219594405974,-0.11367080398919167,-0.0327839674248053,-0.06674332261384809,-0.06635441397771476,-0.09217446758904264,0.012505809548247914,-0.08519524934201421,-0.07446951307715124,0.08919324717089369,-0.05453769651839564,0.029462077454976934,-0.052418455467461524,-0.011419039154504656,-0.028873824125291245,0.02367342905686488,0.029018853681248007,0.00016391859318188898,-0.0013094859703073403,-0.0530256391055412,-0.020222998870302506,-0.028117209109476838,0.124227495608145,-0.02281537090577911,-0.011281665948737087,-0.04287810963479232,-0.041324462529103614,0.03312980199012213,-0.010696650770720332,-0.04108061762940184,0.0006737686972192052,0.0009152497644228526,0.009709916909584665,-0.007835958429592166,-0.0068805389382240985,0.0025547729274855574,0.0375292336071949,-0.09217949266230488,0.0037534017244966206,-0.025580969515939137,0.09443977328412785,0.05337509253647446,-0.07813983938947533,0.0572793690800669,-0.01733629649716322,-0.16807842338016074,0.08428334879371496,0.10352778048633342,0.031565115689405635,0.002077067827786637,-0.06564392896341155,-0.0576393846412824,0.036714724728091584,-0.08040210969534917,-0.07146675687230634,0.08270529685944668,0.029848672951074337,-0.004445397591117041,-0.037692367850610815,0.036170269755787215,0.002754514102542377,-0.012633538516491544,0.04566782082842516,0.07958687806722074,-0.05427877961865444,0.012627992049614284,-0.09240751075511942,-0.02086304883173469,0.023121937422919285,0.07378661798085764,-0.13672662848728281,-0.012231754251795048,0.012940769639499078,0.0594270138885118,0.013891175750391033,-0.006847688367240522,-0.051360884140402865,0.20134949111958056,0.05546524776203701,-0.07397879982147874,0.16227978334811208,0.7285874932227133,-0.260748307665575,0.1574109318035273,-0.20288263317368313,0.22376023533503714,-0.3856469517958516,-0.011512818263914364,-0.31149575839599647,0.7132794723607496,-0.09895655823936178,-0.28668551387205266,0.7087246420668185,-0.3993820988995854,-0.32539379321970474,-0.0318711154488617,0.03320363806379714
89.85765075683594,0.8292999267578125,-0.11573887180759745,0.048741759215974116,0.14845926873934243,-0.08932996008506251,-0.16949311690445754,-0.06668705134691857,0.02451005799477125,-0.015719017491397945,-0.02067329319389243,0.09251621294133594,-0.12036641661182776,0.04139429532941963,0.07949307931793674,0.029806364404574417,-0.07481808266019913,-0.08405484520880228,0.1418861745747605,-0.021616901458091843,-0.012630984488861472,-0.056197216995921354,0.09818786919832428,0.03506444054371378,0.021534288024149646,0.008380874762811732,-0.03254973704256948,0.0602132661483331,0.019513451086552464,0.08437453269532921,-3.082816595219003e-05,0.003504459941481061,-0.060351932872693054,0.025077960005830395,-0.0047674428847354604,0.048527346513528025,0.06108665578310748,-0.0847050497118797,-0.07061574617806848,0.08342179769990717,0.004520500279265344,0.004117656998534169,0.06696624608690968,0.09030000896233287,-0.06419912190212533,-0.06765474691918075,-0.24087724542701558,0.08163263565004074,0.014028125276285122,0.024370185230919196,-0.07046866382976423,0.08633602138860053,-0.02843576688640105,0.09161347084119019,-0.03308473975339069,0.02780679234877207,-0.03603088759440414,0.0580665692837353,0.03857149817082213,-0.0019528140847846977,0.09823220111756364,-0.023932255915808217,0.08810690374343819,-0.06113185652848454,-0.005439621444178278,-0.0020844903745621496,-0.1285535752933401,-0.04357109502580747,-0.07306070142778848,0.05345234241889627,0.021508574229979354,-0.006612014244667726,0.023925852627126154,-0.011770204651154505,-0.020985857226479387,0.029506539331369513,-0.015283561424810578,0.0387426822144208,-0.06581901573739377,0.02135820631153487,0.011478591876845213,0.07321090889065515,0.07831955861053692,-0.49729689820933787,0.0845441055890494,0.13344935761098947,-0.21957225318423373,0.06994319276138254,0.07835933463999184,0.24679378925848,0.17813693110975792,0.08311241962723147,-0.6806722801339241,-0.6879119384274971,0.996331347434645,0.8012104916045768,-0.04282784324018738,-0.3011981094503071,-0.03977552876623711,-0.054147602450063774,-0.4696467486676983,-0.13828518706024112
