start,duration,0,1,2,3,4,5,6,7,8,9,10,11,12,13,14,15,16,17,18,19,20,21,22,23,24,25,26,27,28,29,30,31,32,33,34,35,36,37,38,39,40,41,42,43,44,45,46,47,48,49,50,51,52,53,54,55,56,57,58,59,60,61,62,63,64,65,66,67,68,69,70,71,72,73,74,75,76,77,78,79,80,81,82,83,84,85,86,87,88,89,90,91,92,93,94,95,96,97,98,99
13.329950332641602,1.1897993087768555,0.014557840063454855,-0.04265836428590353,-0.05250277553251151,-0.019648568999937915,-0.05314007421897309,0.04159098184964957,0.044951045766517,0.025823071426679153,0.011449382722572402,-0.08477472173850223,0.02072062869613965,-0.048937343533964915,-0.1372693760031163,0.036849538671614446,0.1495397922560813,0.055517289135752726,-0.014727738448569071,-0.02214567593179026,-0.07080074361985773,-0.05102469478655459,0.03732475331375511,-0.0027506557444808566,0.002440162635082584,0.12142491220557916,-0.02884000427554667,0.020684122674648725,0.02208146758849829,0.010831560063524301,0.00223742099102998,0.003066315962979805,0.0724042589255326,0.02235825762894543,-0.009803753139402708,-0.01783763281547222,-0.04141708201629527,0.00887013281172047,-0.007436190440328675,0.021751532103381693,-0.01748521288526417,0.026913904334605734,0.03457574486921369,0.00588632944566276,0.05534398655605586,-0.04555009588875094,-0.0159629332523165,0.021625304257858653,0.0326160712021588,-0.0007002126405845157,0.029851495802275578,-0.03755301386406608,0.060213433908623624,0.015196097949593427,-0.009578480282760999,-0.05242055092170218,-0.007602321481539134,0.09653133299339099,-0.00911465413584095,-0.005817100211125484,-0.038865590391543636,0.017747946293160108,0.03685786278281169,0.0014224502012704708,0.01421683271520725,-0.0247607097735125,0.04464842655964442,-0.013736745470595328,0.015430564406713962,0.03783983218848589,-0.11139674374579106,0.07638515878902162,0.022070734185639356,-0.0005026880367676309,-0.001989849533184074,0.005772421582105966,0.024417227991524265,0.00023462667296757206,-0.0011996199524528322,-0.023040719893928738,-0.10595487930196837,-0.0007573528264947305,-0.006077968019417234,0.0005281680505733049,0.0028380381933924923,0.003546405606150906,-0.0001275054589096186,-0.011366955520708275,-0.01799995364704306,0.112323409771571,0.011360633535394397,0.011818753551069107,-0.0046774186095620545,0.0312210571242115,0.0492142239619715,-0.036426737702678826,0.00841850489508234,0.019221569806774554,-0.020359709714739695,-0.038129434835780004,-0.046849591872438714,0.06878790529677424
14.519749641418457,1.1899003982543945,0.07310156058605584,0.05745533036555492,0.030839947621160685,0.0469635632672592,0.1279361179852626,-0.12047960575424654,-0.015444800171460738,0.03955360446194228,-0.03608069697462901,0.030767720989355152,-0.05167663248121974,-0.054714237124771865,0.07684334821314182,0.05141261362841225,0.02437670425519181,-0.03143125868185384,0.04124935828684546,0.10388577453377185,-0.11916181469648834,0.0757260697385838,0.08062039922897216,-0.007823451803669846,-0.05262954170013634,-0.047218099021219706,0.05727734496129746,-0.08586564304049046,-0.06845946477045131,-0.06607196725423231,-0.037866524394765934,0.09954758434155589,-0.009946615007251192,0.010364751983155233,0.002434752597384641,0.00539082432463351,0.06894885760373615,-0.001220828189165764,-0.054396408286196365,-0.018674823755619588,-0.03683687894662595,0.03512619521843738,0.010116482398359754,-0.0009581709943024313,-0.005177545230949236,-0.0635851694066774,-0.008587621561721274,-0.013308420663597248,0.05783693803297961,0.0028005871298330707,0.04490123005439561,0.10444748310149021,-0.04025836263521037,-0.028640155198324052,-0.052901076059009,0.05313993343790899,0.0541476928726007,-0.0352229059193379,-0.026368236791616508,-0.0012462848803918964,0.06098836433495714,-0.059728595466502075,0.11067025136001205,-0.033296862615916294,-0.0495661528384326,-0.02591489188283794,0.005323288897737508,-0.014249953019199593,-0.04898301448006461,-0.06601641004674397,0.010725903766938159,-0.034543708046492545,0.027827080674152238,0.033916972901659626,-0.023443919243143055,-0.0005787917060293559,-0.006198248324239549,0.00043576846430539644,-0.0004598858535582296,0.04082746982085442,0.06691443902355926,0.003496462071259075,0.012661359738785266,0.00974130497226757,-0.0053362259777836735,0.0775483397403563,-0.0016370509145727048,0.019278718365052506,0.05262850909508688,0.050618279877472236,0.017514576086621464,0.03292471668230655,-0.020295339601572464,0.05206040462012248,0.07229723047372674,0.03674620321282762,0.00811051581227224,0.07308510877294457,0.04213665063610267,-0.08180157130864252,-0.05281956044606913,-0.05200233069980195
15.709650039672852,1.2096996307373047,-0.05819063265428878,-0.02835108555924648,-0.06078949578344715,0.08115701666012282,0.03714489673520879,-0.13148899304781886,-0.004994748316121162,-0.2396324637040235,-0.09772954626740542,0.02399802921119628,0.03190267565865916,0.01574299952615118,0.004809147409546986,0.016498803352600643,0.09890722914732615,0.008726992761186337,-0.04699029996531996,-0.024642798248865116,0.04614188589394719,-0.07605055658833292,-0.033079514435970264,-0.004607655709502477,-0.027603896129691795,0.061191086738637254,-0.0029956739478609502,-0.025247049141889716,0.02262936711249164,0.0757980589728495,0.014543851753188591,0.020798968940300824,-0.06332242184181572,0.018181263183487888,0.012072908124631642,0.0071038486861496105,-0.057627789243094446,0.041039417224193624,0.06385707329032828,0.04674824221123719,0.012456299172799251,0.023837443574262724,-0.026669820662340814,-0.12466103002758885,0.10294391806195544,-0.0036084423695909146,0.027041508839289324,0.077228171165456,-0.01622535631453404,0.015478483378027891,-0.021617054141241918,0.030551299156037808,0.03748027590077271,0.014795572276452545,0.021141981500648964,0.05281563696480621,0.008495005206912194,-0.05684193678989271,-0.004089479382142412,0.05215712712260253,0.006676089709676543,0.06340427851227226,0.009708483605456168,0.009342790532227137,0.04820379834583681,-0.013959604721247933,-0.02194958763901367,0.0043009289697712085,-0.00608081285486459,-0.059930924380865246,-0.031250056713407325,0.052117428832050554,-0.00029703954582981844,-0.06561709256891166,-0.0018654767436233578,-0.03596305989363038,-0.021873254861271774,0.05056847288569789,0.004810677313666768,-0.00230527862737292,-0.05759255378946093,-0.10138147221222464,0.0009442630605433518,0.00670468445397522,6.64649955760589e-05,0.01690714689209478,0.03081871296416937,-0.005614054300105392,-0.05103320423634642,-0.004906632208704399,-0.053193862973601624,-0.06977350161130645,-0.02815388716094177,0.08470779754969349,0.02341336536574833,0.00908800095778183,-0.004147820783253101,-0.014937612879138338,-0.0016999952439465283,0.05271777614991276,-0.11174588796879988,0.07352146540099772
16.919349670410156,1.2404003143310547,-0.0690247828166794,-0.0005092290632253177,0.09815472833734729,-0.11234813410618301,-0.035978603406835265,0.1106468891567211,-0.017588014972565492,-0.01561599960674542,0.11577629530535245,0.049081096813089184,-0.03799986123663168,-0.003115402354262598,-0.009170082709730756,-0.039583728671861024,-0.011351300605931501,0.029930362451738187,-0.02281614374384978,0.004650752304044026,-0.0006574744113883261,-0.02026042704761719,0.005661482794497449,0.000715751308419083,0.002031719382851525,-0.07597773206861276,-0.0021761419775035663,0.006642105665182022,-0.000615855702557423,-0.0009082535047273567,0.014276785061292926,0.013589270022882514,0.017281938060396053,-0.0627215607846869,-0.0663623346710592,0.0482869171137371,-0.003564715538916625,0.008271124594624714,-0.010550635507999999,-0.034782781663151886,0.0017931372315485921,-0.02842235691368837,0.017755215803862717,-0.050246902719631066,-0.0016197173959946894,-0.028780067553848945,0.007300965138177233,-0.03375091335611478,-6.583357811193772e-05,-0.015043503370226603,0.009233337418231227,-0.05956381230030751,-0.01655507631069599,-0.010013553411263212,0.009816273978411633,-0.007583933359073788,0.027110041488010155,0.027561171353994152,-0.008011334012988924,-0.01697096504841869,0.08083538186038561,-0.001087888932841456,-0.024470738849189745,0.10483873738950407,-0.060492734408991895,-0.00921877335838898,0.04631086436119207,0.034477509637575565,-0.016507385193326767,0.02423275291931018,0.024279145112984346,0.03588947760056546,0.0018384410940330506,-0.024336469335914313,-0.1171386471801834,0.03369539462489115,0.008205673312110737,-0.010020722413034788,0.07429241774549572,-0.036988779849819006,-0.043848367232696715,0.025274930133417386,0.01609728007951063,-0.09819620804541501,0.05376273750546078,0.07797178482373321,0.0011069303289134647,0.019015654955375005,-0.04434218019100307,0.003391088321207497,-0.04707045499530743,0.07071195276149687,-0.12005004126924596,0.0693755187283195,0.055458938084062895,0.019761003551253375,0.02508497555523352,-0.0021466628199823005,-0.10190193504661724,-0.05680762324092515,-0.04281043346558142,-0.026754769359459196
18.15974998474121,1.529500961303711,-0.0233996617331831,-0.015470872660225373,-0.022842158795583257,-0.05043113245160875,-0.021173189797330096,-9.917518973307818e-05,0.021536924366775873,0.051642892806480205,-0.029576327614369846,-0.01618619456963985,-0.10697970452326895,0.09027526628980782,0.034519969792719526,-0.1250375754718321,0.18316986173759317,0.08792396908665463,0.02121910575663208,0.043298680458375906,0.009856896326282259,0.0032513278825086903,0.03601479523824396,-0.010166948900134518,-0.11482897941385972,0.020136441468122553,0.018584393002030894,0.01547237017293751,0.014258915930370156,-0.11477083259636692,0.03865591071953124,0.0709533994603332,0.02705621189961578,0.027861232868552542,0.025937325984393373,0.023363145118842688,0.01987105122467577,-0.13224597678827665,0.0018587620282098068,0.012613255905327867,-0.011000539591279383,-0.0007074388423610797,-0.03481202623562221,-0.0743196784869218,0.029342191524519133,0.005352051256000599,-0.0018226307686130022,-0.12081550688280986,0.003751202907894776,-0.013076668186732058,-0.08042993621419121,-0.0007674508248695811,-0.02067708972410583,0.011305731547532786,-0.04154214773446317,-0.12997277523466563,0.10909934032274839,0.011637820852394856,-0.035954192729676274,-0.029487231931911825,0.055019869096069235,-0.05531138854827198,-0.011754583028225522,-0.0165389329917912,0.00293014356586581,0.012316458364568694,0.001238727152515386,0.0015904126215421123,0.07599286372528853,-0.020645713739303344,0.06499891225982943,-0.0015599159221159837,0.010873463499021538,0.053314502708636136,0.02942018077491184,0.02631056587366826,0.00411899743148818,-0.0012054662024619856,0.04254486477784558,-0.13020895950692998,-0.011113865317464703,-0.06065349495821386,-0.12454722826716423,0.0050600906857855565,0.0009854319608746936,0.005825146701693401,0.023564014994280066,0.041688844484476864,-0.09753923797747571,-0.007303976693035283,-0.05662719884919753,0.041745580300197635,0.08314709577895364,0.019659410217622627,0.0076474600616081865,-0.03180331553855392,-0.007830466002352994,0.03508931626539298,0.03199949044779334,0.0013626025175707017,-0.001876485327717366,-0.023051490897817085
19.689250946044922,1.2695999145507812,-0.014624279897743977,0.061665392316712704,0.042556707890345706,-0.06686851318741689,-0.045071514136476726,0.008293734394708591,0.0952969505251888,0.0165126418882498,0.1656928662824384,0.052274127351108333,0.20670349728213727,0.04633633946871835,0.008154222086235782,0.028794236271122958,0.005658171445735681,-0.058682758377112065,-0.06888381137326123,-0.19561431634356466,0.03213820233201277,0.0031046548855302915,0.1684623574439606,-0.04368165358302929,0.05013655541882877,-0.18258799416573326,0.06610365094323559,-0.056578639200472416,-0.18573343043092325,-0.05682383889617644,-0.03940299478173073,0.008715088218887612,0.019086997342849344,-0.021520046556080665,-0.07203099564169786,-0.12394896368665961,-0.008211862244868013,0.017279065710248342,-0.008241050336903772,0.04951800507814051,0.08337345793180062,0.016484383528618345,-0.012909464481317353,0.075257100314383,0.004794223325661589,0.0038437150326663004,-0.10519845459996416,-0.04073747935383363,-0.023369426312688835,-0.022637466349475825,0.05384295222516488,0.04208593936240427,0.03789405876955643,0.08218931383901365,-0.022385678740498995,0.037648479988399625,-0.034843801544354694,0.02973874324909812,-0.01827333208881225,0.009892624278813933,0.037644918702991734,0.009225681672846677,0.05137480710312516,0.013425498690664374,-0.00767152635357473,-0.04440256087896541,-0.007943427489777888,-0.052699225792202736,0.01592234938182649,-0.04181970648172308,0.041985972195388875,0.058845686166257495,-0.016916977932352126,0.006654022705513894,-0.01592971669345228,0.0012090624167042459,-0.0011913053286907586,-0.10704123664965269,0.0030060431283997365,-0.0012069250147415046,-0.006514299426966694,-0.06301119591079876,0.012542957437564482,-0.020370142214622924,0.027543555530471466,0.06770143675064029,0.007326742235481021,-0.02165188835331346,-0.004663952918554052,-0.07701289648601573,-0.04266099149365295,-0.0023937048026955454,-0.07484703618464555,0.06155043878960382,-0.033064720270391694,-0.06760026777545143,0.04203605321729628,0.03807168150847559,-0.025149947488968566,0.024548175703430222,0.0008765615680714595,-0.019879382201295634
20.958850860595703,1.2300987243652344,-0.017840985669811144,0.07317345400958518,-0.016205225326070865,-0.11329673134936946,0.01597024091266049,0.04705058297043252,-0.007117331743241926,-0.0475656784477264,0.024149707616999354,0.07026206103000625,-0.06646226163175707,-0.06178140184420025,0.04166968274756625,0.013771598640066733,0.020848209742230922,-0.05251354693094852,-0.016742764785810636,-0.0558341122127661,-0.009366340264760516,-0.0016859584026893608,0.016966211692528578,-0.017004289233548672,0.10189369279207733,0.0925046057174263,-0.0275118546891257,-0.0038833935730970817,-0.15071515814561992,-0.031088790618158415,0.015994078991764426,0.09702522597473714,0.008280547641896122,-0.02177402976140867,-0.07712293830588883,0.023305397308273197,-0.002320223411903912,-0.006010744503137121,-0.015072162598686475,-0.0352286590714973,-0.03591807973762411,0.006320585472005244,-0.12289013965824817,0.002071496325366747,-0.056026875332260286,-0.026028045936403166,0.03296063157847853,-0.009964310174821557,0.012844458812420918,0.025053817661197113,0.0028100956632938264,-0.03071032068104071,-0.07529797412413224,-0.002705902050132063,0.12510200441191585,-0.00024941875699580713,-0.03467209346246198,0.014567658275570047,-0.031456909578762474,-0.005737055525514833,-0.00967659585440061,-0.0021728978223386876,0.009042906089230304,-0.1078231736607154,0.004679547001305105,-0.026649951530626617,-0.050520701368643485,-0.0018720612693840222,0.07108345616235079,0.010484653454097752,-0.03307164648374783,-0.00014669903619210888,-0.05819590522444329,0.07135466224922266,0.1101015003439379,0.0027849962087369345,-0.04347142325249676,-0.014791610854039563,0.04840797912424225,-0.040083035045251056,0.009214238763414453,0.0934794026584096,0.005402678162376892,-0.0001088523111599606,-0.00012405035709736728,-0.0005412072541479665,-0.019683720628669205,0.01554515127622838,-0.013162149614394316,-0.0011811922875900758,-0.007005659145161422,0.008998356295479968,-0.003917121190015807,0.009933851229356463,-0.09111943181397514,-0.012571093692232797,0.08092847264289259,-0.00521004407664194,-0.026943644967430458,-0.1162966312374078,-0.09070760621663036,0.025796258907224534
22.188949584960938,1.189901351928711,0.027269496131601324,0.09344773066711518,-0.021347544578329783,-0.07878067284565185,-0.09577090293485925,-0.052675937435606834,0.19246621924327867,-0.07700074415024197,0.14892624643190838,-0.1244885905852694,-0.06449780984278551,-0.009744323217135434,0.13922420220036674,-0.10665648085686914,-0.002447407233494182,-0.10190606655663664,-0.04709311416960878,-0.004864684610507104,-0.0620635547864649,-0.03667348802667777,-0.03148939863076329,-0.06390639887738847,0.059101418896716294,0.0956357652095249,-0.0340373534394165,-0.02119617863435792,0.026380299483763733,-0.02136384586323896,-0.010325876300169038,-0.028043012531219165,0.07127268433325464,-0.04165334500097825,-0.02372518029207943,-0.047679665363344115,-0.07263498645962885,0.04383112397938468,0.0023879394332201173,-0.058343439377868206,0.0011662982811224561,0.0010489762819258827,-0.0056303038414365165,-0.014838446789051817,0.03969733133165448,0.004397852504011151,-0.0779583223983799,0.02300531081373358,0.08203583785600085,0.026414796892028993,-0.04365072987437825,-0.011553649977304856,0.027696404922848472,-0.06404730148358484,-0.06078524535359256,-0.02662176005154357,0.01834067943251034,0.1076517708752714,-0.03679381675291374,0.015524027524729771,0.014467129043318675,-0.0023706344143198934,-0.031875999790318015,-0.03501896072194617,-0.01858864331344056,0.056705888982558,-0.00934536494482752,-0.048089840547950014,-0.012291671272671527,0.013528433919656982,-0.031932216644086374,0.05098631986566646,-0.021975089508399468,-0.01006169522913199,0.029627916682609917,-0.027198183030086046,0.0170765581048621,0.0035890722313113538,0.006956547696448861,-0.004164243438624246,-0.054703826186564816,0.012488952781349363,-0.0001590478445931149,-0.03469756674854987,-0.02967421827011731,0.06279005730605679,0.02297053209931604,0.02153483038808239,-0.05225405312851453,-0.0012860111643584024,0.003563500084435391,-0.02422225278442109,-0.013431567367047259,0.06272137938264886,0.04922850926697709,-0.04725829680598466,-0.07079546289144868,-0.008751860312070623,0.00847295611233273,0.02601229947487943,0.011493579848082231,-0.049531658736392925
23.37885093688965,1.1793994903564453,0.09683259945900902,-0.06358996915615879,0.09485291191455471,0.014402542463903097,-0.011857893270428424,0.009139842993180523,-0.06102400962433878,0.008043598187658523,-0.004710651893380265,0.04491488602584988,1.7932363552662818e-05,-0.009813336374537457,0.0512202318255701,-0.08515686742892352,0.01665655736034799,0.03829664478765706,0.0006184670585328012,0.009359169449153836,0.0022852333428024533,-0.0020993631097613917,-0.030293892200677908,-0.06947620497946862,-0.05831444859333017,0.010018150111481413,0.02115946751495138,0.05721846053243461,0.05464689489691045,0.021366330590133015,-0.00012940005036083822,0.0272815700113195,0.07875762266929977,0.05649503205595967,0.0470401797485596,-0.01970371226866155,-0.01644066650638833,-0.016404532726396755,-0.00864942178474914,-0.004577103357540831,0.0006701726188262675,0.03132404980277825,0.029181127617437876,-0.05281880077313725,0.08960518187818617,-0.04826240516184653,-0.0299413855596874,0.03409757132131063,0.014957442783870855,-0.016698178792167007,0.009009051493265112,0.06354508801163872,-0.04192299567463228,-0.0026954146426552564,0.05505554877756625,-0.059478593050228,-0.010858533010125924,0.021543097953986637,-0.021451125108164076,-0.06577560732611318,-0.074786330941805,0.07858210629433995,-0.021984763266925465,0.04592930470640229,-0.02828187674667787,-0.05185926063210496,0.06599396901161805,-0.059040139407579004,-0.007928352084934826,-0.08436856689910298,-0.07161653726988029,0.007361282925973347,0.00811019510278055,-0.024608824084803957,-0.034616279540240324,0.012801005069499855,0.018837733705848195,-0.014867784704026546,0.01761263942605531,-0.010366578576466352,-0.04952207495232047,-0.009793149420588185,-0.004720858418147844,-0.0009783134110492814,-0.008906116427868876,-0.01283700737916223,0.03009987881666841,-0.028940529352887618,-0.0047187111896179286,-0.012981229639235186,-0.005415359609642796,-0.07299102018663187,0.031355486718652514,-0.050939917875037426,0.015092827475564997,0.10699723263842509,0.07397149855474767,-0.06252004453033273,-0.024956005580838617,0.008156400705144328,0.010195038533128432,0.022586736166686116
24.558250427246094,1.1999988555908203,0.017987677956810593,-0.004719398749678132,-0.02807773724165849,-0.03555982870442911,0.028656365217561833,0.006810300704436373,-0.01628735660503343,0.06976643353720616,0.08588766500794726,-0.010417003621897479,-0.019054400206168824,-0.04390182635832868,0.002064442524317544,0.019552924761536982,0.019070556795681468,0.04282098362985629,0.00044452093532050703,-0.005608022143846204,-0.03450485410119285,0.0024277048835038804,-0.001775463693785453,-0.015990395724989184,-0.02639681770596672,0.003258867493820291,-0.019865047821000556,-0.011548307624766913,0.08805067140873968,-0.009690390782668316,-0.001058635823543315,0.008617117269991615,0.05388985052506541,0.0694009372864587,0.004020198720016788,-0.011702374457502746,-0.0712463767464156,0.008040717891570081,0.01184097198014643,0.008870388220859966,0.04265836001325041,-0.053528404246135204,0.09286559266018803,0.017109812322110316,0.06686688925352517,-0.031574612966711345,-0.005488284937712968,-0.026822599981987286,0.08659694028085076,0.0014191675782472268,0.018336460891430737,-0.003670871379108415,-0.06284305768543239,-0.009810103928257794,0.009682225055592977,-0.020819928365044295,0.05877507632330297,-0.008067966701492468,0.024437794545904987,-0.02888338118085108,-0.002417626892960528,0.007210531111791573,-0.022114951497863494,-0.002637335674158608,-0.0021541168148405754,0.007583838338520945,0.0006883917785976352,-0.03226899691078168,-0.005884458785263696,0.018091698238407276,-0.07151926977929944,-0.006895053622661481,0.012985512110744078,-1.96034603852377e-05,-0.01144510796629554,-0.020088042654772813,0.0666455466295246,-0.007219650480419074,-0.012393748368188642,-0.05583122598773797,0.0033174894647722353,0.04741707156608631,0.056533074549858585,0.030798604948049365,-0.001800890791912914,0.03224289787102389,-0.0008577374020394591,-0.006485331686600363,-0.04489840065947691,0.02236136006448046,0.029715957121024168,-0.04069633610450216,0.032157708965450796,-0.040793739028581036,0.010542238578038765,0.01690050307384988,-0.01948769957716233,0.015607807124677648,-0.10552927099541967,0.015376606122883007,0.018011311805841916,0.010114014164962559
25.758249282836914,1.2196998596191406,0.008075596459240216,-0.04430139118866911,-0.055822060364470315,0.009562750827291902,0.019265750530395684,0.03319672801590864,0.07531466858463841,0.03563005736393752,-0.002955814747513352,-0.02943127407790251,0.016119946678782263,-0.13657201401168392,0.08857418566717593,-0.004981266482821751,0.01807744701388432,0.045593856453697734,-0.021119691777268287,0.10233736031897779,-0.007406361719847336,0.035123427089339354,-0.007824861619442219,0.05575012209064548,0.019563806538482654,-0.04128089648731355,0.0029132836902939943,-0.05936644508020863,0.007532188604819155,-0.05072200265146369,-0.02415171039074232,0.0022298517098994003,0.03974082690998191,0.03318268421930838,-0.012979746559336158,0.009212925418722519,0.007096401925507015,0.01362386595060626,0.011220836881006164,0.03573763041015786,-0.03480158415752933,-0.00486503918507562,0.0014042404895074432,-0.024768806277892935,0.044456126066141514,-0.035890319826832315,0.0469579832619597,0.004012661631450281,0.0017137876427179984,-0.008057051653009557,-0.02765969179691381,0.0007863028444470541,0.07840693207851077,-0.003586608468777952,0.006692087054758392,-0.0776433559016012,0.056029947988432714,-0.007158576639366421,0.006976970689019147,-0.00694547270222769,-0.018461834687486293,0.007889438279643118,0.030006787572243114,0.05696766711141963,0.0040954614584863,0.029067254902235645,0.006542910947476013,0.024326289569569337,0.004856497008988822,-0.06648736668926637,0.0016260527787457595,-0.004143029433866227,-0.019544515418455914,-0.009968949385802983,-0.0010685470361385448,-0.01683024894305337,-0.005745372695193974,0.014664523737716472,-0.006427972223223055,0.01776199370577355,-0.03385657634424772,0.013896883327187873,-0.0031112335665324747,-0.01607556688092578,0.1045578341925662,-0.022050257642676516,0.05059948481829896,0.031896920686683095,-0.03226093068433766,-0.04592818747215359,-0.006525618956266433,-0.0022483203174175383,-0.012137214749980143,-0.014333730094823449,0.06789290253502821,0.07408682183171864,0.07779648374069643,-0.0032921277542417703,0.10103457487514353,-0.015505858674296234,0.05748304343822251,-0.04102655914344001
26.977949142456055,1.1800003051757812,-0.03339322345830219,0.037221371130317454,-0.06903929520955902,0.08258240989858018,-0.05681225678941538,-0.01890834873890912,-0.06045484709670612,-0.022850168308258336,0.003511630825050939,-0.041310680079365926,-0.009515013331890185,-0.02791027337852789,0.01927221655641262,-0.03252890918196661,-0.00633338226297878,-0.0047643008410712725,-0.04131309271974676,-0.10576389085999165,0.009287830200863613,0.0058268874465858544,0.010932060290600717,0.04541099525382458,-0.006674763849246722,0.047037378063663475,0.00592872372493273,0.02452062746264008,-0.05420059409557751,0.006572882563589039,0.0026534987480052175,-0.0016779178779897433,0.016413186166994657,0.05510660768350691,-0.007742352594644189,0.005037805970493858,0.007191620287684283,0.0005179726601021569,0.0185331116030479,-0.03844221342493711,0.06177001730751721,0.00904986757177678,0.07224173693600544,0.0075397609716936365,-0.060810111767345736,-0.04062405187070292,-0.005254718701391163,0.0013879911139972096,-0.011882039570386357,-0.01815280394597988,-0.023607911272260782,-0.04184002870014039,-0.0003944091577762721,-0.05811681597991089,0.0017299533774349947,0.06383107499112953,0.002752609052658244,0.023709836442185626,-0.018241208558082964,0.032381408281892114,-0.0807557057785819,0.022684343141190305,-0.025628004255383616,-0.059528052185450056,-0.020176444966487544,-0.012098961292420418,-0.07126714685493993,-0.0468055842502245,-0.008991421553968412,0.0014674997790306357,-0.009418023820988242,-0.07457818980712018,-0.0065103840371697605,-0.040596621264651744,-0.028686665644027772,-0.034735739379136044,0.019854141522924,0.0021446237685141313,0.06502217017602946,-0.013984007530528662,-0.025493110244903753,0.0036185703951210433,0.00269787073639917,-0.00808571144434131,0.004823138751380672,0.016132061629467218,-0.01604193354351131,-0.040955971953893014,-0.009714953724443564,0.021373602749041085,-0.030476666147140292,0.02456800950989441,0.004340665540720379,-0.0009865542958598316,-0.042286526309617746,0.019813475193629585,0.03858129116157293,0.007468040487365044,-0.0010886080534680959,-0.02100840256704821,-0.04518882836819367,-0.017423957561876174
33.24705123901367,1.1792984008789062,0.01683388393248205,0.06221978360965729,-0.02994588544286992,-0.02888518457050779,0.10082128215732397,0.061622403592241456,0.045886327996419354,0.006020484988014996,-0.0076224157048727335,0.06093625380160329,0.0004461893606612956,-0.12116015563520782,0.05545508111402524,-0.11679758218733595,-0.05553460556539938,-0.11801189633992115,0.07272216874779619,-0.06432362947181068,-0.033727686856944036,-0.0674210214511141,0.0739866571880768,-0.005425004100558598,-0.0022168328996825673,-0.026380404796880374,0.05659292606087297,-0.019339166654709826,-0.025142146330267047,-0.04530545406197365,0.03740612700413395,0.005690787697789021,-0.012068376141770762,-0.07126376161352507,0.02948464045123769,-0.004662708949004456,-0.025308386252862015,0.002732653413284997,0.0034102171280181413,0.07180823223563373,0.03542081705767337,-0.05335240630977454,0.04945587300081012,0.03406413813623331,-0.04079932621411603,0.031818714684589036,0.06842836615053786,0.0028989030829237117,0.08402518309528245,-0.017118965987620728,0.007992265419730587,0.0325989261528734,-0.03768705062368968,0.00218876147170316,-0.001963559843243946,-0.012307449294345343,0.019635914190255944,0.05378184924566803,0.037471177691296195,0.060698017951372786,0.007675816163455361,0.021212927559976613,-0.07471535163733782,-0.03419828436050487,0.0018936057587797392,0.0042898967935721686,-0.020008376110541223,0.025777230114648015,-0.018748395431414377,-0.01840287589737032,0.029966668616190316,-0.040944492846453816,-0.08340117151151956,-0.0028070453766649486,0.000459350576103731,-0.033840019403245915,-0.04343223468410841,0.10377503595894352,0.059343112444002796,0.03657141871142348,-0.01130165667616632,0.0007637514605839444,0.018879654306276757,0.024609150806757216,-0.1290989500133782,-0.06597252913112107,-0.060941712614755665,0.00610420448711284,0.009705113647928641,0.0828673837709108,-0.005406732801296819,0.062201730130845845,-0.09562493413716047,-0.005165787588696276,0.012223195814111765,0.139320697582498,0.03297043180321484,0.04654349234731466,0.052092983642337706,-0.06624326433893649,0.01822177340190957,0.13317531372754993
34.42634963989258,1.1999015808105469,0.13504733818912001,0.0177297272030216,0.0388066532332874,0.02713577903072103,0.10483966112948064,-0.10151659398505673,-0.07599884436582482,0.0028197748518064645,-0.047466297880637644,0.020046491308233112,-0.008341681736638584,0.07614376995302528,0.10510349005842182,0.02963002531639863,-0.10882019354323212,0.057469659068522076,-0.002615593966426288,-0.009643185322581486,0.0272340097185612,0.045659209227515894,0.05832689164386517,0.07825032393522899,-0.02767574308609163,-0.09452296379014997,-0.09123946213778743,-0.010830405448062621,0.004034969293988076,-0.004502300836614022,-0.0011678551814100543,-0.017342124639589458,0.11285592696130893,-0.050234191999007666,-0.08398868638136328,-0.010784183412231023,0.004845669854942058,0.07426763362835774,0.03703488620907339,-0.008894997937916801,-0.022589367755314418,-0.10335741184842161,0.020293250418422663,0.06612706875595158,0.003691354540800367,0.09077391337825069,0.018402895653533282,-0.04352776505150138,0.008292617377070212,0.0792912901809189,0.0128549813308608,0.07988653508654897,-0.0025147374191549846,0.040518532038692365,0.038569028547035894,0.06909383402341068,-0.015401811841876415,-0.07631299296165434,0.06842343244589096,0.0068249751622818655,-0.031011763097086507,-0.022428692173704867,-0.06935034409558637,-0.008990973548782772,0.027593635489905375,-0.04488131379652141,0.003723395448584175,-0.045042145282628385,0.03250524742718022,-0.054658759547284004,-0.05869862662420472,0.09093340156073455,0.01457278035991473,0.013608329377572483,-0.06894130424895718,-0.00788539257787899,-0.005326202541938207,0.001347819682914812,-0.0007070188702445407,-0.0006360566417411343,0.001169573813956326,-0.049521522046347875,-0.022517120298620553,-0.03081062453366464,-0.018244339216260133,-0.026846979170904055,-0.04703942046504932,0.010808007643349144,-0.13379725278515733,0.07429652582207558,-0.024812549035377107,-0.061348452842812505,0.0016126641995189942,-0.042575590874435736,0.05624966118245297,0.015437161175630418,-0.02036769868364737,-0.006533465091751716,0.0015740085957045157,-0.05867732322049041,0.008087436257398217,-0.06555706208753934
35.626251220703125,1.2397003173828125,-0.05815010627191511,-0.07007006548270656,-0.05856784747580469,-0.07496813397188762,0.05889191581745473,0.07258006234681516,-0.02813484494575504,-0.05319317270231361,0.036605702673705026,0.011001646652175226,0.022463492380056925,-0.053260822999395545,-0.07391682636793843,-0.05815867570978387,0.1472556545784098,0.09241352963846834,0.016324310437332658,-0.021184279917003647,0.008761900182470375,0.021313232838919626,0.028028850756200235,0.007064441818826728,-0.009290617503456684,-0.11592363371476233,-0.022769734949903135,-0.012528453756768141,-0.07726312151640953,-0.10036786218188085,0.0069309645568431475,0.008609213940174085,0.0011697089251942255,0.12562747540069863,-0.008347494819437177,-0.03854367912189407,-0.04103373787747881,0.006011814332785726,0.006098270458570275,-0.01784003072114821,0.006286538830303168,0.03945473138597213,0.03226426100129575,-0.0003200394455094694,-0.006918850384561897,0.016787278989153775,-0.0016054233968825003,0.031514326037499873,-0.0024444471693155882,-0.062489345572846494,-0.014360106993491759,-0.04047575816207139,-0.012467968721995473,0.023732059614094622,0.05588311708016734,-0.0030401479055777907,0.059851774041468186,-0.04635708659291116,-0.0020706187550585697,-0.001969798413142456,-0.04670486749302618,0.08459213174284164,-0.025682549147939937,-0.07518222651827719,-0.04896293641340793,0.004030705003352693,-0.04097899145671792,-0.0063633769386606575,0.026360008573539193,-0.007379095804470957,0.07926499512418796,-0.04960075639477864,-0.03659234883763896,0.02792224849936504,-0.039667064008227344,-0.004448777588139121,-0.03693308894022624,0.03429717642014987,-0.003755275350294629,-0.055114640657542,0.014271811537752865,-0.022929671330976686,-0.07359228744110671,0.014350106342587005,0.029869634608584848,0.082550140666384,-0.004884715727782083,-0.017596905351983362,-0.0010131197254912901,-0.003710920835112801,0.04199650841586458,-0.013209392065618206,0.07246496690937176,0.032201683695723286,-0.015436870233128374,0.006488107540760374,-0.019371100100621104,0.0396357285526251,0.018524774895159874,0.038925566445977944,-0.03476906297923712,-0.08135244666905295
36.86595153808594,1.2302970886230469,-0.07465655543777881,-0.018644437816747884,-0.0037394879793691558,0.061639252813884965,-0.0009243169400835298,-0.020416899548292983,-0.021488882610026225,0.034509472438809474,-0.0021426711406505906,0.13790169730068838,0.07059055997427266,0.015070830182738124,-0.03371279079730987,-0.11402284285010496,-0.003271367508179389,-0.09780317009764891,0.041614923853868446,0.006478697612779604,0.0013619887086719013,-0.003687658183875126,0.0202514045275667,0.11044032876462384,0.02821943590949078,0.08612349728534986,-0.027391662576441822,0.02191038158384824,0.025496475747086755,0.015902961587004473,0.005655270572135504,0.01308329883845753,-0.001705956605009654,-0.019356747138329616,-0.03629942382714043,0.07290098289874018,0.04711690647475632,0.0020196895607366818,0.0076546978137981515,0.0584508817407502,-0.033135848571466335,0.053854711813530125,-0.014748631887866367,0.10233678759037644,0.02635084126206783,-0.015265524913648633,-0.07119657738455486,-0.00514085968477396,-0.019585644221654853,0.010832046931030211,-0.05942147911886179,-0.007556317005595473,0.03425302443034417,-0.003460428524472106,0.004384986790814217,0.06452383051020572,0.017387669415780387,0.04387771960596228,0.00902081988357263,-0.014688010588621144,-0.025756576649138038,-0.011474850219965737,0.027980180784763102,0.0027049002500386197,0.01456178439541932,-0.008821912378585012,0.040984415778719384,0.024918272860294015,-0.03407479590902226,0.024675398359254714,0.03861112392018462,-0.07383156980290682,-0.04857529548083912,-0.024446075642935404,0.02227721215199751,0.00046803175482660784,-0.03500951807357193,0.007613650928809477,0.00843556185166481,-0.09201406324137512,0.0020797909076701285,-0.10504137560191538,0.00509038762645379,-0.0005226160184431357,7.785567151733541e-05,-0.017646095342049726,0.006514954385204733,-0.0803700664583088,-0.061603447725052544,-0.1332028407592299,0.06132745175561118,-0.0049826015986913835,0.008526847422182116,-0.11545704327226469,0.05692462621533313,-0.04341604225061425,0.02792546973567427,0.011826034640773985,0.00018409669970618974,-0.016959259476412494,0.03436628090603,0.024548361905901928
38.096248626708984,1.3197021484375,0.02845780591566989,0.03140721187511927,0.04095048747218108,-0.021094855860292167,-0.09511800793755312,0.06899573231048359,0.1420605043980957,0.024444896976673514,0.01554743351571923,0.024833514851977097,0.017839061627250904,-0.040324491813718916,-0.051978679700531535,-0.01838761223464397,-0.030546197848257454,-0.05819737116832514,0.018405490433401686,0.061943270777164494,0.05705945920518886,0.08192033511151531,-0.010363626730610375,0.012565517427837581,0.0928003112849279,0.035156458280165545,0.0669566136363681,0.014645882595256444,0.009348303980246974,-0.03186861502173555,-0.024405791400123156,-0.04651861139914072,-0.1359748088214817,-0.0073934754091626274,-0.018445501891265127,0.007754879810715536,-0.03575464305204604,0.013085920742725122,-0.0024376115593423868,0.039032325867702576,0.023362226730708795,0.1069590637441194,0.06120695198333012,0.0007400470446191687,0.0029496373806394693,-0.0017385218375675052,-0.009611466347208665,0.03814462063985401,-0.04385112468373562,-0.009478673164526575,-0.042093956982167016,0.010142895287541975,0.05736363029543017,0.0023931009273620045,0.0027315341180995656,-0.08785727176036137,0.03508158593788361,0.03543005178803017,-0.016132984301367247,-0.04319811161021383,-0.03704673260538291,-0.05140012167589654,0.014841752353708142,-0.053087678240903116,0.04011486394061254,0.007669944514613463,0.009977370186132846,-0.017768701527945137,-0.0009602280103765959,-0.05624963517310183,0.07333706533999827,-0.06795963444279862,0.043944760831480335,-0.0013256366091143567,-0.030315897914276156,0.03890299220651584,0.060167942957677426,-0.020180729049520382,-0.09475957533683513,0.0009054079311020746,0.008325585809801446,0.050782708168645434,-0.0026190756470041497,-0.00499097506403019,0.00520881637469979,-0.008566268942259172,-0.01701837856983101,-0.017014517593697695,0.02122971422982826,-0.016657143006127355,0.030036304190975305,-0.03076276431910349,-0.027320447918141727,-0.003932967581894476,-0.029672857551203285,-0.0026581412889128114,-0.0051084748730553225,-0.05557879158866411,0.061151187334562256,0.08890623708960817,0.020946108675508487,0.03947134967790973
43.18534851074219,1.1998023986816406,-0.0736802110812201,-0.07929305603825097,-0.0700299895270468,-0.05989339558773524,-0.022344199803328833,-0.015566482673977172,0.005180774302918077,-0.022986745649148765,0.002984310683456552,-0.0022053636541879097,0.07644075741295214,0.0017974100877665572,-0.007618196438316227,-0.042481011565441325,-0.010839688962216437,-0.01685246659888217,-0.00853450367519639,0.015138085308798031,-0.04808320962019351,-0.005960894918903237,-0.07689656705185616,0.05853403966575682,0.0011085056908768684,0.001777197678397001,-0.014384434688880104,-0.027581019847174478,0.07317367551181468,0.023508325662352215,0.0044656937518167406,0.09974329435525338,-0.003742926279455114,0.042009486910405146,0.028134852986874185,-0.00137618199415069,-0.03659767324674323,-0.005486111238800353,0.008926305077654953,-0.0069334580244742525,-0.07472187654002126,0.02369776509779747,0.009412411292801837,-0.022639815874639355,0.0547354088841103,0.022480747676188743,0.0016230108598174193,0.05391160377038516,-0.00587556172744351,0.04496689323670766,-0.024906937934620368,0.009765559071393315,0.04513984090004441,-0.05315928607073565,0.07078565303793519,0.012362149174153944,0.014394370049337933,0.07172336481743576,-0.11528494406731987,0.08465544118536007,-0.05950478678109242,-0.015153018036253005,0.030716430770968348,-0.010393004717386679,0.0028805369208362323,-0.005441292791683733,-0.006526121534383089,-0.004007802671625968,-0.01754609925277805,0.0013028252710647241,0.00580070850562317,-0.00894973152700311,0.047565989867294454,0.006387578264442875,-0.01052040952805923,-0.007570353464329438,0.007357255629870668,0.01878371785128984,-0.022101651571348694,-0.048268009217192764,0.04416239181534468,-0.026354095053554186,0.02312032535097365,0.0002668802181316074,-0.005634351878142644,-0.00960075264139638,-0.007471739269487444,0.01727847320232432,-0.018446773225284503,-0.040305553474952266,0.0024179912596178307,-0.027384856046053972,-0.02690246295521957,-0.07979492440182887,-0.07386393162947527,-0.009318389608553352,-0.052365374384147984,0.016581104531979973,0.04035283557833991,-0.09522815858193914,-0.004624170559140339,-0.007330208634599947
44.38515090942383,1.2296981811523438,-0.014589020599229303,-0.1020441591059908,0.044186603275137896,0.06773391993079757,0.08183779956404533,0.04057662557797048,0.030167083030335825,-0.058997744866402586,0.04966795425896376,-0.0016374465333237331,-0.21128586503280727,-0.008426765160798821,-0.053546983258803645,-0.18448414692377899,-0.10692828982170262,0.03478763151111559,-0.14470002238185506,-0.004493856861401066,-0.0036014135536316712,0.013215428608732852,-0.028781556172707955,-0.0046304630176177515,0.0021594859988914627,0.06388774968055985,-0.05831572135358933,0.1011285532856132,-0.005941787570339009,-0.0006162836813085535,0.037191272516747975,-0.009423091061527111,0.00596268366611994,-0.006503001238660771,-0.018330838723979597,0.04130327596715223,-0.0023898577794591188,-0.090553725584927,0.004268989625824474,0.03919537894777884,0.01145130558976527,-0.018677333786533388,-0.03982562091829829,0.08476963280342117,0.0909283668831966,0.03712675219954579,-0.0187359033016787,-0.012900608709577807,0.12017969411756221,-0.0410980237292365,0.09666776975131218,0.027319342649884983,0.06670931210975199,-0.0042866382094394195,0.012570832177072139,-0.035675256297973454,-0.04963482417228911,0.03129162262892356,-0.029550132569551628,-0.033000176439100734,-0.07369522734824156,-0.0029898240116948667,-0.002909223289317427,-0.0024739859837096066,0.022735378476999978,-0.016962376124768176,-0.03630508403598767,0.010133829223339793,0.000762946668054714,-0.09967477172515637,0.01616796055892087,0.0127703298653229,-0.002405089323216278,0.0011583198322920232,-0.0064446753630589245,-0.07751285586904884,-0.0018998318571144715,-0.10395878504869566,-0.04917556876003979,-0.017724365605553443,-0.09555407329284327,0.030026174798625477,-0.012180224551767071,0.036659882359959955,0.013151924719673615,0.00398329837593502,0.010130374544824058,0.009489794672326274,0.06579124849663423,-0.07273753096177298,0.0032628375290314274,0.015039498807120502,-0.010557494000487364,-0.013894839212768496,-0.05360435447377985,-0.006075637931904872,-0.005117679362007728,0.014256062602276102,0.019557606429925965,0.0120965968232569,-0.04217856183728835,0.06341175522756856
45.61484909057617,1.2399024963378906,0.06404166369600246,0.049452618869103335,0.09048643690678282,-0.047779021678558756,0.023668395190194105,0.027618082021136553,0.040697876223867106,0.06842487474937825,0.17380327887032804,0.0652980952344708,0.06505915706635869,0.1166287122446208,-0.09610812448278797,0.039512748741121415,-0.0077335231418052906,-0.037236437909461205,0.0684281388836102,0.04200110270078131,-0.01697672154487248,0.012843201688468921,0.034396747106844316,0.005983055282776719,0.0017721972745587855,0.0571417775019412,0.027045448531266187,0.009192286125177227,0.0006236017175310788,0.1268696074854927,-0.07022400573766767,-0.10368051857446893,-0.0392075214149052,-0.0008903222145455053,-0.016121719911635152,-0.05450732919419651,-0.0004965581801740349,0.02244621034694297,-0.08202994364184234,0.002192080788504396,0.02660884907318385,-0.005409674408881078,0.060359071700021236,0.03145121286462998,0.02268938910018116,0.008764470121269477,0.010305946051808337,-0.012184052392504783,0.050782757706141546,-0.004741223665554163,-0.033671737966865505,-0.0026456612460601715,-0.06676188778297393,-0.028092330279957244,0.011276943868381732,0.004846340543323886,-0.006639090216751422,0.014683525769035574,-0.05543151467257726,-0.0033097726279368747,0.07889880605327748,-0.0024229344545302345,0.0194203492121693,0.10684544718428053,0.04483488903794686,-0.06261553477900918,0.010379539693294543,-0.0527262008518535,-0.016458363163014,-0.017671826825456222,0.04749098326577844,0.054883766894153196,-0.0021036228000095645,-0.062148528012836164,0.08489385101888644,-0.016560038089874524,-0.048157332006552686,-0.014444524990683641,0.019115800659005207,-0.0006264199760349248,0.005652012753500385,-3.424468893721268e-05,0.06581229489008257,0.0013985957275296883,-0.010266655985844739,-0.007119338435605534,-0.013312470459544382,-0.011082916300251506,-0.0694806921918861,-0.06700389691040508,0.007109738077068366,0.06625783307505564,-0.02257499964018719,0.005424719732494235,0.026546386168712875,0.0034284188325155295,-0.0020299346565512705,0.09832195627208326,0.097602050048847,-0.021412128455174775,0.015358532247447253,-0.1059238001848828
46.85475158691406,1.2696990966796875,0.03514761712185491,0.043517812300694986,0.017623876237862837,-0.06616657814342916,0.04709770209790786,-0.09656761660194127,0.0021039768162427136,-0.020662646878183005,-0.017558288999986762,-0.03532327053187881,-0.10504661067685467,-0.05277938331042111,0.011291140398444635,0.22739819291091104,0.16991400160831657,-0.03478048407837831,-0.0014216690684170964,0.025358200505732148,-0.07940730599619761,0.0971013333414684,0.025478837791427466,0.05506955131747032,0.03511056136864751,0.029253292452389168,-0.019365160577428424,0.057132194417806065,-0.001454971536810545,0.003833266372631826,-0.006883542291447515,0.0005290159148317751,-0.0076174769167971085,-0.02388563054191634,-0.024505856428944896,-0.0862604532339459,0.030737918932512424,0.031943337775744825,0.016147682492500218,-0.006993751035239956,0.0020448215698124117,-0.03273968911397654,0.06336909583282982,0.0020110429145015285,-0.005580135203174494,0.008828744546506742,-0.014742680027813503,-0.08279310699936118,-0.005235243855368784,-0.11076092756932358,-0.00724203748002988,0.01121522417112638,-0.08439504464121118,-0.023123874131461827,0.014666518659549349,0.0850485073191397,0.013894377033067664,0.042289852771618855,0.018388905823816866,-0.0032608848565754064,-0.0022374895396063835,0.0029695687239339966,0.05995952666016005,-0.08657132607095093,-0.10751661132229937,0.09178960436702857,0.002821470418460816,0.06802611716022351,-0.02527553343171789,-0.0665495738790046,0.0007700438596458325,-0.08694879310407667,-0.010092090968624411,-0.015630746077646092,0.09750635338873856,0.0014149777544044983,0.005169947314648508,0.0536087221053754,0.061504617917203394,-0.00032725240394342395,0.007732912742245071,-0.09383944170357471,-0.005178592118419179,-0.0617400364942681,0.05113117907882988,-0.13059926082956222,0.01097446611449048,0.0997264151504059,-0.054412943062196004,-0.06115217787160708,0.011963218975139373,0.008103564811140903,0.06665693486855748,-0.04100668639259668,-0.002399532639779177,0.03154286396030653,0.05270596645942169,-0.04002986856250483,-0.056715431503030385,-0.005545992451536461,-0.015065893033896542,0.04886825671163059
48.12445068359375,1.3702011108398438,0.05699410951236868,0.08303833736485265,-0.0007370611357225938,-0.10605082809014317,-0.03107824181916204,0.01945109350926636,0.0692540060236763,-4.349988035737295e-05,-0.031352827397888444,0.04101315111230398,-0.15414681309331718,-0.015858602921832565,-0.034889547912095566,0.07760590961196281,0.009460839587359198,-0.0679601687148613,0.00518355051582341,0.008479538564619308,0.05941500612950449,0.02098619039866971,0.021657749309154754,0.20235270050150053,0.09851702747736656,0.014647269406381832,-0.03767173792667042,0.0249127277014354,-0.014855477352505333,-0.004950440709001501,-0.03164449428368366,-0.09387965476092724,-0.012007891968827261,-0.004639454609324035,-0.013415211590117927,-0.01287769578325261,0.020912375013698345,-0.04508357230141307,0.015034397060674587,-0.024398602040678206,-0.06559035454613969,-0.004648998339651812,-0.044939713145381276,0.008693976147873886,-0.0642524095160936,0.007653784574360729,-0.0697187194836699,-0.08112709836078007,-0.011009546482765338,0.0026404264649454528,-0.0672617586746147,0.05731750695513113,0.04802316094295757,0.016103807792600185,0.0901522695120104,0.039851139836532566,0.04153888616761844,0.061923811937496964,0.04483168508106708,-0.07057420787107521,0.01383446599799,0.07428558028155907,0.04709416511618437,-0.041851172843465206,-0.08279656644273037,-0.04221497782481758,0.030623646819873604,0.08309023665044003,-0.01937362230565942,0.011441531747891778,-0.002283324160962136,0.013602510665828004,0.004005750041243944,-0.005388638709388292,0.002055045323525809,-0.012468664987881933,0.004152269893519425,-0.01003722072555312,-0.0017340293701907927,0.008384406185775583,0.021773981405944276,0.0458461475257786,-0.05021705968414625,-0.008925401780092058,0.021841823384541485,0.0067279564441626435,0.055545211913544466,-0.027565062525871604,-0.016803946446514787,0.0036437549253750022,0.06938330441372138,0.01741392296433358,0.008562974877321088,-0.03208988619082861,0.02494182126183394,-0.017400392322764253,0.05964865642426479,0.053987231281686816,-0.001634440996100867,-0.012568804704363754,0.012112163223586131,-0.045425372089710966
53.27315139770508,1.1501998901367188,0.043021542982136285,0.10223315380842754,0.027956925175135223,-0.019127468784320575,-0.10456174824344784,-0.022502548664878178,-0.01574694738793197,0.03605656990405364,-0.004081669565213123,0.06237716382058264,0.07926586672442962,-0.03259341377433787,0.006731624264818006,-0.008201695959354355,0.008616417094175093,0.0003039168182128668,-0.019607968893184398,0.017287827023990118,-0.016655155590166452,0.02758251601765667,-0.00872842887035147,0.005804141058031136,0.09972215484260862,0.00051994617963767,-0.002499767534074233,0.0008551283837318832,0.08116358861719108,0.024326574447607212,-0.04148400600592854,0.002204303784084524,0.012339570468059316,-0.02787284710358414,0.004779196369883644,0.10123805096027537,-0.009510152774918474,0.012869201296308065,0.08309356640010827,-0.01054240903464477,0.024116716846226825,-0.021406086446567475,0.006731995789026626,-0.0530388579661874,-0.010798527621428827,0.07190292363625343,-0.04812843336249528,-0.029634603685957425,-0.01435792391422338,0.006764372080528472,-0.07695623609392252,-0.0214552343597991,-0.003530591076080221,-0.04752995551643378,0.029974620570334055,0.03224961736691109,0.013717580333568447,-0.001448140861551695,0.054579179631435784,0.018459173380758774,-0.03027002968295417,0.018748510019384282,-0.04581520424536828,-0.02179950682111555,-0.09485318846087934,0.03133588118606692,-0.028104450066426857,-0.010675592765808671,0.0807700497955358,-0.01057138396733143,0.02326644797483431,0.007763568821979771,0.034787739617323385,-0.015230803064530538,0.021586612152791628,-0.003764589412397216,0.0024871225479157245,0.028573735856157134,0.029364895961764448,0.003301436193505225,-0.007804162063881799,-0.06439084416737256,0.022051628564178805,0.001536474460983654,-0.0035416757996978754,0.002535679216877681,0.03409887626210622,0.03543268517387905,-0.014713595602677931,-0.03626324509050472,0.010668280563748363,-0.0005181408405620577,0.0014583226346005667,0.07260285518018066,-0.034440478535922484,-0.05967637688287969,-0.09683057720550631,0.16307450478720487,0.003383407962895866,0.0075813413189455,-0.009600130675972804,0.009218203979970573
54.4233512878418,1.159698486328125,0.01802533239461087,0.08489653331673348,0.1502769592421392,0.15269723002549496,0.02812999587211068,0.03328278536061643,0.0925266980037852,0.027522723113337956,-0.044605616813656726,-0.11369714261595568,-0.04099362408860489,0.05333406908661451,0.07452122191276855,-0.05741295279669884,-0.08808322168316814,0.023916402135881386,-0.006918944490469147,0.042202130713221306,-0.04326575102938923,0.026120224842266913,-0.031731946249399394,0.00048663863073332794,0.004540532311521907,-0.02405268833171844,-0.04326522461492249,-0.0121843717474964,0.006929845918096924,-0.058928429554802306,-0.004381078211297123,0.046583524644837546,0.0029650017194948622,-0.034355136162183796,0.008547280652357003,0.06826802714688382,-0.016978084149331468,0.036659550124460996,0.042683728372894136,-0.08157667704900293,-0.011981870951290729,-0.07747840143606952,0.012033214553061979,0.01087575178657784,0.024065221094005818,-0.006192519144595489,-0.09934525712123407,0.09359565841754425,0.033501920335693845,-0.05786937985257593,-0.001027535012480503,0.036081808633805064,0.08071315697001889,-0.010307990317117384,-0.05030845208046379,0.00607503084380797,0.028130520462096388,-0.025210985256276294,-0.006030631887861576,-0.023448579820995023,0.031516315195109876,-0.05527807062985132,0.06863846639118432,0.15597150079642996,-0.03718503192533817,0.03203115571243785,0.012059494959810435,-0.10713769556398361,0.01288487666763453,0.06359273988400377,0.03972025747098512,0.025426865388457984,0.02821646239310565,0.010577432591656838,-0.0319517474661051,0.0014319149828804223,-0.01069863794343932,-0.077175113966717,0.009771198233148296,-0.002761175419675085,0.008027955200274509,0.021300472555505615,-0.02152832514741848,-0.040318280627714156,0.007112913128580625,-0.005164903743655627,-0.07246810547206356,0.015460233015807887,-0.060370567847566343,0.05905360114220811,-0.016818948568178217,-0.012345698610571016,-0.06674370079645406,0.02150209916729331,0.013589927216146722,0.04824482253015886,0.00023557209419491248,-0.02975282012324745,-0.02470323421868139,0.03486545089982192,0.04766094185346079,0.006342191461268888
55.58304977416992,1.20989990234375,0.013600136471491414,-0.059624472924892015,0.09944570071560546,0.14070642591212,0.0345768079827857,0.03597173467851913,-0.050677093233290345,0.030307874300854593,-0.048312641974266185,0.026460001358945873,0.012552083181671767,0.0946100608761233,-0.06734067889430427,0.02138287109459111,-0.04431126838250065,-0.0022296401231316344,-0.0047395186006143125,-0.06361610052901844,0.021549861071750706,0.02349742622060262,0.03409568248347138,0.0731625439910586,-0.07554838577232922,0.005262455654621955,-0.0017457316848274412,-0.019246995351358636,-0.08984325832371647,0.006997420638303137,0.0032361568267761463,0.020770198791627628,0.01987801692158572,-0.058658399695068995,-0.008345410504326939,-0.037727253200877664,0.01041219062307909,0.002609027998696973,-0.020944208308325538,-0.0074578767132795765,0.003530193507763076,0.04747267648454383,-0.007097502569624602,-0.028851400579822377,0.03045979100245079,-0.01540633105278435,0.060768268762943396,0.00884225594299373,-0.07002745558245066,-0.030938100985115596,-0.1312172056829947,-0.014175305632699815,-0.04972370900105753,-0.0012684833336362223,0.008487365545556236,-0.04885689665433286,-0.022572850853385135,0.009830153076044769,-0.006055281290024361,-0.032970750767156394,-0.010841070738394912,0.08112813680865552,-0.06558358515882377,-0.04502860257004848,-0.055984019060167,-0.019179445599901812,-0.06755119136465318,-0.05608606673610508,-0.004533780805464212,0.11469524707834651,-0.060001577366044445,-0.0026721929792066163,-0.023300493294292225,0.005118828430864015,-0.042903937904985714,0.005307080906484632,-0.038289664550651366,-0.010185163900309317,-0.016354171974505748,-0.003470423997833128,-0.0012964094877761234,0.014665859032145711,0.0032419489357907454,0.020484530108057227,-0.05900422853302905,-0.005086852627239561,-0.0005567465407826232,0.006408359543566073,0.011162329132000744,0.006231389684718369,0.00016966052025732558,0.0008905910558225602,-0.023936739876207827,0.06248014824894114,-0.009444081763263874,-0.0006516484268134911,0.036301720521956786,-0.0522028026626527,-0.06782204078872169,0.04740638572898978,0.003102948267736688,0.025114843169632438
56.79294967651367,1.1893997192382812,0.027429623618088084,0.038689751734562586,0.04056386030455608,0.018079692403990873,-0.0024434467184409688,-0.028541728282655138,0.05449723784610438,-0.025566040599118666,-0.05563778188648746,-0.02798935353346564,0.03616466238362753,0.06518627104363778,-0.0022575533641674417,0.19920359374115681,-0.04730164561457744,0.05069141010947013,-0.018211033659527257,-0.0730912794540442,-0.0017858429226949059,0.014543888139526725,-0.0031628601105753874,-0.028341782636044317,-0.026534506788259832,-0.10717050781547659,0.017870340485152802,-0.02165047632778332,0.07177161388981942,0.04738643571307187,-0.00012744425987754426,0.004995188286708269,0.02634638000741965,-0.060717556808759426,-0.0039033225116341715,0.0656299756385792,0.0019559465697356455,-0.0027719493189018157,-0.0495588050500204,0.0003778223288047664,0.006338206277792467,0.09341614238518481,0.006566760284582041,-0.0057328525183021825,0.06766079249007813,0.016027703764407323,-0.021564255964951876,-0.032522061038903274,0.013791786457488164,-0.03320320438976776,-0.0018690994585351178,-0.057383079518513305,0.055500683295852775,0.06814481877765768,0.04165291786425812,0.001006599996404461,-0.05707810979331917,0.034037471314053214,0.021508901828110855,-0.0013018285410839902,-0.012424791103201126,-0.0013883781032888666,0.0014267610123918193,-0.0418479921407409,-0.02189778286238417,-0.07597312318821586,0.0408432084729654,-0.07602027792339092,-0.005576110229110267,0.015440568031697332,-0.002974417714002014,0.006312919948953308,-0.10691628816116153,-0.12090678774724653,0.015749383470447628,0.06898666791304454,-0.06546164087170835,0.021722914193829407,-0.0015455217520712852,0.005968773871781215,0.020101937613105837,-0.0007600252220605478,0.0017966422529977662,-0.013423584427198095,0.007916080524013923,0.021944438681598125,-0.03454722919620743,-0.014266513606045798,-0.001605820751904962,-0.014326309965117759,-0.01226182130983387,-0.06749015769926626,-0.008768634669762467,0.06520390060545857,-0.06757132119280744,0.012099947393049664,-0.0877843625303198,0.10442852049496537,0.10859283309337378,0.032128524926214194,-0.09824573675664584,0.056997647352052594
62.901649475097656,1.1797027587890625,0.046658041811673906,-0.06116342450320437,0.010305667687398554,0.00313629988985311,0.016934837995299358,0.02388579409344274,-0.023992634813218245,-0.0684657418674164,0.02101501091711437,0.04170926701654395,-0.0038416346237688387,0.020182354564645216,0.05580615417445628,0.048525518992789014,0.14739192098758094,-0.028888711787225116,0.04396008320690512,0.03833075820188686,-0.0038427809243950367,-0.006529521136679404,-0.0653589035220774,0.0482265548779144,0.013468700427419841,0.002931930056988363,0.0017592303060748465,-0.06568005097657383,-0.0019068648100939159,-0.02117498773865887,0.030768319929409597,0.002923679631561517,-0.02582406619405818,0.02182610644045057,0.009352518880673592,0.050527044938914766,-0.002779270167941402,-0.013243393782881927,0.035205514780493635,-0.0008263521636358189,0.033367996212187605,-0.020963199448811934,-0.004024749333263463,-0.00420611356813194,0.03174879705313055,0.0008721272621553111,-0.01148426218728383,-0.0021144896105650506,0.03555983765078127,-0.0012335930968337481,-0.030716968234746962,0.004436029115547154,1.0978052375427809e-05,-0.08353633951617914,0.04402397444008188,0.01666827216794141,-0.026992218167491328,-0.024143561840143678,0.003313244353486142,-0.001954495860130853,0.004784733928660097,0.03256565479124081,-0.13245502866232808,-0.07302286440116344,0.07885259211450767,0.0863017821134167,-0.008504098751126182,0.04830530303719974,0.09870725610800755,-0.03241814768128734,0.008713353292524484,-0.07784988945873285,0.010527433758443457,0.007403898968258226,0.023857837624905964,0.014781876815185863,-0.06548711110531845,0.06020095118371438,0.0061265923762940456,0.0019791777985926455,-0.019705303230425075,0.03505627553127299,0.0009727222759356018,0.00014550663689381633,-0.0004757399266458907,0.001004650395840907,-0.008191496548857374,0.004766439867069283,0.019730834170228004,-0.017742940769169914,-0.006592748699526682,-0.020526454061406872,0.04834121722301456,0.008201374116053855,0.07112982140221392,0.020167118851689318,-0.010286086655232911,-0.03144334333655448,0.04736829040383279,-0.03676002813167208,-0.017347434030004452,0.022674168451693982
64.08135223388672,1.1703948974609375,0.020490093225881606,-0.08102207277554989,0.06953458421185135,0.04780627773787545,-0.03602968409818352,0.000528176133965949,-0.07771146989727902,-0.06865769371076683,-0.09821046929231228,-0.04432847517520065,0.03311862398878835,0.007994500409746346,0.02835322156564586,-0.02249907483975716,-0.07334875518404302,-0.03765222705135498,-0.06617701592806748,-0.004530098735236235,0.11350675850155466,-0.05290003794416483,-0.01603405988725752,-0.005682559268047275,-7.858763757899451e-05,0.00015579785486057648,-0.013597688138516261,0.003726104746566812,0.0431169315199624,0.006681178503857682,-0.005489574461481793,-0.035791843386309904,0.021033464817727283,-0.0053155571960977754,0.03943287509429551,-0.019053744545041818,0.0079869816326406,-0.016115920181575896,0.004535645734217475,0.021774208462743378,-0.038824277743548234,-0.022860050001076732,0.0003541700764598609,0.007014286106250434,-0.009972565517049531,-0.035111988989370964,0.008525358949639615,-0.0497938345464247,0.1203647459070673,-0.04781659501250414,-0.009915722099485873,-0.0030415260387834085,0.03484094542381226,-0.06500783613392756,-0.060260217299663646,-0.008767222925651106,-0.12965072156413227,-0.03286634214550739,-0.009711560546499574,0.004174349340600083,-0.01090312407325191,0.11671310659670675,-0.011039218162256562,0.02431034134878869,0.0206996709352615,0.04262903955852875,0.041042475607079666,-0.01214048578600316,0.05581786193117332,-0.002108757938613496,-0.01922340966822041,0.017873301018067153,-0.009636461967876155,-0.009044922774701652,0.004995284596453897,-0.010548082757971195,-0.007651463250454449,0.008113923362739844,0.0032324514134999737,-0.019618355178602966,0.022026618561843972,0.005167395878166012,0.06280291551656611,-0.08275407570583544,0.0071048202680257565,0.018342139814066283,0.005970291441715884,-0.020842733535987278,-0.005236869170002269,-0.005560828669365174,0.04017616187560699,-0.004361338242228797,-0.052428732427382066,0.00036759952242777826,0.03091287693718142,-0.06416804215237182,-0.0004720121884856653,-0.005063399527949451,0.05196670863761658,-0.019186904269139247,0.09456198704775791,-0.12049707928990563
65.25174713134766,1.1992034912109375,-0.11338764611114929,-0.04095145861848793,-0.0714152591029277,0.08477271449373136,0.056776676994477304,0.06634417225963284,0.18256858715614052,-0.052111419460185,0.03550098627271435,0.1683285953261738,-0.15137193272677818,-0.08435634675411471,0.0998954341329045,-0.06780569666945496,-0.12385012855104052,-0.04018599585145311,-0.049420123888106,-0.02538690448005167,0.008270995213336251,-0.0508483792662808,-0.011231195069404827,0.01785829493416729,-0.05233655020835723,-0.02422467576246684,-0.10127692856457964,-0.004288371771697921,-0.01571769510794396,0.010906405544296782,0.00579974518409244,0.00045539785317219843,-0.05065336657390052,0.0014321683619806563,-0.0029674773729848106,0.017967107219415454,-0.0212256402449783,0.012735376945164524,-0.021850352443821407,0.04652764713724706,0.022785431445279652,-0.11792181312796897,-0.08852593987387636,0.01823777415546724,1.9575014641605827e-05,-0.03133170489862854,-0.08523564616226519,-0.0361667241793284,0.008353962046497692,0.060206986253070326,-0.01174611957158973,0.03948582530073923,0.04655253759752548,-0.03824798695755582,-0.035770744195416294,0.006733145404714333,0.035139947371079824,0.10386711285666138,-0.025654006184642822,-0.012259510708533783,0.024944077699909358,0.007173610406054122,-0.05978542595187505,-0.07560866519415646,0.03532273019938284,0.005127195807328358,-0.0008213045375394523,-0.023192653720602006,-0.008889879996395159,0.0808082905749598,0.011558179279714968,-0.022664696104008585,-0.026997068630968183,-0.046488535948583036,0.015452231561302552,0.004121275732888058,0.0300115558151482,-0.0078004635015208185,-0.021664157970370693,0.020082737895781626,-0.033759059657775155,-0.00471707381979342,-0.0003259901792703148,-0.006130195657066804,-0.00019677430086108253,0.026039554307083355,-0.0017246165433740617,0.030102742144085037,-0.008720286627475824,0.014341446199053231,-0.029386936215776364,0.004562856625911542,0.011208179610932966,-0.05552682963469499,0.04540483690812505,0.020250603459984213,-0.09125082409379978,0.02994820505366929,-0.008198755913396139,-0.009781149996326179,0.008350661255014208,0.03133651911817979
66.4509506225586,1.1901016235351562,0.03616274528115673,0.045980593016874835,0.08879142286268438,0.030728427019141684,-0.009777580012714478,-0.008817672929516879,0.06738169543344856,-0.10976064685993482,0.03450199455715244,0.08355018446831683,-0.0192058094714461,0.0101556286098475,-0.045167242267639,-0.06078576597922321,-0.08937693835128724,-0.09228008665946523,-0.059499622141996104,0.029006647250361162,-0.05728050455699815,0.013402969798370613,0.038458069426797935,0.07886678260395955,-0.014872733773798713,-0.011989477744098148,0.04399806619599394,-0.03574909686413139,-0.07288240658906436,0.04594566872064351,0.019457257270520167,0.0006776283236243874,0.044316318221205894,0.02597413717595297,0.04382980432918448,-0.030582311666693986,0.007301611878438634,0.0021685615479498034,-0.03970048116201551,-0.023343840797052054,-0.0007274969717519416,-0.005810754655110734,-0.020967349988303425,-0.031660198174217224,0.008315281576227363,0.02633585693633171,0.008071579183256026,-0.06363096321959597,0.012850022795952867,-0.02449807688657471,-0.05632540110635175,0.004774239521404482,0.02742283810959938,0.06370204535675573,-0.00457441781773586,0.05861622132666166,-0.021633284559759384,0.022737925613046543,0.04001319206860224,-0.09421205868969193,0.09465645914323047,0.005915052766176504,-0.005548017050652611,-0.017474153149501577,0.03939078836628798,-0.010637780287501125,-0.0558054424568253,0.04769242946367951,-0.0034240307756663577,0.015095935773338284,-0.012164581553376304,-0.0019829978971669473,0.003977420917805272,-0.030751428838651274,-0.009422919714599857,-0.020643372489099303,0.1086865955312114,-0.0060741230785083655,0.07113792729150581,0.003434572301186307,-0.003153354702544918,-0.008820437232395166,0.00914734933953367,0.06586416369936876,-0.033343548367634736,-0.01644419955210758,0.02081431901939548,-0.09678853184825961,0.03814225487246014,-0.0054493271233515325,0.009767526257474353,0.0011649502388877213,-0.03343082035163528,0.07800131402414395,-0.0262173284197999,-0.023791135010202025,-0.023845857362315884,0.08887032802573501,0.08205617591771601,0.03500088818857311,-0.0007296899426547303,-0.013824435257115745
72.599853515625,1.1597976684570312,0.06006529607494081,-0.02347108682874551,0.009386499174349753,-0.10162931800446447,-0.06120441194044371,0.014500059186897922,0.08750898902325044,0.035030916139838275,0.05138498640198714,-0.12410545126534678,0.01611156217997597,-0.04894692333502325,-0.18281565327581129,-0.20110955300911634,0.03043899636505567,-0.1663370223965216,-0.021400335077309304,-0.17225543457962286,-0.09513121676078282,0.010554373912486991,-0.012572559393252695,0.014123552266564157,-0.005012094171200353,-0.006036028399462613,0.04988857146075328,-0.0015622867062569906,0.05512567515562661,-0.07556330815482482,0.012476990125402035,0.0422286042501758,0.08145705905681466,0.05528884049123735,-0.005557273005900516,-0.03328578001329242,-0.018773534035002894,0.01902789128063989,-0.06041936767737669,-0.11468724891085849,-0.06760722493058702,-0.012866687983853844,-0.10288851785024916,0.009029077701437321,-0.004840989057896912,-0.05631728985828313,0.07792381637755158,-0.06256566402919225,-0.0069199350533727146,0.03454780570187372,-0.06332315169684588,0.033194446343711916,0.05385404629637623,0.017356505750060057,0.0026037378305206575,-0.010154765587277109,-0.03317227786564327,-0.026228191860368198,-0.013624051473428204,-0.0033617511523656965,-0.010846259025586238,-0.06876812318893796,0.011211189330816187,0.014325718651041524,0.024579474052678178,-0.06748710751777821,-0.038307511452300186,-0.034621100449598825,0.005811263525935656,0.007295803252344371,-0.014255874777978454,-0.01657082606696776,0.0016248112288653374,0.003638369570140815,-0.012942644974149833,-0.022113023980853963,0.00276694644971201,0.013373973111451748,0.05691361990039045,0.0010179671665888033,-0.08192472660438968,-0.0005812268326983505,0.0770155219743258,-0.06337311514188121,0.020620123266986243,-0.07147197757369711,0.041988677376693595,0.0022080353665130314,-0.028485177374561525,0.033460627881272895,-0.00493009762073947,0.008655380058565644,0.016648763211509352,-0.028033413907983334,-0.09250377609199761,-0.0035421263619605185,0.07561259078085113,-0.013150737262764755,-0.031078505277525068,0.030957055640228433,-0.08317583514987581,0.04657745446798267
73.75965118408203,1.1697998046875,0.055047362556105886,0.025853591213096834,0.029320837214217202,0.104068078254191,0.02427074271429642,-0.06072088137746003,0.10234106828501219,0.0933234799044815,-0.023687012886690527,0.1020145814109309,-0.12797222936460773,0.007651610500429137,0.0298197899740792,0.07297951427070837,-0.024920263841480345,0.07657758455207109,-0.014194432389741496,-0.04250030598244302,-0.020522587817322805,-0.060191315318391905,-0.026490225837336366,-0.09152655977084272,0.01658780419861355,-0.0016617460999925797,0.08576301020292909,-0.0004897264146232882,0.06150339610581222,-0.0361874028208982,0.002535464897221641,0.04230261963906655,0.029968988439701437,-0.05346390526414402,-0.0023764653358543516,0.000451214352648166,0.05548836619112705,0.03007332326040277,-0.0033836031847657294,0.034289506691564026,-0.03201681880677415,-0.015017046865540451,0.07230926167851616,0.0050171857396414995,-0.0178635041210682,0.03475821152536669,0.08051661892776707,-0.00601698913218093,0.009730367275800508,0.008563939368398832,-0.036376939193356626,-0.02245671908434655,-0.030612247808526102,-0.01131969900514853,0.05081305821155638,-0.002457383438180568,0.0009231605361469718,-0.07924765184285967,-0.07051361136411488,0.007435445060957286,-0.0199722040787981,0.010300851730806275,-0.009804352689942038,0.004249464328183473,-0.00746480465035629,0.05575762167895499,-0.021796695973126202,-0.035486747267221896,0.0030085449817770843,-0.016081547829881946,-0.03270646668827681,-0.045407971178065575,0.05508378321386742,0.0009479005003623237,-0.12254639351667711,0.026962753462206383,-0.0664597861109627,0.022168018451820294,0.008812637762734023,-0.014726199772912561,-0.07406544468998853,-0.06663542150814078,0.0942593077384638,0.05847614616333636,0.001014321614585189,-0.00381558109985532,0.02017467732136793,-0.10633578794229766,-0.005093775322715749,0.005283226668412508,0.011947478431957459,-0.0157358918841022,-0.06950785942975218,-0.05479620430534548,0.013396584078611617,0.01961384945324803,-0.00029307652136704,-0.03713204332058436,0.008218727082453975,-0.06772057845707402,-0.046052352840868754,0.0058453044252531755
74.92945098876953,1.2097015380859375,0.15071342514527356,0.0054704626148958935,-0.04491131782801128,-0.13401205716436396,-0.010903620374489534,-0.10379616083653674,-0.09516298509167836,0.035540829315029505,0.08464869762529911,0.011546225857881858,0.10767944518510503,-0.1265981864635676,0.14970661350640443,-0.03328042899150048,-0.07672418680797272,-0.07745488906370418,-0.007747482018361463,0.09398570128124492,0.046132523221548864,-0.13546127714945297,-0.046228371198160284,-0.023375918819044047,-0.015973113942392383,6.428793439627273e-05,-0.015085180375395593,-0.0835898720003783,0.011544742921490894,-0.053641344520745114,0.005395402773274897,-0.0008308397766037632,-0.08715686067125276,-0.006361452612230558,0.08659342822105623,-0.01677597140339928,0.009966073242673483,-0.027092160743698232,0.06160580861024712,-0.01707118766985757,-0.07968230777240734,-0.011754024028127703,0.001886477235518426,-0.02261508245447166,-0.08152737374183114,-0.00416031490044568,-0.026742883205625147,0.0022383498485411685,-0.05222300738372383,0.0026510105673902265,0.044925716049067255,0.04652777529588103,-0.038510492019662154,-0.04033140021243032,-0.02419589316263147,0.019076468872817515,0.017352001793191543,0.0344018252426745,-0.01598063829076507,-0.02775221171093154,0.06829383740549454,0.08240065733523161,0.08062716427855152,0.02748434520310144,-0.00510534109388984,0.06091547670745667,-0.06221374424629202,-0.0017109842626713062,-0.037062138040706176,-0.005356019584977605,-0.08864112120761436,0.001409281709716919,-0.05543538922291005,-0.006284993512514863,-0.0014141548544576096,-0.03745919212670785,-0.060753030711703564,-0.002541116628038187,-0.03454856918090672,0.011091654865932637,0.012305519021529874,0.009911167346451352,0.11185051351939201,-0.02916178735962673,-0.0055067826200835765,-0.011221911866820014,0.003837272162214092,-0.01393981002545242,-0.015898870565573445,0.02937582472345804,0.04200063503179457,0.06897128960157199,-0.0164905117367214,0.0036723188692764177,-0.07266126874186621,-0.09571147646197416,-0.04503956633482792,-0.02378834975272399,-0.01028756292505912,-0.042277231134129685,-0.08411093618805315,-0.10217159476296434
76.13915252685547,1.20989990234375,0.047769826377275414,-0.044043382482996205,-0.027926972665201097,0.029936150437493637,-0.008436864055773203,0.040550491306666575,-0.09421525536793088,-0.043880451396060505,-0.10179725150843191,0.0018101091793551495,-0.11387128390744007,0.14629173847160898,0.04876927540327013,0.11250806951359145,0.08226499709432825,0.02923829860869498,0.2532953521810774,0.03299734330502255,0.04836564694875606,-0.004893561269061453,-0.010978897834586573,-0.01317927924467094,-0.01829921503691185,0.03618327131100749,-0.07330652695122597,-0.004126147884678453,0.09470420144693678,0.02752232911069492,0.007938223839360693,-0.044502362305790924,0.012717144099689392,-0.006697276193529436,0.0031968858323760466,0.005730547013942573,-0.014645240935284881,0.007167785908903607,-0.003081323511428101,0.02754293917789391,-0.002103284365393238,-0.01782440933688773,0.012089754792398636,0.004854905717588679,-0.08713681476046185,-0.0045397697317545995,-0.06162540993616254,-0.00038386753509350323,-0.03981325040797369,0.0072968261243559615,0.03024134025359855,-0.011513262674002139,0.015412280211968585,0.06229168115455299,0.0014696360288963385,0.0626943937231472,-0.03111288320586696,0.022984936051818356,0.023089671794567446,-0.02127063879632431,-0.02219916309085308,-0.09262548128456602,-0.01034648158297439,-0.0052739973580407645,-0.00788191925266286,0.005818735898947579,-0.022388370511719477,0.004008691662633498,-0.00815084026353411,-0.0680359146803269,0.009657346187435318,-0.0053145871011472025,-0.002537550257760179,-0.05781874720072331,0.00240139308806503,0.012804114127381541,0.004406872583811838,0.01335495638088897,0.0005312095341632364,-0.027247476683504798,0.0958787264862381,-0.017672023084810154,-0.05158400341722874,0.0059959384135932735,0.027704754202260217,-0.056201719170057826,0.010191650599681162,0.04788103392205246,-0.02487503286317783,0.03476550339682219,0.005255080365568483,-0.08134511744966366,0.004451128456997798,-0.03632269585294921,0.0034178759149654818,0.032249181186179046,-0.011123798666971255,-0.07018714541982171,-0.00027506066596356764,-0.08273300956547658,0.03407443569112053,-0.07416058067566494
77.34905242919922,1.2501983642578125,-0.07651962400896098,0.09429898580944039,-0.0105271556529907,-0.07116504328361192,-0.03025566380846027,0.06633182697868807,0.022880540023552116,-0.08371419296628765,0.08673633631591562,-0.04069463130174338,-0.13487091098045856,-0.03220062958708174,-0.02718024133038348,0.04745075443279531,-0.023672943053434554,-0.043530187536543856,0.004223626743664029,0.056089337813196326,-0.10842877733037579,0.036295419169363775,0.007786397378639322,-0.004372277089226944,-0.033737457690535565,0.026329361530206874,0.00036335464134963917,-0.01711628742525,0.02574108127394456,-0.09362505893873119,-0.016225911267241187,-0.042417678588846285,0.016145042175994596,-0.0019742310809251155,-0.007732186894438072,0.03234695762961069,0.02931914116182401,0.027137243357554373,-0.002472665806352305,-0.0006147370710808702,-0.033309346314847166,-0.06970001541498126,0.014638266897009039,0.005858911758017079,-0.0243996864303737,0.03527470837794419,0.003999831363351366,-0.05708700854196955,-0.009755932010145189,-0.023638213414880153,0.017656618192141406,-0.014580014620274088,0.019330983270968955,-0.01820139102120642,-0.08199012933428305,-0.004443719989646632,-0.03854415708131248,0.07726650099565037,0.07264356384578233,0.0031155794646695644,-0.012706513051670261,0.06912904153408778,-0.026163333955100652,-0.05937055904670698,0.0028665297331069706,-0.048269384706909876,0.025379332563551175,-0.0032981248851327236,0.07344709930493669,0.022665607038745903,0.008259046332845627,-0.030541641264128328,-0.014232840967030685,-0.002387976827520562,0.017120837892467503,0.03178885698273015,-0.05698593539684224,-0.029622964032818333,0.03972869284934007,0.005244538897579282,0.01270911812065404,-0.001127522509025068,-0.026893173788112235,0.10132721318946644,0.0074454173969747475,-2.6917444003826544e-05,-0.006813624521321851,-0.02876158432377039,-0.008198404934669267,0.04439115044021974,-0.0004558969287524117,-0.0058298906671584005,-0.029673477884792698,0.010762466773985964,0.09155585428494738,0.02227633392182587,-0.08344445303797605,-0.016603123387460672,-0.0003416930928127433,0.045441554086431725,0.09139153190066217,-0.022418553600873505
82.33854675292969,1.1998062133789062,-0.029463847851492267,-0.017148561306760034,-0.12721673749844317,-0.03581782635307748,0.01546458888574763,-0.06596738160160165,-0.0016209868494014685,-0.001994580288107595,-0.006322951873747276,0.047660591021143776,-0.035004204551531914,0.0022098253143609486,0.04898034519389502,-0.004990232221975867,0.03025413813649629,-0.1619653169852929,-0.05867642673175666,-0.05105996786123042,-0.12279328312128153,0.13572472933103716,0.08706973642690803,0.06984859961788223,0.06554813371981333,0.005355102439533273,0.014337985514006488,-0.016346020775529633,-0.01791597599321583,-0.026548333368237115,0.01803079885961939,0.05618240227251485,0.07345667128412345,0.03579359277804504,0.014571098689896568,0.050666300271590754,0.0034445535825246717,0.014477474177112301,0.0058675047107380795,0.1235015544160768,0.04734833170927287,-0.06690599372150761,-0.0565127907462682,-0.005292587849752504,0.002024636497921911,0.0233234828975493,0.001743726372579941,-0.004075523985399869,0.021605950758550235,0.030905530878211608,0.030437099222491805,0.017862477736908435,0.06304479105999328,-0.04622368285107094,-0.017352602454717994,0.033952469726158584,-0.012818064673675661,0.03427671828554556,-0.00039562408780717095,-0.02999740881284368,-0.05740273901078285,0.08941709546821838,0.10285886102575793,0.05781736205385788,0.05881577751340495,0.03776120189821668,0.028994710764213425,-0.0020968475239919286,-0.004644593286553127,0.011776441146119147,0.10464847039996826,0.02879535371723259,0.007250504160274508,-0.002284660210996884,0.013563743027759497,0.11892823942977435,-0.0373273974486341,0.001733531467162052,-0.06517726297821091,0.003910876039933026,-0.07036691353577855,0.010408896872730508,-0.015826093123518983,-0.0677007221195184,-0.07347667520123669,0.030775375428505634,0.019113887259711745,0.0013432030633928468,0.0916415375308059,-0.07860082895220494,-0.028881072835270055,-0.012068411325781585,0.009388170821506907,-0.022184003958392054,0.033155344980672116,-0.0006548508146298516,0.06321923553916314,0.051326633177795046,-0.013152278077603146,0.008984178775775665,-0.015507851987052262,0.06472236002228787
83.5383529663086,1.2099990844726562,0.06315935935162172,-0.00651140180154919,0.027786558409380976,-0.013987256879240278,-0.0035107933758634826,0.016050078084243774,-0.11120174863619083,0.027326233208893887,0.04537785684473489,-0.023638707154033593,0.114137641456082,0.16807088962983877,-0.048933920786185484,0.1061958966462451,0.034470192005238466,-0.01664009441000793,0.06558092180899945,0.05242475296233765,-0.006185979753448456,-0.0016950216343150147,-0.04371474948615421,0.006106408303089138,-0.01983441259073663,-0.009380058929880279,-0.01866327409643416,0.010077581607530958,-0.005009767197609245,0.001202712739583898,-0.001433120861621232,0.0086904869296855,-0.014000596673669121,-0.04411234777426581,-0.06978166446183952,0.016750228705898016,0.003144659119771663,-0.0007946116558071616,0.07425133371271449,-0.004166226442190027,0.0025463566980296233,0.028479891936312667,-0.02377351084593414,-0.096131913104468,0.0353219270293571,-0.06663677011684982,0.004673166784003915,-0.033421335314833406,0.0009576607566218892,0.005284971943800928,0.03893858338979934,-0.05005585912769247,-0.03233950675902871,0.11785559818004676,0.04342460826469122,-0.022291167562984097,0.0008939882577681209,-0.020153809003759435,0.07122770344799846,0.023049118890370934,0.01950302483563843,-0.018491071709256558,0.02352756222576038,0.05856517294928247,0.039342388052824986,-0.05762671738215622,0.013726669788167136,0.04339156845103389,0.009044925018904693,-0.06106667915995723,-0.007704573102161379,0.000363433584473036,0.0160771249459179,0.012398467646106581,-0.010106221193285945,-0.06660222062650005,-0.00439406935404698,0.009477560769257147,0.002751587277394709,-0.07060646224006357,0.005008541250938838,0.054245193660600766,0.06877416173438161,-0.0027331441303981405,-0.03061412824726483,-0.04219483533833912,0.07520676854980989,-0.010685605406646988,-0.013805435376994569,-0.0040793274961928696,0.02311824491110375,0.10461435835044611,-0.08124051301452687,0.02754684958426447,0.04119280465048554,0.001115217536824295,0.0035128822179076448,0.0986878987263817,-0.029285150186132772,-0.10386837854048975,0.00342558491034857,-0.007656101249041456
84.74835205078125,1.2195968627929688,-0.009644040969717892,-0.020676309377919016,0.017386636200839557,0.06509473343731353,-0.06414267142369022,-0.2223876541688766,-0.11311805510398384,-0.0564979395214137,-0.07487049372417849,-0.05724142149790136,0.11717647323758945,-0.11094124321686248,0.03380216548432367,-0.00639491163257478,0.0033180926685793394,-0.06021925227991459,0.020522077326859452,-0.03962986488593498,-0.010591037922149627,-0.08540617700305023,-0.14612607499899016,0.03731622495103146,-0.032959356976672044,-0.08950611604963403,-0.0034014112940221053,-0.08380372573500447,-0.06539059373945008,0.027098613060204536,-0.06636882826989764,-0.07285910096026851,0.03920955312783657,0.015909841093822815,-0.018665837722166352,-0.026890982312790475,0.05966826714433121,0.001129661513512526,-0.030113367691662504,0.007859770284907197,-0.02048004345187845,0.044919384186200874,-0.009460524906053265,-0.01913818856031892,-0.03287772486820008,-0.014452445791780781,-0.0166972987754241,-0.04780628976951802,0.0030197098095427347,-0.058602289063313336,-0.002493648400252846,0.08939705408924334,-0.0257279230465806,-0.005304830801539813,0.047707347260660865,0.01945074496613783,0.008714951164937396,-0.0033684147546201313,0.04530073031376993,-0.0041283609290814005,0.10498980803652884,-0.01903586125602436,-0.07026930561831715,0.012122823653580387,0.012271644702663887,0.06958902596092306,-0.0378666035373117,-0.03421899205326387,0.0993205593521651,0.0030427494005398764,0.02470073978546853,-0.08909770801784955,0.007201379902053684,-0.019188321243735724,-0.07681097739698048,2.817061226737124e-05,-0.06558733575502326,0.0018578824232128716,-0.04472111941583756,0.014399405073091098,-0.014610605475481837,0.03294932400156786,-0.029681338529793797,0.025608034622007805,-0.005117734876538376,-0.011100139891420132,-0.028126164311944632,0.016154749887852777,0.04485919250588774,0.022777907677655248,0.010803601162022964,-0.07682507056541321,0.07512389458329638,-0.029460784580803877,0.00733311086600557,-0.04383938000156215,0.037156642039475996,-0.0709318750459901,-0.027541317993662544,0.04319287316920091,0.02809663233051131,0.03880065455927815
85.96794891357422,1.20989990234375,0.04179928357956449,0.033379606330240556,0.09315709272479519,-0.020834614133500774,-0.03157539140257217,0.03743083106815765,-0.0072625764550031625,0.002316602910539393,0.12261649972707489,-0.027894736958542922,-0.009316484932372136,0.0635596895020396,-0.041491819409816506,-0.0204122298004475,0.012624179798956924,-0.018642179965845336,-0.10447407469473648,-0.06945959456232062,-0.06105545199579057,0.0016178341067653267,0.20654309131276932,0.034444795782464115,0.010483154543374907,0.0051424987039719915,0.12757598553372648,-0.008358740699987453,-0.060483733523079494,0.009193377214655274,0.012476704490274566,-0.009698603112577284,0.02429116695819504,-0.10466769473296836,0.011814589684949847,0.005299981063889414,-0.018246674130674462,-0.011242228448239647,0.010307705622261222,-0.000985041388022946,1.3172137349999648e-05,-0.009146755302227319,0.02157093990670371,-0.004114286282750284,0.0128028817440312,-0.003218288599551322,-0.12232019057195778,-0.0021607005448286156,0.0017500345278564067,-0.00859349708419578,-0.01294917402560213,0.02066763044793279,-0.05899499579030489,-0.03336779828319822,-0.011859449875254655,0.01839495358662333,0.02409279033043095,-0.007452426265916921,-0.007493549472478878,-0.03839055801899636,-0.07208060507200861,-0.04073182793517771,-0.044957711255739136,-0.02231923514496886,-0.03221607708065581,-0.0024949005758188696,0.011316103392521966,-0.01659421120353862,0.04672603894603404,-0.08227146217726136,0.015410995608417013,0.053197157265237806,0.010312547390637335,0.022681379227521756,-0.01607877815029659,0.011312153572814409,-0.01069396471217851,-0.010777922368684212,-0.010612345574402268,-0.0019217384343514468,-0.003730673562989534,0.025269636886931075,0.04122967878947904,-0.017327243763745316,-0.12223451560762937,0.05797065181855758,0.024121906605527363,0.03145514970033518,-0.006025388048044938,0.005784336398964581,-0.07850632787810838,0.004462452028760216,-0.02923766644578954,-0.016574931770497937,0.008698899990220148,-0.048236506732198994,-0.01642330606177473,-0.04018062937581167,-0.08108264148478755,0.09029653420669101,0.0443037802352085,0.016716113715238068
87.17784881591797,1.309600830078125,-0.1194943248834063,0.05040206443114138,-0.05367859248569603,-0.06355674247118938,0.05781283859036241,0.012980797534987643,0.02022537069220483,-0.05757039218775743,0.020760094607634668,0.00029967999047427005,0.048009524274090117,0.001150386581968578,-0.03228453817873294,0.04347724627804041,0.11088604995106509,-0.03498374137298903,-0.018051252044997804,-0.07809799305753057,-0.010733134559133573,-0.008629317727421766,0.001485001152885272,-0.0007741068686692507,-0.00015841295003477427,0.06918470452111808,-0.003185388861648701,0.011116460148279175,0.031025645574620526,-0.010387676955040299,0.060524509419174886,-0.0008113863616399791,0.010805768244151618,-0.04419076950572741,0.03593031662539106,-0.06601625979068822,-0.022794352646023277,-0.05646784496250751,0.049723372065371904,-0.022100864166848172,0.02223150498862135,-0.04917847604152551,-0.0056454841870762695,0.06203898456003061,-0.0025514791937875213,-0.05047103169372771,0.024714291271313336,0.08124235781241454,-0.0027392021947350263,0.023979799244145693,0.0048290372207460824,-0.041551558875068784,-0.009854142450325138,0.0008349297408712054,-0.010657929800324505,0.00643449016070705,0.01101079083130753,0.08353993702602383,-7.098042896136144e-05,-0.06506043913685958,-0.0032703609263508462,0.03254438419124907,0.023975486913961487,-0.0018881246666993627,-0.02772219559892669,0.04117087457806362,0.007254553185023953,0.1178882384532235,0.03394622089436493,-0.03043900760196816,-5.9512480963992166e-05,0.015417268840785632,0.004428312577797483,-0.030429958103914127,0.024615558359389344,-0.023120628753681156,0.0031498033906944096,0.021517655245094244,-0.027817403571539088,0.031752596877555585,0.04270835923895326,-0.01519776530772785,-0.09376286241304187,0.0024501488010315207,-0.004772536491639873,-0.005413097587828237,-0.045130195753080186,-0.02053003835021672,0.012747322277355689,0.01614347448251018,0.09029624883500638,0.03866269207990408,-0.09068700117376755,0.09973887519936128,-0.05048214605602178,-0.035048042253358,0.034138738188279616,0.01585706522738384,-0.04424890625130663,0.010390565428756321,0.014056972593098224,-0.015955318648062183
92.12684631347656,1.15960693359375,-0.06683262963403658,0.05022463398502707,0.06151208837383341,-0.0872076038443716,0.08527155784666259,-0.1340028656757256,0.0962360816029048,0.04966059887685299,0.08554017793897431,0.04331422138535154,-0.017116856309703728,0.05413915497842153,0.01926952006880127,0.10569384426506312,-0.014082351879070615,0.04657058981932502,-0.09165875245850354,0.003971564797757687,-0.0739197837284235,0.07037915516136008,-0.0778205715906429,0.02073865707498833,-0.004540178997011933,-0.010145083838651352,-0.05812158300944761,-0.03190652174167761,-0.10321362986711828,0.01859268421320118,-0.009963983808794643,-0.01970424620601195,0.06808467959091927,0.011460178899304896,-0.02245578057257081,0.022249414702479917,0.0265840885759987,0.07346688996340012,-0.005275466209804855,-0.05401588184348951,-0.004128366184662298,-0.0013094880594886132,-0.04667639526278286,-0.051325388421536944,0.008454078623697986,0.043337895619744486,-0.002853347511837828,0.03783540604441719,-0.013210962103215405,0.043503864523551934,-0.02085668861822053,0.001177298956023456,-0.010372564507490694,-0.024317597304717928,-0.12148036879711765,0.043123146102404655,0.044036234844948785,0.005229396665675523,0.0053483474898960185,0.01648665977821879,-0.04192006035034369,-0.24303976900032156,0.07044897483286498,0.09626825472571668,-0.006819696053335583,0.05888745904476228,0.02511878742756847,0.0008583536653185992,-0.010595332989570716,0.0659160104249244,0.007300630607802841,-0.002252079399474792,-0.008426411889458063,-0.013721759660020975,-0.032104308561651106,0.09260539273353147,-0.028598218287906044,-0.04431518804810276,-0.010712787965681772,-0.008742541170618465,-0.00018191469542883087,0.04379031248318942,0.008844994995332893,0.0035046642840907403,0.008638172555610469,-0.05470023145065728,-0.004281954581994744,-0.12592764681319202,0.042187087018441795,0.12126902889799329,-0.016769753866361335,-0.08115556199246243,-0.02242905997076915,0.036457029698400006,-0.01676195777926797,0.021767551466936395,-0.08402447061023172,0.057654909596252975,-0.04335942453541723,-0.06395707167928036,-0.11627963061700618,-0.028018280772452747
93.28645324707031,1.1599960327148438,-0.019951100035444102,0.017200116963304857,-0.023279824406470903,0.0023458477567108774,-0.07389027418802066,-0.01199851992711524,0.02368957441806131,0.01737359420942233,0.035986354772367904,0.01630550891085378,0.09873710920298381,0.17599883375202918,-0.00713925972032792,0.016598902030762672,4.208546994272089e-05,-0.02911377746653233,-0.039841031091290405,0.0032328501774557088,0.026703232912406307,0.13679624366805768,-0.05032873279763665,-0.006799492631289586,-0.12051201773203986,-0.015236822742489347,-0.029023428311358367,0.03291810188540724,-0.009101883796747774,0.04724932124715417,0.004467111746013049,-0.008422338216776694,0.018018277309607464,0.026236226334301338,-0.016639445504307324,0.02021238991194107,-0.03075185627900852,0.11173775938768019,0.07126182678131814,0.001989521773497265,-0.03166356740596709,-0.0016568962475543788,-0.017418924172310377,0.07932847903271431,0.045952402722941016,-0.05516224770424234,0.029458614931949085,0.011507676395870609,0.01556394800455118,0.005495399784285847,-0.06675141148326214,-0.019860290245560658,-0.0026263286231800187,-0.06984001009641674,-0.005002789825910009,-0.08515890139091728,0.01165550218682043,-0.019814952396064664,-0.050232693960357525,-0.028407919472069748,0.014803455704232906,0.06228892665091919,0.007361322940852258,0.0313002559868403,0.002931371069043084,-0.038247151782685423,0.03379680559224272,0.036698903867952756,-0.011400830718412311,-0.05812517842707693,-0.010468387931124666,0.00420817244439633,0.016374526318297812,0.027867268015718517,-0.007992681654478575,0.0026396043966648605,-0.0182326763971276,0.024449079580932738,0.0009899010273884494,-0.06839729218455023,-0.000544330324540872,0.09012944435374673,-0.09640036846929365,-0.0015593329570048804,0.03907544244555101,0.06174856518693224,0.04274270132195913,0.04628942785915449,0.09143128051783982,0.012923700238088781,0.07925023586134103,0.09363679455372431,0.04176304982795447,-0.008614577808964104,0.059861325510686174,0.030638206548559477,0.013080412479433116,0.012569345821283467,-0.023460131395537133,-0.06625091603217112,0.014347995619550484,-0.010682029572555908
94.44644927978516,1.20989990234375,-0.00874818583521568,-0.09157345567462373,-0.071791381205772,-0.017040594864389566,-0.09958523138555574,0.08450962507999328,-0.02233886036855363,0.08526694271014217,0.02038158445256087,0.03578473673807947,0.11898523411201675,0.11615594333818957,-0.06491133630338412,0.027754050047688834,-0.0009501143062404464,-0.04597345519609358,0.005500393892648536,-0.01237878740791827,-0.05526226529783737,-0.09142687249007422,-0.07546037698220519,-0.010094391927574092,0.0028143849260582046,-0.011223347364354446,-0.002422460857513059,0.03434629897733966,0.020172333636191923,0.002810729308544562,0.00448638036482236,-0.06833569648393081,0.032762246681687424,0.006619329146381186,0.007061636025875108,-0.015361870787035992,0.07103338072092426,-0.016887634322255273,-0.11517666121564454,-0.002087319587389212,-0.046523117674531135,-0.0017848137969649737,-0.003163859316233599,0.04489386648510802,-0.0499062791075752,-0.005327948423865933,-0.02064673087590665,0.013949655360267928,-0.02022061272185419,0.02242033876678008,0.0005617109997452221,0.027986554576923655,-0.015316001436423823,0.021067919224706622,-0.0967611469132232,-0.05691140858819907,-0.021343060131441077,0.003275742401816731,0.01989681415215072,0.04188036663418284,-0.04450217121388993,0.0595005004590826,-0.017329610699475348,-0.011378238169337484,0.0070222851187064644,0.01854057228877124,0.1263214807826923,0.06545256666430159,-0.010910079995784777,-0.10227141822978619,-0.0034778951158496636,0.0035820935331882706,0.024787846386397472,0.07919883987323474,0.015531058487570255,0.05171677253046836,0.00797695286073716,-0.041666512224031255,0.006330740242185318,-0.00540097874937414,0.04735908365995417,-0.006259131102316205,0.06562401239575974,0.0012282433655190033,-0.0007325306386732855,0.004783450290059564,-0.007396102255340736,0.04246075936330196,0.022678344542708014,-0.030855623139616255,0.013545312061502139,0.008159801406788228,-0.03629350374532438,0.0017720858483465428,-0.0048897179221972405,-0.038242423504955984,-0.011253021825174427,-0.05514204575274035,-0.03496623847515548,0.11611155892719661,0.15177220999709526,0.06710106331098266
95.6563491821289,1.2096023559570312,0.07311139603063566,-0.005029564341869061,-0.0021956638977191217,-0.031154867931956196,-0.049227187485343105,-0.13068360266309736,-0.04099784418534156,0.03003112950141415,-0.04781683142387796,0.020148107641417657,0.07191430117662376,-0.023574181597647882,0.06332110149871553,0.06662402050957095,0.017025961241589206,-0.11180326363516489,-0.07426904543425138,-0.05924046881593661,0.007134692095819595,-0.010501190102107058,-0.025880779162155608,0.008796396642652245,0.004528308035854358,-0.02096796233599283,-0.05379376796634863,0.0022207408637218602,0.0019520705327261958,-0.002871468682378311,-0.06302121328754023,-0.00492460676367094,-0.01706827968683798,-0.02898972927684142,0.013906198147913747,-0.00043826713262823744,-0.0005329276208239139,-0.06116039838391946,6.286371153508636e-05,0.009764535826037672,0.01103202832044914,-0.005231055807294058,-0.07445222170260654,-0.048423766945283525,-0.06813024459262311,0.006752338209385015,0.0005367600565288828,0.07449192549404327,-0.12026291875394723,0.05327633709786015,0.011549017522734323,-0.02922462546434523,-0.009113019351824039,0.05302367745232968,0.0005432544062172153,-0.07782295873581956,-0.011470736511290127,-0.06057186833596888,0.0020282551753005636,-0.012859248770890994,-0.002309975738837644,-0.0016789831625485876,0.06052307415615235,0.09901195321555628,-0.017440173359672725,-0.031672719636024554,-0.10679644880555206,0.04062543274175473,-0.0697936669309775,-0.08316148868310427,-0.0011095783113221052,0.0780918780761338,-0.05109836036416379,0.015805480826116443,0.040108980444941336,-0.035451921990589566,0.009458694225762981,0.035160175390007924,-0.016488389449995543,0.012260965145414082,-0.010572454903459908,0.018259640289135078,-0.001488355051582224,-0.022694842758591637,-0.052397476175131234,-0.0821197213370271,-0.06216968119660065,0.0071646238496007285,-0.001972618934885816,0.09459495452940131,0.02266141532655502,0.028975804130287025,0.024317264066821734,-0.029039342054083553,0.05698113263075588,0.06606588135533725,-0.06313225498583379,0.02776645909848569,0.04537404794614589,-0.02329635140152465,0.02740741175699634,0.030562790231987817
100.50554656982422,1.15960693359375,-0.06812722787939464,-0.005680154993419011,0.02637879037939731,-0.06437971434662762,0.13994843871156726,0.03419494429418125,0.00844414093788799,-0.18878823625531096,-0.009194618716471741,0.011866195926686833,0.003729201771854391,0.03983909769678593,0.004210012268995293,-0.05413110097671086,-0.009858735727335019,-0.035322649107332155,0.023378942689960193,0.05115927997068732,-0.010500805547968993,-0.04010291491595326,0.042053283084086374,-0.01406376447329712,0.006432930709535863,0.0124463034601252,-0.012303207532531715,0.0381805684768739,-0.10851676988635717,-0.09017448088631566,0.006794776332205576,-0.008474563773663282,-0.00964775271843904,-0.022091427076841544,0.07064240131687732,-0.11647764052872307,0.01202004836388588,-0.00888570323796174,-0.0010714975783534416,0.07416198358174164,0.07133944114357792,0.014771933202218679,0.0007260910701991502,-0.009556981622899093,-0.018339381667306,-0.009327833042371152,-0.021571869426807035,-0.016111665560987087,-0.01080768183878135,0.013640199274921348,-0.07413747022574872,-0.011274538870036212,0.011827072424011811,-0.02058781207146557,-0.03998411001031623,0.008742041584802086,0.07193574256972969,0.014347181249061354,-0.03823103233508597,-0.0011661416072437374,0.03309841442309359,0.03062128784389844,-0.040308695338923506,-0.01804341416328956,0.031200261479234184,0.0042917629244807525,0.009615371416589436,-0.061473430310970634,0.024848599822079653,0.03237276457001352,0.00025012051086328586,0.007047118398710202,0.008419726238430963,0.019246486302615627,0.043322082205446,-0.0024558756550710514,-0.014568693759358084,-0.0413135506330887,-0.030332034916535362,0.01668451914855859,-0.06673326228268414,-0.008646766668266127,0.019349111916041318,0.012231172342718961,-0.0010198105447367495,-0.0067672022150779,-0.0557785589771823,-0.019992116866561774,0.00883438877737058,0.005341398552699189,-1.7506875344269757e-05,-0.009645626419098734,-0.0016066466641990174,-0.021186726592911185,-0.04335191182330248,0.003981925766520348,-0.05305394179830068,0.030471775290892202,-0.02275388275983459,-0.03064052989209629,-0.010606770923069622,-0.05499870543183366
101.66515350341797,1.199798583984375,-0.05855252230564183,-0.020411484274547944,-0.018733807787669594,-0.018307345289068078,-0.09500616666051523,-0.0030893724409251293,0.07061006301761133,-0.03678832985770765,0.04727131178525205,-0.021260911325230517,-0.09369388351155593,-0.18945426021300024,0.07351746658052247,0.13057845123495596,0.00882612309120032,-0.03955997308101223,-0.004163343146037681,0.08893388336328602,-0.017205447367142124,0.09105949245984692,0.008786315162102558,0.009264185721952683,0.010587690114566287,-0.02707503276356749,0.021336879712201107,-0.0043583722920531144,-0.020280000672432588,0.0943603169494531,-0.003143401712571448,-0.016522911132522147,-0.001991168686375651,-0.002036107362910888,0.11652369145160182,0.0175496649393048,-0.031662449042982564,-0.08323757421343735,0.040656034207362135,0.00930900632942716,0.006894065667406177,-0.0012985162635418442,0.01192010720618264,0.01554365334614168,0.024249753217282878,-0.010381170061511185,-0.017608794585845296,-0.06552730744011434,0.006963286702221355,-0.026744285273099678,0.026191657819345706,-0.051785967669359834,0.006794775417022948,0.04822847552619941,-0.015024044720996789,0.05087695485294,0.03989203733393961,0.002512996696898448,-0.017687020515027754,-0.000931419381962873,0.025238425904159964,-0.05655996717090694,-0.02037002477925297,0.021513576317038104,-0.020470222029293796,0.04388300156593333,0.027106544847626,0.06847966544425962,-0.04307400378186916,-0.017975531957359656,-0.07699292633266307,-0.03507937984233324,-0.018132106492718847,0.05654255217534322,-0.023891098282216958,0.005086148448033899,0.05437545827595762,0.0014520497011002514,0.04524021300394119,0.026798661657014236,-0.07089480315508873,-0.02916173003806389,0.008595125014916261,-0.033865354809672274,-0.0004089421859114331,-0.00022211287924835078,0.0012532899356109276,-0.019394272954772328,-0.009331768190450831,-0.005850525521920251,0.08836218768177456,0.04300158157276031,0.05638632431330226,-0.06548060033298145,-0.044453428149244474,0.03300760168465229,-0.04106303752944292,0.006298928542113086,-0.013345925675502133,0.07240486930788811,-0.0016076448732639515,0.15825943229714579
102.86495208740234,1.2093963623046875,0.0151314099291096,-0.025763542778358958,0.008065441943535189,0.007562290164444707,-0.09838025623572885,-0.042217348539606264,-0.15941873364204684,-0.07035500606625505,-0.02653164507582567,-0.018355921847472235,0.10448949910037382,-0.013978388806022264,0.12879730546643403,0.015152821343714548,-0.047128680287342545,0.008808799158499053,-0.018698122699507796,-0.056152103897510186,-0.16921468300154346,-0.0031748067420985376,0.004102177675281488,-0.02461334453779567,-0.006355802370439601,0.007255965696056299,0.069397907639196,0.014203578659918616,0.015210685099606396,-0.0005323834770721624,0.0011866051557629291,0.008092191341557052,0.002892037195916729,0.00019711285824685696,0.014980501145332628,-0.05127575820586592,-0.06287998307047124,-0.007666132861000471,-0.04333333405471193,-0.002088914909957648,0.007540923584928137,-0.0003047350969827312,-0.0014167955232089518,0.005551307162484756,0.04105827521043748,-0.029166290304970567,-0.029861346097585877,-0.025593207174851088,-0.006116451593168525,0.0714429994218107,0.0074497985086578134,-0.01316845704285561,0.057316039742835195,-0.03995812480814337,0.003528653218309998,0.019023610844015923,-0.08602802761638823,0.026948218556155604,0.00795416461587323,-0.07034664149242797,0.07162369107905177,-0.01836630261889175,-0.12215684673361664,0.06065585100616903,-0.04639523196360869,-0.08050940620588352,0.00480209153662268,0.02655064366878175,0.05303103742724613,0.0020308411161463827,-0.004123002899062054,-0.0014475626405497063,0.01059751072045877,0.0185245332998969,0.023279581618765637,-0.08662554479282325,-0.04145332636855676,0.023016634077467957,0.039058285950249065,-0.05312807380278504,-0.02002231389772759,-0.057619956772557525,0.023090796237054546,0.04026198593091095,0.006218830261883421,-0.004047103422028357,-0.008328151116773942,-0.011398720349021268,-0.01505267204700444,0.020418012843860703,-0.005828909338421537,0.07594433614231577,0.001902214231470647,-0.009004731976973471,0.019536546878790865,0.04847874327476096,0.04513521731516941,0.056071780497237524,0.012848087678156567,0.06247611375874379,-0.10116297538815813,0.012983380047151171
104.07434844970703,1.1902999877929688,0.017664130179714823,-0.043651178265812954,0.007207285481959847,0.005980243432873047,0.1235876361556113,0.007661637058390973,-0.08454453028138575,-0.04813471724327219,-0.10388575140185992,-0.037559572714602474,-0.029701142823518743,0.009672781555524323,-0.0937553224883584,0.016954484273556468,-0.03740822007268368,-0.022203893062537967,0.052627515028423305,-0.03338827705276039,0.07648096881094045,0.054302457261312484,-0.04156357856323201,-0.01167754055339398,0.007515993582166806,0.007826508093288215,-0.019529937538998326,-0.024688332693155554,0.08148802600220795,0.04536353130045528,0.01820654041137888,0.00024084022695515907,-0.009921960027817485,0.06528574721073593,0.010472919753466613,0.0041872646829304964,-0.010391791483506232,-0.027801874784076003,0.026403589049328414,0.00379874411359606,-0.008990371905177609,-0.02074339761760954,-0.03480479819299301,0.01395131916687484,-0.03782610692552892,-0.004536122492040867,0.008371997073665875,0.01001212959077116,0.0026930364590326563,-0.02810495211496487,0.020480213206959724,-0.006444071564666392,-0.005999976988809164,-0.02986464558094468,-0.047864484484432215,0.08697507602722207,0.045476382345161465,-0.0027634257778029747,-0.057794382314750634,0.05566251942405947,-0.026306890493037652,-0.02596123293550791,-0.006928690455962494,-0.0741373944311722,0.0027890677856666247,0.015399373328038176,-0.031022880053059296,-0.02290733286908942,-0.020596107644791972,0.07455257774304777,-0.014369846907276917,0.01637875283652898,-0.06558099481994314,0.0032027241460167895,0.026421073178961064,0.00434587505078288,0.011769984098694132,0.06158412490268666,-0.00014067326511030932,0.02731083032339381,-0.025346138502315495,0.004996158357255765,0.06397437264060177,0.0007305356333156612,-0.006841214889069235,-0.01142706662928309,0.005596768476930129,0.002241167504645804,-0.0067892426601035465,-0.021916572245583563,-0.08210911281640634,0.1126084378095408,-0.09877364967823178,-0.027460594769667418,0.04875148579003131,-0.018382748308018736,0.10327686903713765,0.041314375599197324,-0.004162597925759737,-0.04878277011304939,0.00454346389249997,0.09405006246488191
105.2646484375,1.1796035766601562,-0.04527377022382807,-0.06502339013229798,-0.02850115819829658,0.0028390030379483815,0.018222994556225766,-0.04887372262186449,-0.05891467044334285,-0.01670148183459985,0.06919134254711302,0.049201697145001354,-0.03707279025212851,-0.16341515035899473,-0.14086336682150977,0.03311138045993542,-0.01039922784060788,-0.07020323876754038,0.05567621467139192,-0.06300789453455957,0.07717739888759674,0.005329319926447832,0.016651798500497285,-0.10462780918022838,-0.1346728165071012,0.14597765276744015,-0.020294291845462144,0.050786196099296646,-0.005179567270623584,0.0022901525006093276,-0.0016994510495645606,-0.006451444511145257,0.0662038980306153,0.06482899975956241,-0.01814423097857836,0.07328372326810528,0.0235413614552537,0.004789156232767429,-0.024808365345583283,-0.08313115836628335,0.013467205175050982,0.004631031401580707,-0.008539681861763262,-0.0168013251968844,-0.040946266399350874,-0.051665666678035196,0.003175276932930836,0.003927983352621547,3.857264903364375e-05,-0.023401148553069982,0.00889394034127096,0.0109433039330533,0.07845359133108393,-0.05005255281659132,0.005626180713792764,0.037349565303826354,-0.0037245980159287847,0.03689394978356057,-0.01915416651093289,0.05051156082594902,0.00242548679461165,-0.006180329000792365,-0.06320309953821003,0.03933240730466555,-0.043161651556620585,-0.03680483793170378,0.08257732731329276,-0.03254604203395195,0.056418939537718704,-0.029435596593714284,-0.008531288962341888,-0.013383813486518539,0.01227744229036639,0.0029868177256119773,-0.007047245692064706,-0.03196784006263648,0.06661894331718322,-0.008212861902469473,0.06168336896550735,0.009739765376235547,0.012567713080988049,-0.04236976577820952,-0.014761361081728354,0.023569619564964634,-0.021198446173788594,0.02385186723308693,-0.00014408580583662737,-0.06838232469702105,-0.012610778583301566,0.05314271390111465,-0.029374776984423423,0.12600348608009213,-0.03492730714790591,0.0018554333252974637,0.006760817943718035,-0.06409363894431444,0.019338408460447175,-0.0244883809693922,0.03051822280918854,0.06465463234818859,0.02681038009806382,-0.024246395474108083
110.34314727783203,1.1300048828125,-0.006151132380522676,-0.009051242723876625,-0.07200456359850423,-0.030788389361632265,0.07395440233567163,0.2027290007800775,0.11863099670741077,-0.12352243663114076,0.12452782449455123,0.08517758139696138,-0.112357484772595,0.029518710852822084,0.02663186740051657,-0.028622193829261542,-0.10181457354889346,0.019562663782211588,0.017255480058740474,-0.012422231152243422,0.0638665238327871,0.03831751688544527,0.011878673393155148,-0.0114105998428706,-0.13055964121782085,0.07054426388479858,0.04404380772612222,-0.05634366583481562,-0.02542877796788805,0.002516009110210725,0.0308121581537273,-0.025846756984624783,-0.030484612638927436,-0.011351729468627406,0.0006618191491664792,0.021981349488522317,-0.0267470835566612,0.008064232596699904,0.03451005437607788,0.007283417273502388,0.06700108966367552,-0.01347629640762356,0.008704494642679762,0.0028814074681683816,-0.007514137339505763,0.017229242416775297,0.035223599635539914,0.006594101008910455,0.002017862444046614,-0.02488896951678646,0.02534009417948824,-0.03329541869206455,0.0059432808307853385,-0.03771682295586508,0.06468788287872189,0.03904922573848315,-0.021564865860650404,-0.03749539848363643,-0.0009141379126216265,0.0665022894723745,-0.00787393407795139,0.038422167997787665,0.08419847999383359,-0.018425940602506588,0.0102049052854526,-0.004641784273895312,-0.03798260093998665,-0.0031799077068517603,-0.06508760459268595,0.00692181790790488,-0.006202930847163809,-0.0016022444023460966,0.0464116653830832,-0.032947245531063755,0.036892247132959445,-0.00756959637155405,0.005531002031432631,0.004483863360795198,0.007223436639026613,-0.00783442835069822,-0.007715459994293423,-0.05274388494701873,0.030975339130877303,0.008467683010120419,-0.004466072716785503,-0.0007622892296318506,0.05555286429064625,-0.013286353568929658,-0.009125872282584102,0.01718418375401789,0.043903772536842085,-0.05269179527411908,-0.025965452880843374,0.03973348549154263,-0.06803527548825519,0.02968194469608723,-0.03937353360246912,0.001797528046612101,-0.07576655331214946,0.03788520877193724,0.014670412039017151,-0.05143297296528456
111.47315216064453,1.1200942993164062,-0.03823166654313039,-0.013906151243265955,0.02874325268632886,0.0180630164737014,-0.05002033272881965,-0.051828155730754166,-0.01849316308080666,0.041196831988997804,0.0010941163034950726,0.007854839944321158,-0.01305907186636436,-0.07060626220196523,-0.17443445707532268,-0.17468567286193568,-0.11275936006562716,0.1176464246332771,0.11471574865577519,0.014106255111479483,-0.05965238786633009,-0.01094314812043269,0.03980792313014913,0.005163738856570512,-0.001547865291061189,-0.04245470496836704,0.0655849751727893,-0.015161402590572637,0.004781189765446103,0.021723930943424154,0.091973826452733,0.04619015722964345,-0.015226585777465076,0.004648275502460666,0.01855138220566445,0.036104253708319024,0.018565026745543594,-0.021336054708777537,0.005744648220974908,0.0016124259370920483,0.042273419459493936,-0.0025460715286761376,-0.018490595583616348,-0.020699657504721705,-0.026463368858389444,-0.03760670278252804,-0.047624683917888364,0.13795179567598717,0.0486264269595363,0.03198750687580748,0.063240399328509,-0.02799839370857498,-0.03025324687893421,0.06518635899495803,0.05779135646139626,0.008908750793911105,0.011595026591417704,0.06175185943263224,0.0036432271682332786,0.026367994488063907,-0.02507209544295854,0.03895758766416331,-0.02499315623078064,-0.03951106984505006,0.008294534310326437,-0.04356448677657725,-0.03574427592909936,0.012217614059407272,0.033664134684511314,0.02577838176192624,0.020739614936988626,-0.017125352160122207,0.025196371190777438,-0.10338172881834023,-0.025588380187484456,0.0032680054978080123,0.001084263878299689,0.005902327146410792,0.018722933273799442,0.004278632228232711,-0.0138646133921928,-0.03467882222911814,-0.004572997789420701,0.1360451054492658,-0.006316072957812334,0.006907808501431152,-0.007761246397313851,-0.06624030889516033,0.00214079125229803,0.02299866161433743,-0.002753974831357102,0.01992724610060182,-0.04723702797505938,0.0177969342354971,-0.0018888995360309881,0.03816712444450143,0.07346298164910697,-0.02680072229820453,0.00040316773980687837,-0.03539362617686685,-0.07091295206890282,0.05567994648672357
112.59324645996094,1.1395034790039062,0.06126489470285215,0.07350655071171287,0.044228772265370336,-0.06371571095045774,-0.06401048916127829,0.1341275996362458,-0.03170690229898383,-0.010077983986584306,-0.012130725498093834,0.04586609012165624,-0.054440304947528134,-0.09262993852388983,0.05743859506619811,-0.006705482944580388,0.07576994122272387,0.040274478981326474,0.13767081820819044,-0.010800935212815952,0.01364295649957264,-0.013141036238511861,0.024318409802861717,0.02670220058689261,-0.03807927623693326,-0.023158755363268814,-0.05442467484309883,-0.013105876185303319,-0.06605624061560271,-0.0024947954709419627,0.04244596864331271,-0.010451117379621434,-0.03148517781129484,0.0102330843171283,-0.026227528443262805,0.031064316017454775,0.0008356827220666659,0.07235412196654122,0.005430084223107345,-0.0280077230237541,0.0019025716470517928,0.03270060549018438,0.008954083920589868,-0.0017562687660362744,0.03671479857761355,0.027938834956909426,-0.032475414243062994,0.005809664023908763,-0.0180299142912536,-0.06525078893892589,0.008119362923540778,0.016249779931489527,-0.048965779854225684,0.01375427933811504,-0.08385711881404696,0.06364992998327344,0.04706597951341717,-0.0029268386326775204,0.005125992154685774,-0.06499499839178735,0.08873770682243909,0.09831241078523574,-0.11469078158158531,0.01656108500977104,-0.015301702451226376,-0.011852044049538612,0.009562282861977536,0.04951857010843267,0.0854693499678857,0.014613297571471198,-0.0036000577700607654,0.08095047672453193,-0.007722462417958657,0.059318791542412666,0.004657953137091288,-0.004379868005729673,0.05191913016709598,-0.09190983663754047,0.002656490968879381,-0.038719741007421093,-0.004195139334455829,-0.00027190055722564144,-0.03673048161112018,0.06421674905448735,-0.01728283179867029,-0.0022837008333073355,0.0144006146132978,-0.05693067920684854,0.00605062246903832,0.017840969584970428,0.01290567528608863,-0.003787478996885807,-0.009938445578479858,-0.014366490798707894,-0.037398789690284755,0.03278529085109575,0.047875080474908814,-0.06838984215566316,0.05786263363154399,-0.05456568151766418,0.018470312994603638,0.0009745057330568102
113.73274993896484,1.1902008056640625,0.011599639684399629,-0.07554095118795322,-0.08882845242267125,-0.014558779528096227,-0.016777291960967763,0.012652114382412288,0.1078583757002528,-0.09171243558466208,0.04177623407250927,-0.011792108695765139,-0.023555450539977686,0.0034714323654078116,0.1576256615965271,-0.008237985755042213,-0.028434972556248286,0.08164730763971535,0.07827191068343525,-0.024891657617346737,-0.006722622555381023,0.018478005351166372,-0.021781024694166515,-0.014990762062453205,0.05853501125055514,0.004558117720697773,-0.022998157923254957,-0.08014983727258641,0.00924187839955402,0.026086430754791966,0.002421918148683087,-0.05101987723344054,-0.003303684503238784,0.037850464267700765,0.002063195631505809,0.023562245277992333,-0.015752306165825486,-0.12016204099194752,-0.01721633289245233,-0.10776280743062167,-0.00967429803938637,0.02601480630654613,0.0033820015957067586,0.04871975415461835,0.037246563387498544,0.010572785406706059,-0.046421450770593634,0.031357679794074,-0.012623110743819499,-0.0032538081910617176,0.003707678822555991,-0.04387015986697164,-0.05124524665244323,-0.038704406947593396,0.03675105594497379,0.012080475509785374,-0.01115726627631117,0.0013180185641455296,-0.03786346246227151,0.039832392897359015,-0.004055363769726764,0.01880675405789977,0.019146365359296806,-0.019847227656519643,0.04093027630441914,-0.045495846715553914,-0.01906578314500695,-0.05919544379024301,-0.025702092478299375,0.001413536456173673,-0.02477574507468129,0.027060374124788608,-0.011808587059200543,0.07334493194295708,0.0005585889238579923,-0.07333381441433924,-0.07906999409519028,0.0778388181690507,-0.07338757379438264,0.014000224395212311,-0.010411965758250291,0.029193532888437065,-0.03428247056503556,-0.05592232335817112,0.058295525004807294,0.047025918907023234,0.0035088418911418335,0.029278219253231944,-0.027746720731945625,-8.791635390676311e-05,0.006845534459486651,-0.05988515890964106,0.002799959084970053,0.05949454405713209,-0.020254153423742864,-0.012977720482782189,0.12632385085199985,0.1534150456486114,-0.06461217402603996,-0.018471268088520818,-0.04671099897466272,0.12826944699296516
114.9229507446289,2.2992019653320312,-0.01092266382983699,-0.08570838008909405,0.0179693737457845,0.022343818969569308,-0.03442956409699703,0.013564341242458831,-0.03902249087633444,-0.10084898481467565,0.002386940963930887,-0.06080668478376691,0.01706681169776962,-0.1049356044269001,0.02509112282361533,0.03857702409378615,0.06600639811503978,0.02355976211487353,0.050274996905422795,-0.09818314401262537,0.039196288853103535,-0.06306180806860114,0.049078229454755345,0.012708563878787634,0.005965168615625731,0.04553490498262563,-0.008231081746267112,0.018154601279881902,-0.07204353912636356,-0.01311085839008941,0.02524653418918916,0.05694964795055984,0.011934217784149354,-0.03376762967195564,-0.06286728469382603,-0.021823752490087403,-0.011841161751915356,0.015163213826767554,-0.004464970521853087,-0.011423586007627766,0.052838721528519844,0.05281557835047309,0.00028032423790163175,-0.04319948668464007,-0.0007886415265082694,-0.07158882810788472,-0.11245487644062518,-0.02073668824908528,0.022098552252560376,0.024761092573345085,-0.005349334502734259,-0.00023466168048905502,-0.0013485617133036348,-0.060115588051181654,-0.007796629156754668,0.013317202294960683,0.027649519621473218,-0.052542675121038857,0.001631600004248235,-0.017148060478209895,-0.011666132168539192,-0.07849683989871419,-0.020291903382593846,0.021925594937528436,0.0338738802996079,-0.04138418774220773,0.022223008243824317,-0.004218751261269486,-0.07722562732957519,0.01138535282734236,-0.012602653018246875,0.014708332417810752,-0.07242114141702892,-0.10025567188179882,0.09468177260003638,-0.001586754090742344,-0.09818847456669562,0.005182321918916992,-0.05003743575416082,0.025103308550920057,-5.5121403030381736e-06,-0.004276004198700698,0.0636302589948573,-0.08577725409321507,0.014551570185242247,0.006643783353138064,0.007590270645737445,-0.008038405838133025,0.0017667556257875106,-0.005634197946266414,0.10079423173030426,0.011046464714101655,0.015468673922231467,0.036001534134024085,-0.07193215232177562,0.017965677538366157,0.05563313875124021,-0.011098472571406328,0.018119300857443052,-0.104837304380805,-0.024805092335132346,0.0021235069938089234
119.64205169677734,1.159698486328125,-0.03771902773705629,-0.013158002676915782,-0.07029384566072376,0.0019190066859753618,0.05556722174412612,0.006409605033062427,-0.0313793071886114,-0.016556549770166375,-0.05871550016697574,0.04968089432186398,-0.022349802159808307,0.0399508118302811,0.020163530059846987,-0.09690292537455013,0.007782135971149587,0.09629181952377888,-0.05694020660780323,0.012681611410043297,-0.043034410176521626,-0.04477231880574496,-0.0013531584512360005,0.008283248551382386,0.008467286063324315,-0.007729838710830977,-0.08570588631739699,-0.006282138279149976,-0.03889280687035571,0.0005614823500707357,0.09485198613231582,0.024008895177327832,0.04308162527054258,-0.0036851484627679304,-0.05067758658398544,0.05500711266436682,0.004176244308318847,-0.045943434416083326,-0.0024203689346664293,0.02608908490266878,0.008088434890774633,0.0027149692563547614,0.003879742158534897,0.0010484727452436038,-0.0038673515093343575,0.02852040230254882,-0.015206738464950777,0.019119491607512393,-0.031401751522371,-0.04724164734290794,-0.010087478426690246,0.028596187963067735,0.049169896341268865,-0.026627677182369164,-0.002283099327222419,0.011475429922972534,-0.014305285334809832,0.014457523546840862,0.02396104390345931,0.007412413276448434,0.013149480715247196,-0.015673055280323124,0.002954781511688228,0.004452314549778984,0.022623159367459678,0.01923876550760299,0.04908125585662645,0.016424427018624007,0.01820776514561217,-0.040719700968273397,-0.1020238522102,-0.042823523112767006,-0.06859946830728328,0.009279625249793404,0.015468662624927618,-0.01702166468156628,-0.02516668274040143,-0.10972678662030633,0.003995944343054277,-0.007147109672281049,0.030012883441751927,0.005231729161453974,-0.016705770998651427,0.11835188381366804,0.06267528944062858,-0.04613462715829571,-0.043277909573711706,-0.0026102748292252654,-0.00019304073782224537,0.04215559629442819,0.049871589769202404,-0.07635106189625246,-0.04453775618494104,0.021675988973085616,-0.01022340151655653,0.03152894865083587,0.02907510578136123,-0.00530984332868868,-0.0058705699384844455,-0.019804838615997418,-0.056540737720286685,0.05692461860830336
