start,duration,0,1,2,3,4,5,6,7,8,9,10,11,12,13,14,15,16,17,18,19,20,21,22,23,24,25,26,27,28,29,30,31,32,33,34,35,36,37,38,39,40,41,42,43,44,45,46,47,48,49,50,51,52,53,54,55,56,57,58,59,60,61,62,63,64,65,66,67,68,69,70,71,72,73,74,75,76,77,78,79,80,81,82,83,84,85,86,87,88,89,90,91,92,93,94,95,96,97,98,99
141.8655548095703,1.0197906494140625,0.050731991258805474,-0.04309228668713031,0.1333437973038698,-0.11899504355871698,0.07788966717140125,0.1266124953809326,-0.0578649687436748,-0.08382037514746263,0.015382603875200029,-0.06622312719200121,-0.07226869763908106,-0.12024869760613749,0.0068754110968412,-0.09627095054045383,0.00016518980287055568,0.07893327545360768,0.16038699031801498,0.04125917820771624,-0.010157802719349787,0.039798076126744984,-0.062009655184485285,-0.026725497531062348,0.08949219900736863,-0.2289571449717777,-0.08362617318866791,0.07513994425808775,0.06750517716928242,0.0022289272480281973,0.0004439080219768225,0.068265534189046,0.014826915245392636,-0.02864604897169556,0.28151153349651903,-0.3943099970630334,-0.2477156811886309,-0.23029924312738986,0.640345599236356,0.3796515951138894,-0.15828455683513343,0.3512857896594222,0.857049751291405,-0.38825982708494716,0.14255210278586286,0.04406711982315289,0.36321796636577863,0.42963891563371504,-0.16132371777497803,0.05204313136964357,0.01767299251677487,0.10185442004788561,0.18241368921226533,0.28870382199857547,-0.13429023203068685,0.03908125567703377,-0.07573389496456875,-0.04548922894489727,-0.11169925658370067,-0.048890203813515845,-0.05973291711806473,0.0745243427209312,0.07321826199771334,0.05551414818772514,0.0622033811874009,0.11162184747488704,0.0466883454994868,-0.004060264576195106,0.0060453537679567475,0.12024418991780708,-0.037124900302094706,0.020186734390548668,0.010071532267208362,0.019399052676822664,0.029008587694332368,0.015080618431873782,0.00987140172198559,0.018741312339709118,0.13548917194437107,0.023195902925935614,-0.02349430585081774,0.052457751462823214,-0.030028520174425796,0.000724298496767352,-0.09099070206598879,-0.07195507224794136,-0.014131376038632565,-0.06640805484667965,-0.024118138475655783,0.04739021831713509,0.09641956387985968,0.036620695600136616,-0.012339164624481626,-0.017933712034902953,0.001027453222892027,-0.0759372355263473,0.0064582037998572395,-0.11273531438146256,0.05152887543223365,0.0347374380719821,-0.03130124959459206,0.02518057254530682
142.88534545898438,1.04010009765625,-0.0014096166378950881,0.058642638306758074,0.06298639073592839,-0.13778674399120125,-0.06200399032851307,-0.03428363889109542,-0.0023201004805930223,-0.20776938687837132,-0.06559968558356805,-0.0491686494300886,0.005293391321070998,0.07065455133429809,0.04461083170590652,0.018904413150618523,0.038988399283027386,0.0693255675478447,0.012800316474739474,-0.020690868354022736,-0.013073502862367595,0.014327672679982197,0.03933282613088706,-0.09067292407888951,-0.01586011321943216,0.06859599493781404,0.09483078347639702,-0.03038537735849703,0.14066208467776503,-0.1930998757273071,0.04207247909293423,-0.017331596759775116,-0.14130429336994726,-0.08987851915677797,0.029083063385005284,0.23950912768699165,-0.24772039133248303,0.015834333422693428,-0.31137409045268155,-0.24797716748208598,0.105474147050391,0.26088052970528114,-0.4405452368076241,0.03028706440218057,-0.1526194305934907,-0.044463007908473004,-0.10763030808648223,0.1195321944580028,-0.3627578306610751,0.017722354617067768,-0.014205687144439476,-0.0026552115398704654,0.2252152454068051,0.0692457172295178,0.01590001323344073,0.03626783604242431,0.03873174581086605,-0.06160272487909569,-0.04620034916244356,-0.013648199953990688,0.0005821393274830148,0.08788787827635375,0.013248060428243537,-0.002827200416562231,0.0051285722853691386,-0.03455617934698812,-0.0725931617252694,-0.020672810624026497,-0.1122661124805978,0.05946282343064298,-0.046129078811455226,-0.07239488170817378,-0.07691565327245603,-0.0030781879509353266,-0.1242513326027324,-0.08150243180152437,0.04143681037793555,0.06140454771764376,0.06801992060656799,0.058895717974823805,0.03580621915006201,0.007609692154367145,-0.02655503071818958,0.05248677243685001,-0.018237867779013872,0.025779649266284826,0.014261268474826935,-0.001151233302123128,-0.04779346877270388,-0.013158271331935848,0.014751805040416304,-0.036324876463919506,-0.005027313601030243,0.007506476117402379,-0.06351119673108517,-0.007492875080822977,-0.010890915082799107,-0.0517419531130265,0.0007079860315250451,0.07690501156551113,0.017347628886996147,-0.32578653855960216
143.92544555664062,1.0897979736328125,-0.2063463507166272,-0.08543678607307062,-0.050734334667117846,-0.07153545730836425,-0.049854353423405384,-0.11330189142783567,0.056158315803629726,0.109234807654331,0.06585498885690647,-0.07381631528911722,-0.09765918613473518,0.07724173279255311,-0.034802794227144204,0.052676883009611646,0.009189455555357572,0.040837287191676036,0.05296317870941105,-0.27470880757013066,-0.08902931703452162,-0.1096362956259336,0.1951725323728449,-0.005320398828941241,0.026806962821605107,-0.018648265789112637,-0.07532551106485103,0.021009937760092183,-0.10238332569353419,0.13238601794696542,-0.016647311007090146,0.04246487674281545,0.03065841458400484,0.04898543755164261,-0.06730599978439311,-0.10049202056549139,-0.12667746600571556,0.10715427505921045,0.022522535523149114,-0.24936828399222347,0.03989676037895715,0.15601945420400387,-0.2045512243680476,-0.08914557660806893,-0.32392619440648585,0.3835913086180299,0.24495809323260687,-0.3375492530379526,-0.2826314875326024,0.06970395199969724,0.07843270873138654,-0.362425952158386,0.1712491520246442,0.11098999349145358,-0.5784579448334768,-0.23641846197912791,0.27979200368097307,-0.10220386771001039,0.1413378834690492,-0.05888821895111896,-0.006745896285309286,0.015498395961744838,0.059479689412409296,0.14604515285663086,-0.04271205271117719,0.004994658218939887,0.11716914077609694,-0.07198013258563814,0.024933950775773022,-0.029222900666537648,0.04515580850974628,-0.013392959819261951,0.037516170070938076,-0.11346334938184369,-0.11454310422947003,-0.021939813474868675,-0.07398594678171934,-0.09341112659509465,0.010862337867585118,-0.05663019776532003,0.0806432720193613,-0.033727192812746595,0.054535909484175076,-0.036860278209926184,-0.007419959655756656,0.06787206398705996,-0.02578743668851802,0.08020825005903374,-0.07291329671635845,-0.015513871885941156,-0.032117197940038665,0.010250863077328821,0.06613562586291034,0.04528843654782564,0.006258010809147319,-0.05541465800035671,0.009016493799783237,-0.05141934339671585,-0.10072752551044327,0.0036184893640925637,0.016247899945848358,0.004265022221342549
148.4945526123047,1.049896240234375,0.10351788498133965,-0.12569690252918858,-0.13889909730402972,-0.04830951181162067,-0.09392094557056677,0.02853923901025754,-0.15007224927496704,-0.0863333612280683,0.12430089305286804,0.01219385239773036,0.022902058845071203,0.02758281495806278,-0.00183446423936676,-0.004783185372126296,-0.0027303418462453904,0.00026182169453213794,0.036340173883402355,0.018154828096242817,0.04051528343333426,0.06949205405716051,0.021683901581585757,0.02315311336991065,-0.02267192147880454,-0.0562185333004971,-0.027105314456525587,0.08602185483607691,0.07571829307936358,-0.03108850902595221,-0.02963353059291323,0.10343571639016158,-0.16795365755111175,0.13216682051175738,0.06407364670285352,-0.13156605434636126,0.20114925290809646,0.10749552724683852,0.14394983671029896,0.07975277077591703,0.11579598538598629,-0.6636399289222964,0.2658941611348132,-0.35851615292044137,0.41276341406149786,-0.3637624650388632,-0.21109310009549997,-0.05762495636470052,0.020601647506730436,-1.1420415077995187,0.3138727888486276,-0.0715319403755307,0.05119753195410444,-0.02728909615847668,0.0242353213339508,0.009574476676013485,0.055436571147791415,-0.006487358891204971,-0.012061231335370471,0.11739536054740989,-0.011467229598630167,-0.030124714890982656,-0.04222052823419774,0.012786156945833018,-0.01671296033686086,0.012201115050153746,0.13114798733796013,0.04256709612876239,0.03648304990561804,0.11116934461770149,-0.08113069138513894,-0.0702818684187107,-0.032199214577101405,0.03907877111034632,0.05121790850439125,0.04081949858737034,0.03839620127157377,-0.012406147263111879,-0.06211082931794686,-0.05095663041005276,-0.01383248265441909,0.01693307028666021,-0.025827192256261886,0.036483348585981075,0.09581962165237466,0.005763153972034497,0.00999804048068793,0.04139908883835601,0.005929838649917473,0.01462138838090437,-0.0024916682719231253,-0.06447422695987658,0.018624238758182587,-0.04627817864423686,-0.022869053705879876,0.004398680934593251,0.043750877330307816,0.009321204912840426,-0.019968239643174696,0.004403060649368639,-0.05836364518757572,-0.03273871651038894
149.54444885253906,1.0991973876953125,-0.055004755461128575,0.033008629610647634,0.0823383890439037,-0.0034555494018830707,0.07194722038985873,0.042847931003377776,-0.0072944986497916475,0.022946089232123847,0.03987288160447393,-0.09131298125459121,-0.05505054102663669,-0.00022159457479052364,-0.0037647644424857254,-0.05881330529570643,-0.057128575196678764,-0.013325014628850492,-0.06240016312355207,-0.06395427048213333,0.06991147775408485,-0.023369119384793968,0.044521692915257406,-0.04421857150085117,0.12644590896835314,0.01079683941648274,-0.33956420550945077,-0.09303334374425896,0.037679034222982896,-0.15031695170980533,0.02642963432299751,0.04604978475851525,-0.11963588017897125,0.07050216944217284,0.01710938595400929,0.004918540554961272,0.3955468666796107,0.02756972471788187,0.061365303009466854,-0.3783350325250894,-0.20592540383072774,0.339387767979866,-0.05654406886943329,0.6056057010964376,0.276589606012722,-0.20214324180790447,0.031828810147799105,0.005982096162593549,-0.06979127099889217,-0.1576753641724496,0.11052076586751118,0.07071384334283137,-0.009834357560548464,0.04653239307725317,-0.030579001805614528,-0.028295696399309338,0.07152709481280557,0.01254576359697904,-0.012525298192806145,-0.004435727024164542,-0.10153822450254595,-0.04080486529633344,-0.005052518828648905,-0.05422955733127774,-0.061298532749501894,-0.06189971724940636,0.040322300970331765,0.024489221594718592,0.14693971698911112,-0.09140416330607856,-0.06188931511629032,-0.0005214199878634042,-0.09413406531666446,0.014199528811426334,0.03893356075462679,0.06470780774339205,-0.017340270691063763,0.012824702014026634,0.004203726706605723,0.0006502549111390335,-0.04818343092556037,-0.08179031262340171,0.06083557428914679,0.013675326947472788,0.00682753979649846,0.0554925759649113,0.03714226219086026,-0.009143726755870586,0.014745329305062456,-0.051020610320577114,0.022721222471011958,0.0075409128605086855,-0.018787035891561565,-0.09753545569799145,0.0466087655125237,-0.066661512078906,-0.06594460169969292,-0.042190589343751785,-0.0058989032491577175,-0.01778716425292519,0.003895895382968806,-0.05700817487291922
150.64364624023438,1.1300048828125,-0.08228998445885576,0.042298724675363934,0.02334201690680593,0.021796827065079676,0.0059269377298842175,-0.05605824911616767,-0.22061130405743484,-0.06437867043615378,0.07013648634340884,0.00141076859933798,0.004415418994487565,-0.01825502542279643,0.024533716096428265,0.04919676917826494,-0.044826305993197105,-0.05830885732467185,-0.012086085096889899,0.011198858477099106,0.08578893747544296,0.0764011733777691,-0.02101553917751439,0.09235761219945599,-0.004085823864358393,0.07545385634669804,-0.2623707063486178,0.026053935909307626,0.04313388373274904,0.09580347834152227,-0.18195464938856454,-0.22695445883095103,0.2894875144728645,0.04033260801600932,-0.011243347731439701,0.10549476315862141,0.36724239839629436,0.29185775297080857,0.05476961676789674,-0.05092039947142747,-0.24803921837172588,0.13249057503313538,-0.4934972138235537,0.20403109667444003,0.17553716258424568,-0.11802057910429033,0.12080535591720648,0.09982651246357177,-0.22000494290563735,0.15746007742098217,0.09090658566548979,-0.03773204132573883,0.04928770734085769,0.2341789454061901,-0.1777795763084765,-0.06731733502369243,-0.008381099310891245,-0.028051054553939078,-0.009470517835009145,0.006490727562398657,0.0038831995521313376,-0.1176985519518392,-0.03371791373915164,-0.0005519317113640608,-0.050519245474714675,0.043485951569854346,-0.06234556494017052,0.0579798204985498,0.011136383058878868,-0.00268210316670622,-0.09105495287188786,-0.003941253209509402,0.07260250400714688,0.057037583636447065,-0.035178201320239036,0.08517853162909994,0.0052950215006399215,0.037777075424778,-0.028584713619721848,-0.04148950292078745,0.012596499302397505,-0.012938737015085635,0.033245646148468984,-0.08424304142082316,-0.02881103697933853,0.059188200220113285,-0.0021670246458618554,-0.0364239861959931,-0.11042712983504653,-0.05831164032867177,0.0051509244739268885,-0.015852019571239877,-0.0693254800415391,0.06379830892582579,0.14312700404070064,0.0586005849823531,-0.029088328901281955,-0.09863079675177983,0.025668442318289783,0.016948519858377056,0.08361098835292538,0.037844596452362635
151.77365112304688,1.400299072265625,0.024165721269705856,0.05667019809500691,0.0847433052134644,0.019778577736674626,-0.08876850913374716,-0.046475712048234405,-0.07390995907988598,-0.11515852359004605,0.0020102094512476007,0.00782864104781091,-0.07286199105504984,0.04608883130712293,0.1759679068818876,-0.014109354168572168,-0.013684533125968054,-0.03395454899236168,-0.03462777623916988,-0.03203720437153555,-0.062394142888763576,0.07244363612412985,0.07189664420753838,0.061453506123491985,-0.09683522678841483,-0.19411008712272024,0.010637227356502776,0.03155030239211862,-0.023647880411798064,-0.019740416721124213,-0.015484742982449395,-0.24465505378538951,-0.09493345146222303,0.05038980084882448,-0.05644834798518132,0.08515662973886443,0.3135216987272501,0.10481296505019115,-0.3841258707239198,-0.09474327356325833,0.26480699461654095,0.32148311571822635,-0.029506467905764333,-0.1543335951854531,-0.008294229167526626,0.12376156166069227,0.15198648534760262,0.0661085027104836,0.35390213406226817,0.4047433900130498,0.10873941664918593,0.23120504006276466,-0.2646377446770586,0.03843829581850016,0.17032933869112216,0.05102247815996447,0.07097157378454465,-0.04468822582048547,0.06295910802412231,0.05481482807100414,-0.04342775545294574,-0.027302099011741666,-0.004273580762869707,0.12053555032991192,0.022904428631100534,-0.014653728288202023,-0.031130238557745448,0.11523633292202957,-0.03412268005716043,-0.017641345964046755,-0.02732722516828388,0.0199837011466194,0.0014132905151307937,-0.06077186771609438,0.030766669829794844,-0.06894704806440048,-0.0058147012463963844,-0.004149478312353558,-0.00024833607612507417,0.016202354663713663,-0.016542929546133848,-0.0014368490378448007,-0.04614158241557869,-0.031131056458057207,-0.004573768335771972,-0.051086520773687506,-0.009782340312783579,-0.03768875501399438,0.047627149101043716,0.014420788446716359,0.15903821224979245,0.10600341534926216,-0.040201114698380926,-0.11172002849395331,0.02147577070906268,-0.046284998925655144,-0.0728094246431206,0.0105861621872912,0.06815668200316015,-0.03267721810438429,0.18286496835262359,0.04990115257183894
153.1739501953125,1.0796966552734375,0.05300984534173109,-0.031310246264916596,0.11523994871860874,0.5254046286342577,0.07328701060760015,0.06525441809627307,0.18737192725195884,0.5194310363257391,-0.1501408558622458,-0.0998095781168361,-0.05063022390747371,-0.013072614271582062,0.020788574498790596,-0.1526707403005028,-0.036288269730450726,-0.0422181865363105,-0.014540010900853134,0.011548512853677124,0.02046073880289736,-0.06266408605590822,0.06617338099453715,0.1889550925757958,-0.3449425591826773,-0.121919750654074,-0.0039438724388818625,0.03116806338257753,-0.07252174306642488,0.009421482883937475,0.21956474567420287,-0.0717114163833143,0.019965676835600604,0.08073315178277948,-0.2828625987622216,-0.11966847507604607,-0.127243559761894,0.23975682863869405,0.0024291027701668355,0.08191813120952618,-0.33629696000066933,-0.14540550776824085,-0.17717995110271617,-0.12330133951532804,0.07388732202547375,0.12851753782541078,-0.12141735926314853,0.45735264880171017,-0.356577742119224,-0.4607879436779346,0.029871160143303627,-0.21664581313330478,-0.13705191259467034,0.15096246661215745,-0.2755874130825382,-0.19235815008731932,-0.10662426827191131,-0.14423135787637115,0.31544738964479274,-0.028997931944106412,-0.14672355134753357,-0.04675664025038291,0.02098917851476778,0.046295792738640894,-0.04285729468841578,-0.0682985183837302,0.060049825495431496,-0.054388926621249355,-0.033663725088696736,-0.06430510510079589,-0.012443368626381648,0.0073551074552630075,0.03806429985108897,-0.04359158013851448,-0.030965976120526602,0.04981636235694647,-0.023517321305071524,-0.04127657475263885,0.056018160298993536,-0.05279150302258234,0.05880201344615542,0.011266240087411535,0.01082718707680242,0.0321653964628432,-0.0014957366677443816,-0.017080462624343103,-0.05378052783021038,0.0649168867927866,-0.035862777825702546,-0.02752214052471954,0.035773337391112915,-0.0524552008705055,0.00033417172593530066,-0.018101688311497614,-0.140918590639074,-0.04374135983671151,-0.09601662905522763,-0.07597644353167061,-0.06322574194825861,0.10921214855330047,0.025154433951066327,-0.06881845906523601
154.25364685058594,1.0699005126953125,0.05068705408679834,0.1275838800414942,0.07961159152748967,-0.0008808133374247523,-0.0017814935319370225,0.07416208274727788,0.09153749882583541,0.09768117188263004,-0.031164552055842766,0.04588324312905154,0.01859045547740958,0.018274908108536936,0.19253632558675238,-0.027099102708872252,-0.013829442143355039,-0.0894420687805731,-0.09395834267374055,0.005093107462614507,-0.09977050632869347,-0.05809231550096536,-0.06732412044356405,-0.12161104089951708,-0.07372896367977363,0.11715579288260666,0.09254526999430128,0.08281548598498066,0.0355681952652449,0.020104461197760163,-0.08646108637276007,-0.2676066001516788,-0.3963015467714096,-0.1376595110479807,-0.21889976031762085,0.14039928290753367,-0.4932001775281499,-0.1981641202522521,0.3618720357734154,0.6670305128152345,0.07159268930315509,-0.08189287705241004,0.49669189703108274,-0.13106656747181142,0.17082667585959688,-0.4317494921989422,0.2686761514771337,0.30470438794782306,-0.09333178617271248,-0.17522768288853896,-0.7045967748684152,0.2197115552118814,0.001957789349040423,0.050731509407289044,0.5027419316454035,-0.08456600150994942,-0.23452065442293069,0.24951138978962537,0.17171017630812274,-0.006994442248001605,-0.013513250331679707,0.07607897029400776,0.00884770745402291,0.0241853031391026,0.039593360503525285,-0.06223472461571703,0.03427233492937566,-0.002964754747786121,-0.03130255103826514,-0.018614109435777876,0.04056620101568692,0.03625038242643157,-0.07528224520619219,0.10720684037632071,0.015738803050861713,0.05979595176685626,0.12762694827274607,-0.132143886510104,0.02443021968286932,-0.0366993973995782,0.10071064806070355,-0.015601269017525107,-0.04599023752413399,0.026726467082399,-0.011937993478229022,0.10849511168156085,0.0026733267627831953,0.039631805378506184,0.010431411657484867,0.01796761899326746,-0.028662580650181062,0.041920543718655785,-0.008338760237843763,0.024270489251130022,-0.014436897160249337,-0.02847906761260255,0.028915157329587375,-0.007089198201020747,0.041522734124217545,-0.006891552798807122,-0.05394431426448206,0.12454639295352223
155.32354736328125,1.049896240234375,-0.030645999207411866,-0.017363418085258903,-0.07352007580801691,0.054473894959054095,-0.09234362433969881,-0.1097893413077892,0.06264429867012905,0.0692830348015268,-0.0543155672040059,-0.061102126030379955,-0.04056116855531508,0.05976313301133452,0.0953612281317624,0.03699875030400691,-0.035849141312863354,0.05440426955171704,0.0037437680249735555,-0.0753080549142891,-0.06735771643864112,-0.06847109100612365,-0.23040595516276502,-0.17243665727709662,-0.019627925375856656,0.05230547304660135,-0.02664457275113541,-0.21411186430650617,0.042641181611173896,-0.08913639579952073,0.003554990972030353,0.25925554453234234,-1.8617198104611127e-05,0.0968140248661078,0.06305042144888423,-0.20136079172719118,0.2401458943855825,0.7898968282236521,0.10320990160347511,0.613537248826631,-0.21969856374874042,0.5058162227326887,-0.3594804860012592,-0.015411832227051923,-0.18858396534338964,-0.0426719036407934,0.18155595784004241,0.05995580849853191,-0.5040159844037767,-0.2804444971576615,0.15280677477927557,-0.24500028929700116,-0.13350845450775561,0.08726667884415813,-0.03453978404831148,0.020243599049026995,0.021158141113344048,-0.039695370431853734,-0.04401276185277374,-0.032504002913938485,-0.032314306760288125,0.004512975107309507,-0.016730352238340802,0.011928593158076747,0.05552711412362536,0.06500145580962563,0.024201876335937227,0.07143662361083568,-0.05032149143938179,-0.07906718385161231,-0.012544202104259175,-0.2920461814188541,-0.010233864593924655,0.017789841768761354,-0.01509663697908524,-0.0010107983757807275,0.025974877356905936,-0.040107606099483294,-0.032376308665430356,0.0009887386127369344,0.04330392704520903,0.008338437888653533,-0.008164652103897801,-0.08956779026348072,0.01760929649691402,-0.0017526628155169152,0.018944427737110765,0.02490686930791788,0.005808124042845168,-0.03260481752970638,-0.0004260800037154955,0.029289540966665726,-0.0014106675891296103,0.021250173944817097,0.005024605022048623,-0.0063762472151347735,0.032886723757114676,0.028363080284872638,0.06822587615824227,-0.062114128880833036,0.010880524971224603,0.01994602827536331
156.37344360351562,1.0597991943359375,-0.002765990214155932,0.022244794198930898,-0.009818969503895596,-0.07561179839289045,-0.18710335061893318,-0.04152017911742182,-0.05791508317000161,0.008470863430154406,-0.06525785536441273,-0.02668163722173276,0.026434035848433093,0.01741061587684469,-0.13361052544619562,0.02078962208171592,0.002156752009934527,0.0784405151675432,0.0010586564791518248,0.03684398230609849,0.009676222029029208,-0.048770640793808384,-0.054849311101830216,0.05240371195402535,0.03478423329938972,-0.044739731280761606,0.16799433256276053,-0.052202965288249546,-0.04668186085808161,0.13324504737192927,0.1563819014119511,0.3946966289008029,-0.1982077992225294,0.19532706188045498,-0.07151019168754177,-0.06429290621821945,0.31203206981929893,0.041515221541055955,-0.27461748078559484,0.14163955348305138,-0.34477521691634005,-0.10100750077612192,0.20890090372328782,-0.9041333693081651,-0.11810229815148066,0.061729514539158446,0.26146504901550643,-0.018136925323593543,0.2823120837309831,0.5237280203028596,0.2110226564522756,-0.21494652733579847,-0.008225827815353524,-0.04132000017263553,-0.016239538523864047,0.008921933376052852,0.03302062075978268,-0.08076438946286985,-0.060636635731565816,-0.12849045183628816,-0.02039910155185764,0.12204680152546124,-0.004009416172595261,0.041468600978706305,-0.09182362406568821,-0.025328740782016784,0.028576724568287387,-0.02544970326668236,0.03481186000217833,0.0034631697303055854,-0.083295146669768,0.000583446043785572,0.0013097475498752994,-0.04752087950503322,-0.03258587205093355,0.006513600478892455,-0.013973306409231301,0.03025229513766846,-0.030332362486524243,0.02156289979882412,-0.07276787524094273,-0.02740649920067044,0.06504913538894085,0.0016121315711905028,0.04141270671397713,-0.01802280369459235,0.022516124041084815,0.07413498236026611,0.0203048085837561,-0.035275353199897115,-0.05371444509125076,-0.0690143574665858,0.021456954308151394,0.05916353198493848,-0.0040561479393251935,0.15385836663283917,0.038949514942631144,-0.10705383991797411,-0.00509142022683864,-0.006519795874587583,-0.028409866992302153,0.051327387897821965
157.43324279785156,1.0893096923828125,0.017627219899208204,-0.010406888668875023,0.04900588253740403,-0.21113500475918412,-0.2474350973905819,0.032159693725596426,-0.060607667673509724,0.029958612655322805,0.012643029222907508,0.01797051211370462,-0.01017176164402192,-0.03276231057973748,-0.004604024976858773,0.020095079334489636,-0.12131993643327257,-0.034293151139135655,0.06773043702197115,0.24303038848567987,0.016545364841186988,-0.0005267850695455656,-0.22576922475412708,0.07698942715022002,-0.07792321434522116,0.02198252551405612,-0.20353223993629604,-0.0001934147473746911,-0.11368104250785918,-0.026874968848751436,0.10208044008481985,-0.19469137876001164,-0.11089409501701006,-0.0401391218719314,-0.08197003955258787,-0.13026304335148736,0.31998375769338944,0.05415705150605715,-0.7686770531521228,-0.02173556348538331,0.12598144513789064,0.1569446630015551,-0.3280281075519368,-0.08228947747537464,-0.25450435203047767,-0.234945586720642,-0.17260987523514743,-0.32696641886939287,0.21413500966821378,0.0855573173916166,0.016333455540788307,-0.002705267033698916,0.19224470803266402,-0.01301405402811083,0.028072781005917403,-0.09953211573011075,0.03551571127301362,0.06953866184878546,0.009946904229410669,0.07558219414674515,-0.01138914019620647,0.0017636692637767988,-0.046648250466814034,-0.05550935181904571,0.015083373232386094,0.027335258227412167,-0.003162915585827832,0.05013872344263126,-0.053380639681993435,0.0545914478065397,0.035926970009011724,0.0485803862920178,-0.010260652220470703,0.030146328974115663,0.04228184260148275,-0.0020751491428497026,0.04708347118419831,0.007898335807070682,-0.0029888122605486733,-0.04714071112865234,0.013539390659411102,0.06613079252075608,-0.07621725243411902,-0.0236283928334391,-0.041328738914186675,0.020905204992271744,-0.02561791139587895,-0.02836216816984638,0.024416934841859306,-0.09772579098482662,0.08118605730830857,0.0034622888471216653,-0.052192832820335044,0.08973717867907494,0.062369078247704095,-0.017755980759400415,0.06877471460216564,0.034009814643541025,-0.08851330536015337,0.05761360774208135,0.08585084008779643,0.01614543440640649
162.25245666503906,1.079498291015625,-0.015332365823105348,0.06779822138276505,0.040775296433003386,-0.2360720176649712,-0.13548883200438544,-0.15540005659229544,-0.12420607327053565,0.009536073056280955,-0.03992352464938396,-0.05875758168839741,0.0018377095222860853,-0.0277386441906462,0.02014857286624493,-0.09819811263160277,-0.011504520183179209,0.009634201871537235,0.1343029015045199,-0.020440427850845797,0.04537112208588694,0.026064994778327646,0.014192665610020505,0.12017031236883109,0.005835191720072811,0.17884596676912534,0.1744364980195602,-0.0653198639261516,0.3983035015447352,0.3930447728562998,-0.025274635437507315,-0.19036338837389366,-0.09281410285918548,0.17156549339487545,-0.024056136785184187,-0.10794465986487801,-0.46614108891335776,-0.138121285709342,0.16090306412010594,-0.5529851724910395,0.0036757232315831594,-0.22293513349484984,0.0629961285202217,0.33073970074774983,-0.052931667122737044,0.32384991490441994,0.16191091773557784,-0.10008648693390738,-0.03998799495523925,-0.20242388925806423,-0.11666447284569677,0.019407505870711047,0.09424272399686784,-0.055477182150826455,-0.06379634874394458,0.00430025433169778,-0.03899518383594232,-0.0010047302997939574,-0.054750863429081004,-0.014082982682054096,-0.007319927957031986,-0.05159590542352896,0.023229444442193926,-0.04144571833119279,-0.011824506711849696,0.06210479910633383,0.04855783275646817,0.07565603666385312,0.08031337782769205,0.10221721996256083,-0.01423663431560823,-0.011142764285717505,0.011636155788607622,0.06075843748815832,-0.002657883141640611,-0.05932174043959809,-0.05788906244099111,0.00825980385155172,0.061020119090490196,0.1071929541166696,0.028201445510174013,-0.09527370197289962,0.011290489328824007,0.09417494100387157,0.007006347425683013,0.06814449575641829,-0.01512489271280118,-0.0051177295189662715,0.011145512218449132,0.0022181989187653865,-0.10449965793706137,-0.02481272393863377,-0.09629036465990008,0.04920325958507097,0.13184068248949665,0.09735654168026836,0.06652369092440791,0.016610591307008593,-0.047808684471103154,-0.013033868372275534,-0.05120560705247088,0.02342645820341186
163.3319549560547,1.0802001953125,-0.0028911858822643945,-0.05298473852956318,-0.06271961282987044,-0.03800908633823051,-0.15943300207049158,-0.10406375423866938,0.027598193092273557,0.2201603453786602,-0.007441230748708644,-0.006585955510253946,0.01967767121068008,-0.029553471108803808,0.0039557604346448245,0.10216561818169288,-0.010321750452222916,-0.03913611647734995,0.00541798338153255,-0.018353128369942635,-0.05364231469741157,-0.009515960702329119,-0.05618108219016283,-0.015472841206480757,-0.05311215129482973,0.0561619871320458,-0.15531485628019642,0.062380101793389084,0.003211758100522601,-0.31623343890146044,0.04851737682246576,0.27988605495196966,-0.11205855105604291,-0.004165290728537053,-0.2347630390409392,-0.09980035111209398,-0.37001724219516463,0.39304851080893394,-0.057019808113126604,-0.19963664404561907,0.11445326071054045,0.04495673424201447,0.4105917840993457,0.023328584897872456,0.03176291887035221,0.25836455443918543,-0.33748418976508976,-0.18723288977522584,0.157153218165308,0.6026334700891861,0.11159484000098731,-0.05953739699302756,0.050737579701789465,0.08227821751636659,-0.07454762155954392,-0.016829792230502506,-0.016124009552806656,-0.06509266729301114,0.008382005676748279,0.07792856775524447,0.0019949557600082396,-0.004729165626647055,-0.053173218866015656,0.0072300642014575724,-0.04284341100773157,0.007218975803900017,-0.07487840726772547,-0.07352513450653299,-0.039827391195111056,0.028445761297285068,-0.002831482740207816,0.15115053351714444,0.04818429658658408,-0.0354641539566486,0.0744520211217393,-0.005258285922867928,-0.007193633332982617,0.02255228370257843,-0.005658669070784264,-0.04080560489280505,0.007964568533531453,0.11057361126037693,-0.00886895270253929,0.05775809949621355,-0.001980249102225968,0.003903989972712817,-0.0259763681302662,-0.0630899293660101,0.08291043180519837,-0.032851653075646324,-0.0645928898168931,0.028761312036760314,0.01791523998429928,0.0632035167902854,0.005102829959597825,-0.062029712290708035,0.034804363476471444,0.003449346510770307,0.02639844446220612,-0.0248189731316021,-0.08255148742301796,-0.005503435545817864
164.4121551513672,1.16949462890625,-0.03339772580755941,-0.03443451182212874,0.03479857261151822,0.0672680056920008,0.023790104412398375,0.07183959030179633,-0.11998184334801479,-0.1272248683985007,0.014588841894519278,-0.011926432781856105,-0.08522478915931253,-0.015123312591406533,0.07096338899047709,0.007324140107502509,-0.13262314830448874,0.06709516504438333,0.1503716665939814,0.02159789021446584,0.08271552264392704,0.2150392589373855,0.09872161434479869,-0.29807210216329894,-0.12368585936699077,0.13477774420848682,-0.08410351990799719,0.09151801774905047,-0.010894250157463509,0.10622434776132583,0.09033006914472377,0.41028954893318786,-0.016631629760297157,-0.0467709676490307,0.6811528073846956,0.20208662939467503,0.2707860024316435,-0.29829849656077234,-0.131951909407727,0.16075552338839144,0.06332774187645508,0.3476742119598328,0.1998477254167838,-0.1439207266219495,0.00731877297909154,-0.1722298949160972,-0.06807398742914765,-0.16994399216069966,0.406805743957815,0.1889919966193556,0.060811503466431875,0.11133256685745499,0.007844524188866199,-0.0032467535084168397,-0.022707685457552827,-0.12232569869904429,0.0050155345112609245,0.014354668080632458,-0.01932358688546666,-0.03477743278658288,0.028944736977222985,0.06665590473977713,0.06721632183547954,-0.059110976981356256,0.0933515629376751,-0.053611962235854675,-0.1330863229324952,-0.07829495927911605,0.09795694396240011,-0.006882079192662524,0.05326265001461629,0.11559281060745683,0.1328192252117825,-0.007814984698753991,-0.046778296007919,-0.05459277561838155,-0.070353398877825,-0.11082257012692984,-0.020508584824225864,-0.011060751095827236,-0.058945377717709746,-0.002734706172029092,-0.004169675194528599,0.1039097254999819,0.03210476772289795,-0.003930190476349232,0.01745143290010899,-0.01983222916254645,-0.10200840113452465,-0.06028595046942194,0.04305671726377028,-0.05673367949585963,0.005392695647284088,-0.009384493264613708,-0.014508011015038666,0.017977083028949684,-0.029607852259523552,0.01625386108174131,-0.03148174959942032,-0.009636825719456812,0.08620034667957409,0.05908769297062002
169.32135009765625,1.0699005126953125,0.08504717370847002,0.09099974890140881,0.041814921270644366,-0.04114246016466176,-0.03798593889346704,0.06983351550680904,-0.15476777093405766,-0.05890812279123639,-0.06226132028595146,-0.01958506352044729,0.04894079959664799,-0.008989616020389373,-0.1783772648886823,-0.011028719638544649,0.00653582752298436,0.004946683726509576,-0.030342226134360703,0.09363296355947695,-0.014046378841299403,0.10365297095799653,-0.11222134462925679,-0.1477140768668318,0.17516539352401675,-0.32381648369765664,-0.20060760197704625,-0.10047015853975501,-0.02068526028183174,-0.18744791642144415,-0.15996149175225227,0.17439264013962244,-0.10502880257226437,-0.043958957563205246,0.13305153485477111,-0.06500911346869494,-0.1349982102894114,-0.37830790980570966,0.007010105414610019,-0.14145572767359946,-0.27538046296296564,-0.21459800914905489,-0.613720534487339,0.0891050332086995,-0.20675077156092478,0.3488477695997853,0.37588501531424023,-0.3163204671944256,-0.09876289827954833,0.10601630841596422,-0.01058538202107738,-0.2546238519711232,-0.011230409252904111,0.035339117773216244,-0.13306362650538184,-0.031640716430647406,-0.02118967649873665,-0.025232509993713383,0.037489800007888464,0.12176626500690516,0.10595811785185492,-0.04645032230721212,0.024827356937392533,0.06871534734947064,0.004122868874192466,-0.03542523353539645,-0.0028251897456771646,0.009462362472182285,-0.0320278981512773,-0.0013107652054007545,-0.04332219065644487,0.13340972742091878,0.03243945561183572,-0.057690047357548124,0.06625652413189326,-0.024132855922904154,-0.07925166042065962,0.04624376393705956,0.07096490108426914,0.05478096016051596,-0.025404019244219284,-0.039813385769191086,-0.009470147703070338,-0.09138242525020607,-0.014326676903667096,0.029179821712665525,0.05225402189634573,-0.033727059692430394,-0.03795971076721138,0.09601647178181279,0.029040523220629336,0.0012045004729726218,0.03888961378133943,-0.0043360569356291675,0.04867275426940074,0.0434898487641165,0.014238346838555627,-0.05979409983163792,0.002562094607837732,-0.008269715754562656,6.92737594074188e-05,0.058719296840021265
170.39125061035156,1.10980224609375,0.039398972658963916,-0.029140916739198455,0.016337535986468064,-0.008340107652729592,0.06211533201723473,-0.008683076319732355,-0.11720094122487089,-0.07575049272651303,0.016749421979613294,0.07057528232869695,0.028948241886692642,0.08482038211158649,0.07048589504793806,0.01312727855311236,-0.030801261982532926,0.05176234649933711,0.029872079950407467,-0.08665723711123607,0.1844351975476909,-0.11815165872152762,0.14691345232162,0.3389944677213236,-0.11740315922539693,0.06542856748074695,-0.39966865453889344,0.031213941413088975,-0.0267436416522498,-0.047580076645524896,-0.05777360997548747,0.029118877611302302,-0.08330477055646215,-0.10088732909366578,0.009343124074371113,-0.018312859979135065,0.15702292011631067,-0.1441281508145618,-0.4762193830092874,0.29569995313252856,-0.21292580733642819,-0.5125352411964946,-0.19202820326678288,-0.3227366710741533,0.2068010928950182,-0.11749580933412421,-0.3527179563966872,-0.1482044559942118,-0.04156078252496202,0.36531375499608587,-0.07502735656726081,0.12953077928683698,-0.04629063499743696,-0.07582998116268037,0.0903356946710513,0.00583649675412463,-0.005493763226924619,0.05987565336241718,-0.14530405160342424,0.03979156254241241,0.08530410276183721,-0.010865096789018652,0.05503327076198998,0.002891689513447376,-0.009889884873898025,0.0004976403721489681,-0.06763640197677528,-0.001774740703725405,0.00904813109700209,-0.011782757633755542,0.00819313575779455,0.007445348301535447,-0.01676539253099109,0.0889620738780529,0.13452275974211517,0.005637312873960227,-0.11067606261854046,0.07673541329315198,0.04575216034279079,0.03466208128158269,0.045784228125977364,-0.04949077767830648,-0.027919140978390003,-0.0035886346855491073,-0.05452112308611975,-0.004075938321473609,-0.0033599328508895744,-0.09710689930026205,0.029451047488283647,0.00903995578275501,0.028360695695163623,-0.0072968623497750565,-0.044689916537623726,0.0045508489962150026,0.10350045397072198,-0.03989626644804174,-0.06673646301064937,0.05239179705997106,0.05665913759667885,0.050165188540289354,0.041683193866231066,0.027520406129060156
171.5010528564453,1.1699981689453125,0.14988467055062155,0.0132480283544981,0.013688963455957732,0.08328741891378387,0.0284080840452993,-0.0737188838083532,0.17595341259863095,0.08066142736462656,0.015035182292214325,0.09230178126955679,0.02610785356519553,-0.18717614534851415,0.05481891538590295,0.04710286020617742,-0.00350405996937022,-0.07118281978560688,0.11139549088663168,0.03319238119267791,-0.14360293903026117,-0.10364417461302254,-0.00907707467482613,-0.05543061351570357,0.13957128085021714,0.011325473564907228,-0.04682347057714439,-0.135755375854381,0.1873898698375827,-0.05877167145327003,-0.029717545017945452,0.12719063405075293,0.19512694177010817,0.19530305950034854,-0.2878808508097314,-0.3035313471204973,0.07812164523696663,0.008209810213153687,-0.3679923379481794,0.30309755787794807,0.21502923627272058,0.11728730940112736,-0.19553979019972215,0.17092752920796536,0.16779089664043162,0.2703262274988804,-0.08856705519014428,-0.008067537294941585,0.10978624279177723,-0.12746041614657486,-0.23819102009902254,0.25249633328027604,0.18845690992712968,-0.1052665409650851,-0.1812406964104826,0.0494457046320856,0.06479545504253728,-0.008740387909998072,0.017050102088486098,0.030869271603452694,0.0015587032942858067,-0.003693214573122401,0.0011845632867412332,-0.09025713781581482,0.050656614535104595,-0.002417676811848693,-0.133214255560174,0.016160696411496006,-0.008591512348549758,-0.05072655984796133,-0.026018908611448496,-0.0182073030103145,0.09287031063943482,0.03450642499899645,-0.038388850693036054,-0.033004658258154726,0.023334862398381187,-0.02957447853356899,0.025639178275199695,-0.00125443338050827,0.044365507644786084,-0.06081974232309073,0.0069581262708948025,0.044308309349560586,0.0037468403933224315,0.02312663286112836,-0.03846826616476227,-0.08249679317306925,0.008552511906742508,0.004358010846997484,-0.0900559370095639,-0.034306391219606845,-0.006454208778252965,0.006611747688798492,-0.02062830536175691,-0.011058516259384532,0.011777675206254945,0.03359566305098184,-0.07729222948638134,-0.02297783252569895,0.06432209262167109,-0.14285044865674637
176.27044677734375,1.0897979736328125,0.023467951640975707,-0.01193086968099269,-0.056805851541094105,-0.00690364951378984,-0.05801797765385639,-0.012573062462291229,0.01755979677600024,-0.024496951293257005,0.03852298201740995,0.06118273117081114,-0.09965655374833267,0.006069702506673588,0.026521221452533286,-0.034202368971578315,-0.0060454215343723645,0.03073596428389336,0.01329312875959364,0.010138441157016086,-0.011850043817549005,0.0226564477054512,-0.0230745539491113,-0.035785050232532443,0.02433497154001244,0.0016368185140533194,-0.07825462788693971,-0.023788305358223,0.09883665034715011,-0.011957248418033462,-0.10675521669798897,0.022116286431349278,0.06340718400183007,0.09409918534938298,-0.17259904228229075,-0.4626209516289403,0.07905484839599043,0.07446126738342804,-0.20393331807839477,-0.14434186740389013,-0.21499492452279884,0.3151721053996255,-0.29809916281357224,0.23395843926887366,-0.25971366880964253,0.38514401695625755,0.31226792244809526,-0.3912787886172083,0.10079775314827476,-0.11583481770630266,-0.3118901684618628,0.13882300808354525,0.18905187785064909,0.05782068311524293,-0.05815426821609087,0.013375826288544716,0.07484102026838266,-0.09104215031979096,0.016635644281373756,-0.03666737196559908,0.0077235030435178036,0.010497956173844405,-0.03632892369501567,0.007299701526821104,0.034639274179169996,-0.07205187622201802,0.04014737125929541,0.09786281573284773,0.07874894534831844,0.046265094737484774,-0.04274647751716206,-0.05278180254814431,0.041711414511428735,0.0273655996513793,-0.003017062528083231,-0.06524963442324526,-0.0006312778166562075,0.005762815638485746,-0.05316950576139467,-0.03750474806421635,0.026067002563002546,0.012637374716090681,-0.001304917836504535,0.020224139993836262,0.01302585496033624,0.039168405209339924,0.008950209353976125,0.08758479075304798,0.01689988846107171,-0.03661813375764806,-0.03922817148333933,-0.0911375383344499,0.10896830245479351,0.010700742833284132,-0.059005219772211306,0.023102288853639505,0.11241759914240289,0.057847948255014506,0.10096158951705635,-0.0509924303290115,-0.013428059820628429,-0.05407321526427816
177.36024475097656,1.10980224609375,0.0650891620677065,-0.05954923224094436,-0.10562918449062167,-0.06096263555279274,0.05525417066902055,-0.11051136616806433,0.056060083098812705,0.06565991571926925,0.0032059787045321687,-0.004158176754075579,0.1728752856696204,0.14342704032729542,-0.2588761968395954,-0.022655864321106098,0.035202851961086495,-0.008020912162501032,-0.016298315791552397,0.008458193087091479,-0.051022402836467085,0.08052803385334141,-0.1038714748123645,-0.0875105473702006,-0.0899894369378255,0.04014441967494068,0.03089668147247994,0.03125258217277931,-0.03215771336683593,0.020435744446667032,-0.1266307756411018,-0.026105461564868072,-0.06665610828526833,-0.09446315250726381,-0.014996493876908878,0.16183978923965173,-0.0440139139112887,-0.25838313215621966,-0.07287138410278884,0.4840653603667778,-0.24790974748727138,-0.27756072364689943,0.003892417700005979,0.4629230547342468,-0.5933142319596809,-0.4832965566343873,0.18417101088925597,-0.004177618189590011,-0.3210530162491037,-0.02999209520649875,-0.14637428974943087,0.014000578096453692,0.21042332976083752,-0.07802936705777423,-0.03593043908976391,0.023964876733871546,-0.003913425573516512,-0.007529421079893123,0.06082910348788449,-0.10947524231525035,0.009780851273510622,-0.01089908214745305,-0.06327637757162166,-0.05399242236481597,-0.03817788541091384,-0.002890640382688908,0.059669129228540195,0.12608463963030123,-0.05817116119151606,-0.08177215613226443,-0.002952162452952576,-0.03174746635622105,-0.11822510107056794,-0.1568130798531019,0.08214505275998399,0.012127416563729258,0.00013253293598028583,0.06814887070070502,0.017653128694718214,0.10184886491112334,0.014102838672362476,0.008836467115758797,-0.07829241792759745,-0.02919940267330593,0.08241286355080771,-0.011201700838855903,-0.0051135707266041245,-0.017620316789360376,-0.04621302201483064,-0.015609403126033886,-0.09986175706738061,-0.05194430232726061,-0.06643613960842526,-0.0019211979997255252,-0.0005692383014119933,-0.024804822671072826,-0.011947976464409102,-0.019972195331251736,-0.06334751875821772,-0.0624419744466819,-0.004051208782874573,-0.12781663250151926
178.4700469970703,1.1197967529296875,-0.14895501316355558,0.0021312807573608218,0.05196338043139216,0.023371127898569575,0.03734008108644736,-0.00014676145367911123,-0.02939042840245068,0.03105091570822789,-0.03311655671944268,0.032398528398838174,-0.1019545130799934,0.01504094346332892,-0.10433259690145887,0.040232477725527356,0.006517081037907288,0.013683961836112899,-0.019510310193754505,-0.0045641511920686125,0.13737452387712268,-0.080289737024618,-0.14864895079020185,-0.3570066343542471,-0.05134412116957196,0.12345285242409217,-0.06627634641361213,0.05576413235027433,0.10512747225063164,0.16974853113219068,0.010588227349387296,0.05887974819568802,-0.07275935342089208,-0.06387682344435758,-0.012760959936871853,0.005595798462441062,0.33339692747807065,0.003761375593424347,0.022597514874386,-0.17693449877606313,0.32091603051959744,0.773868435805756,-0.12624565064357068,-0.7430855993337602,-0.3042050402117981,0.4438765572766402,0.06416233478471775,-0.12580728015885337,0.18201761886788279,0.3192899939015475,-0.0626544217299851,0.12462416684048212,0.23269930319952148,0.14923547003403298,-0.0770705164226603,-0.08404001350252992,-0.033084332367081984,0.025883435463433118,0.008223901865723587,-0.04510122292970556,-0.08331810168307961,0.09343835875623081,0.09736761016671747,0.08761841334945483,0.006709936458534363,0.031554039771961306,0.001860396278724814,0.026260950565771688,-0.007013867643255937,0.005016143670209444,-0.04538308970158478,0.07038716212570542,0.03131834838666531,-0.04301955654046565,-0.01625138340267267,-0.10631093701121377,-0.04515589137028579,0.08379109598774769,0.029466092039945293,0.006597282650104917,-0.048574362944353695,-0.05356555671890979,-0.12024101881734872,0.08453054276574819,-0.012720050407060646,0.004590871076346698,0.0026933875572317297,-0.020929654532192473,0.03095303581092841,0.01538486957258791,0.02143722294817725,0.0077520099411881385,-0.03684178868859823,-0.0036050609586180033,0.10493675043519347,-0.01358406496387172,0.09764017980734516,0.007099102778320515,-0.027079669473638025,0.03035779477704106,-0.03515958165771241,-0.037606665241338356
183.21945190429688,1.0493011474609375,-0.05239803895859446,0.0039051727953414717,-0.043973136994966466,0.12267336270894694,0.03340962543362776,-0.05246708691327848,0.021586063766847123,-0.016084140976927144,0.13411691040067356,0.10455263467431018,0.10382818654004305,-0.1155296346433165,-0.005610739343398671,-0.06091133135898678,0.009104406730262134,0.016666409225881102,-0.04246596319343697,-0.062305411947861135,-0.08883724796339651,-0.05358775555670277,-0.0735109872535825,-0.05172011348367494,-0.03388185829723851,0.04641270625967346,0.06245531078889003,-0.19397784873187188,0.22099268614381654,0.09058596313817725,0.008839325284634103,0.08667376706094365,-0.011993128696230263,-0.08886756316423632,-0.042895479352257085,-0.020584976551047806,0.022182430944574574,0.07619743307457402,-0.3258689162238431,0.18758673477380533,-0.20693674060952857,-0.4618500280145353,0.4991335640691307,-0.39235536293504114,0.0014689564972254071,0.26313832735484505,0.2369348297799643,-0.7082395314948529,0.3043254272670715,-0.10181881577146733,-0.3518181277596324,0.38068503330420794,-0.34046477538501835,0.17647540593414174,0.46630159592052484,-0.09438278250943086,-0.060378179144459615,-0.009009813540403113,0.03529241821735663,0.0018542779031162976,-0.05485413393183032,-0.003845273283273566,0.025999694884270577,-0.0149980352215867,0.05049818443657125,0.05324368534874918,-0.05175967259889966,-0.05253696265882439,-0.042410280643005865,0.008134676459594769,-0.03709831167929865,0.07818654269366533,-0.08965993928847002,0.00032281290287583726,-0.06584393500035421,0.018171843930891506,-0.020743033271164286,0.06324255264844837,-0.05842726684590973,0.027721269794092757,-0.08632870943831977,0.04630271616916983,-0.010338057491216003,-0.023375569337331037,0.026878352052091048,-0.0573921705672613,0.0030582172840936082,-0.0007820994746358895,-0.03915881887012149,-0.00241484362404999,-0.03197101367693567,0.0923104782908767,0.051460080091838195,0.07183483075246924,0.024561576615574624,0.007796526803700937,-0.01922636669111431,0.0767617228049417,-0.10048129534025492,-0.10078591518796662,-0.062487190304821416,-0.1041967829450081
184.2687530517578,1.0898895263671875,-0.13901475774248012,0.12119355223333382,-0.11722552716832789,-0.09328567950797595,-0.19569113234228722,0.21941696681753117,-0.02846126821949687,-0.11663648442093846,0.1248267273831007,0.07361894200526586,-0.012555021663162443,-0.019407741758824024,-0.036068782666271816,-0.047206931962312695,-0.11895601269840905,0.019773438506412444,0.17811636792076607,-0.11080771230062075,0.20187341511154866,0.07176980516870449,-0.03987478761078521,-0.07360323569957368,0.15109688316570657,0.10339825270243107,-0.017333007598219236,0.2488032094217851,0.07508436765902757,-0.0725221055338497,0.18342690102371703,-0.1016937235655253,0.06530171152497848,-0.11464271213440112,-0.06714532119156341,-0.33675202117788244,0.41930582421319995,0.2426119419973694,-0.19891667606534344,-0.2964570829975134,0.044279681888893134,-0.17108049512538445,-0.38681010481488715,0.09941256830967561,0.27306356595515013,-0.017592450759334993,0.1676239256360026,-0.021111881900481144,-0.3297954824908871,-0.1702283017221312,0.06132335263141858,0.14664854118633155,0.028516148707476027,-0.029342707362183317,0.04159647783818372,0.1005611333576531,0.021092014207145657,0.059499184680478205,0.024927556312416325,0.010231023953715324,-0.043458622962570165,-0.026995342356479202,-0.044960351223064576,0.048945116305193624,-0.018753910140212632,-0.04998849316142212,-0.014371774282957496,0.11139679549377648,-0.011635762257151717,0.0018309984632733764,0.028773632779857575,0.01533031412440093,0.021338109860311833,-0.008782363512828299,-0.038498516885000694,-0.026761805610565004,-0.07290329073006646,-0.06677919534820018,0.038854351281911774,-0.06696709529518768,-0.0675820671541291,0.055418638603225226,0.013024321105667655,0.07070179428271625,-0.01080507520528847,-0.00903969017365245,0.09731648454421511,-0.026128528589324143,-0.07593887586048488,0.05990467274158087,-0.016093475644905958,0.021660215506565647,-0.004462185031646207,0.05790728466812447,-0.006818878636885252,-0.018604866148381884,0.05464541175915386,-0.01401745460209205,-0.08959106212795355,-0.02452414660297911,0.04339668796393467,-2.9637100215203216e-05
185.358642578125,1.07000732421875,-0.031739549553314324,0.12847102488334186,-0.1864450238038634,0.02331125453847939,-0.08363356134764763,0.13754779014461035,0.00717655468770647,0.17453475805262486,0.2343882155477239,0.061803690843919054,-0.047517901587068055,0.022723506217282544,0.08118666445447677,-0.03153426897629666,-0.08612657412733316,0.012272109351009641,-0.004645532575517465,0.040060469294471636,0.012733079790610995,-0.11644402456149129,-0.23108345865632063,0.06388099498597691,0.005410578558015842,0.29902518340560014,-0.0478864573472208,0.08854053108455273,-0.010761062833403789,-0.14424505053976683,-0.08606955188005508,-0.07173986760528692,0.461114025600774,-0.1896802440125717,0.3821368647453084,0.1916558206512367,0.07204882970506334,0.04126670742637445,-0.052445747458492835,-0.048649929774393315,0.10942995421261181,-0.2569167116922116,-0.141969275659248,0.294949478700996,0.6294779002971148,-0.4299362622777058,0.2239115628000501,-0.030349268244939557,-0.14774557598466684,-0.16987611016319412,0.0016554042097356473,0.09293563153003168,0.07102505574244511,0.0760941839006663,0.01197707647529045,0.0003278322322694424,0.016698109209307383,-0.10397320509143289,-0.01867953185098723,0.09888203790961485,0.020708752661553264,0.04843245587763584,0.02475259902763678,-0.020802640865841257,0.026073233761504784,0.01736328229275041,-0.02150242611508095,-0.005878544274711135,0.01413977588753237,0.036470352103771815,0.06561020697010507,-0.03549790109085539,-0.012935603730281572,0.05158039724304892,0.13186390496914702,0.055390168255476456,0.007627653327067076,-0.045915609262032794,-0.020842066403943614,0.09952051194085285,0.020332095148866185,0.041418395864808125,-0.012729821248258565,0.03730340597013531,-0.02232600806740823,0.029816367784035,-0.03526383434855895,-0.10396538848722846,0.02542036987249625,-0.00039563032424487737,-0.01425193928730703,0.06340569480048676,0.1357591204274188,0.028473299897088213,0.050496998800003204,0.0763050931691032,-0.006604694019524087,-0.00358298627842953,0.0415253780927153,-0.024327439894230675,-0.055847216588328294,-0.023811090001331595
190.05845642089844,1.0792999267578125,0.1419065135729296,-0.011703375833224967,0.022394404777204,-0.062088949243685285,0.07644271594233726,-0.06488324274792397,-0.016428801080490718,0.0034035214682909404,-0.08899430131932207,0.05317981110477764,0.12653984253196907,-0.003835569036973569,0.0738655714839001,-0.02849636403545177,-0.08578531575390685,0.033510632523301415,-9.272209943347529e-05,-0.039244153487525725,0.04630840926829934,0.03518111665139186,0.15171292506903458,-0.1551264564499343,0.1363957361812038,-0.1844853102185555,0.03261950537449859,-0.0060910764851455634,-0.021124229210259998,0.3133476049256612,-0.15120328912280925,-0.22811296938187997,-0.13214434424840654,-0.009511006852785157,0.09540677853991979,8.777842505668406e-06,0.13435746235235763,-0.036703577510269675,0.1873576306982219,-0.060744644814658286,-0.29315644913170036,-0.07715182367788141,0.2364663126336524,-0.4116728496322468,0.6659183757568319,0.1449177458330349,0.2709075599983936,0.37236478818498714,0.004674202922779182,-0.46529143650164395,-0.1060152458484126,-0.2989655495022026,0.08142129848774574,0.014100060287005514,0.02161405234757465,-0.007653874892875893,-0.05056468810810477,0.025871307361557513,0.02216063703825741,0.08917040807592361,-0.024005797939770646,-0.024881610156258175,0.03111811095113321,-0.07664538519388357,-0.0007191076864483453,0.019204085784124917,0.08482140748284736,0.03739468616089984,-0.030919557587254416,0.03568321058227876,-0.038474825271561756,0.058237053452043455,-0.024317666309094682,0.06644861218233195,-0.08116081105265965,0.006008353577412209,0.07550089462246616,-0.01068489427421121,0.019449018980361332,0.027507139303912985,-0.018576989609076493,0.013470233065781025,0.007418124497883386,0.04081091168694859,0.01615153875993797,-0.07583285491981794,-0.022597044807190284,0.0024906097306252434,0.0012117671314894492,-0.0711337069441779,0.005394462028276001,-0.013469471418471893,0.016688967398989885,0.012563547501549116,-0.05802486175040317,-0.06216239831594922,-0.062295934178644666,-0.01642778972516642,0.048575871669827825,0.05218898647650337,0.06357608842506254,-0.1483804201958543
191.13775634765625,1.11029052734375,-0.032544329727783164,0.11144998154173547,0.05677226073357276,0.08354471505519592,0.05303854758002992,-0.06302999819340799,0.0016481397247504496,-0.10068926113366605,0.034169866251430835,0.011691656040787146,0.01517039265690383,-0.011055493810768025,0.03555892980009306,0.0015827486920562115,-0.01270405588825678,-0.07530641325734337,-0.07982338807544792,-0.01389889698316217,-0.03495342059271257,0.26366680574036566,0.020827225204095415,-0.01727999285128361,0.05213810214748963,0.11342172288796207,0.06919772003476968,0.11604738857132946,0.20706885784847764,0.007618671540913054,0.012812907748587322,0.15173879448034838,-0.09846467965327944,-0.06860233125108739,-0.02591800898889216,-0.4885325771570281,0.3058041647210922,-0.28250181210000286,0.037515316044747345,0.1299875095880416,-0.3427148837428986,0.4055494928386257,0.2162976840504418,-0.16898307673183938,0.5362234395973071,0.07462189083703907,-0.18115461981103853,0.14546679691948364,0.1471461808962916,0.018900128182617736,-0.225868183687718,-0.2616256192206987,-0.004078468298621112,0.02118118314823997,-0.08139107017008745,-0.06578473960968273,0.0920537568185777,-0.012598534113403212,1.621729138787429e-05,0.06479450781608827,-0.03983534282400791,-0.040314498777152395,-0.01883259684790766,0.06371631665313744,0.07990886520586385,-0.009197734953421223,0.011838058687709659,-0.13876527497658028,0.0020085444522076404,-0.003343302564089069,0.026360647002685134,0.10935203702598462,-0.11638217037370996,0.005590930146548575,0.07436028296373093,0.013714793947726775,0.040542605570181765,0.07665829132511956,-0.001942906394350949,0.040980279455459165,0.038796764852282034,0.057536779535908744,-0.049706922781838254,-0.03450764147030303,0.012243104076609806,0.04138089966663877,0.012073353137165519,0.006661434311842193,0.09061123694859585,-0.0015946981158480207,0.01136886814013298,0.01616981099279092,-0.015343769989008296,-0.014946402504689725,-0.01119460496174051,0.012497628227181597,0.13468736797813463,0.05540548724298299,-0.039217385451907026,-0.00162452682437997,-0.01776833443120538,0.03279341700156848
192.248046875,1.1598052978515625,0.01304270700374803,0.042754414300747064,-0.15505418925057413,0.07423645811362711,0.12430342257510987,0.001767633418324921,-0.0696157789164707,-0.02539859561351091,-0.03844754850709434,-0.004190102159260048,-0.03926255645939479,-0.06201224545978368,0.0820894833106042,-0.014446239819876716,0.07680334735333116,-0.05885150709565462,0.024599986601695198,0.008939968468859808,-0.058894738064626195,-0.10867713770391263,0.08885170244749116,-0.028071990637165763,0.07133520024741369,-0.08208021906585405,0.03680510387895913,0.11230539891841254,-0.11311463010459874,0.09100584485233831,-0.06545683283612959,-0.10276857499378947,-0.05903523464613556,0.20758333341185065,-0.13223363613431813,0.2948282842153578,-0.13262494792428725,0.021903961418018494,-0.0303785490218712,0.4463641816517819,-0.06540231965296368,-0.20356129171002457,-0.5673116035189866,-0.22571325256813074,0.08077883779820311,-0.5475257743408344,-0.7187767291026251,-0.017361361156500336,-0.08785658195263743,-0.3181006273343861,0.03739814868394909,0.3869782010044328,-0.1032651389740996,0.03342695446573185,-0.012357802808106395,-0.015007391968729954,-0.014981410240520425,0.09840354403570357,0.10182685588263532,0.008771096328128648,0.00467887715401839,-0.003710827543180807,0.03992188026457558,0.08290833622651692,-0.05371933125498514,0.061503502661456017,0.012132657987908226,-0.06658195063339498,-0.036567216695024066,-0.13851195759323331,0.0011145712499975485,0.013411824850189045,0.0492705322611469,0.06172755278159686,0.03686475140471822,-0.0230949753801235,0.026976734052578475,-0.032522059714497696,-0.042768063275810404,-0.010962138826516279,0.006657419489946256,0.0002696917874068557,-0.024695054933492323,0.03411503905861182,-0.009834802963732299,0.00025839028109980413,0.011713525494309063,-0.006871978920137996,-0.021967332407958413,0.00692768198749087,-0.024733970416376386,0.047268035814233084,-0.010654650444628284,0.001750217290284705,-0.013677751410934944,0.08639752201864198,-0.09076759353348936,-0.002041052693655389,-0.0488855852838043,-0.04152721388575674,0.0066234336839407154,0.010031839735533288
196.93734741210938,1.0897979736328125,-0.05439738493882211,0.018435706746761912,0.04301991033229273,-0.17537193493345238,-0.018272279100307997,0.0771821688022272,0.18306549028423622,-0.00952162205539453,0.16102171782561128,-0.03177035669091832,-0.06754319656384922,-0.02806557255106168,-0.04162492396610047,-0.016548529565443122,-0.03896130411404775,0.08751088869836404,0.13052344968212282,0.048974267019602766,-0.024046171292190124,0.05513317508586925,-0.04703443348774504,0.0817500503163007,0.19058323977618344,0.021534503416067947,0.04181989223014779,-0.05925307287641822,0.04495717014080981,-0.06647746119908712,0.19052145428379821,-0.07169835103949943,-0.24553776865515758,-0.08725061590436134,0.24591986343263478,-0.13118007693781175,0.1305341967290387,0.08231196251157248,-0.29889342322575446,0.1981494921629809,-0.338448514697993,-0.38973437941425526,0.020024485852315168,-0.12406642789190128,0.2213156198178514,-0.07402683240427513,0.3896173926697236,0.37000231359631924,-0.19727810457749007,-0.4076278449305335,0.04918004085588232,0.024640562295913375,-0.06776179941639623,0.004674367789879181,-0.024488645744885008,-0.39979164712447635,-0.07146707284451863,-0.04268945101694887,-0.0011300504904889488,-0.014090300862532308,-0.01405510489509132,0.005090783003904561,0.10068173040793384,0.0025931649921645014,0.05022226767946586,0.05355483806210483,0.09565331549004627,-0.09432206838752363,-0.05042373615020331,-0.02064489570843802,-0.09773706716268676,-0.08305463223475595,0.06762417389072307,-0.001321821679604221,0.06145289174687744,-0.032004754670916964,0.01625839984747704,0.07232656869146653,0.013969686534828323,-0.06901440624334744,-0.07758768338749557,-0.0165875444749482,-0.008274826367363888,0.007337556034241624,-0.04445176518328877,0.02542816387267091,0.020840982010078713,0.028260334799496283,0.013517339740517708,0.007791617409471164,-0.024976158519712355,0.017350322247899164,-0.046090552485788736,0.008024839226878888,-0.0027539086321027137,-0.02086424826268489,-0.02856160287740322,0.03668813911158594,0.03873746343218656,0.04696156656904825,-0.021869332065655025,0.045560337776899176
198.0271453857422,1.079803466796875,0.03459861970113763,-0.10993089707036069,0.08984950233555015,-0.02612889046211256,0.10842467958526866,0.18221589868188645,0.04511950481129501,0.06202426990800238,0.09211005394825134,0.03229672288794181,-0.07202972268030917,0.01755196284154469,0.048588755425942536,0.02639651363572578,0.035144534907757465,-0.02096110803063904,0.03585546541844138,-0.1181643049505833,-0.07565197507984735,-0.014850294552147232,-0.033504626277560345,0.030095758899888178,-0.10841252170834324,0.24925677764396903,-0.002164355303596979,-0.042378311358820316,0.028551862772572132,-0.15110352247428707,0.14881752264451215,0.05495688707772392,-0.44970707603705173,0.03161093728051986,0.20212830313635335,-0.006330114810987154,-0.4267268299499188,-0.08712760907292302,-0.19884450518031463,0.27355797957215644,-0.110659610809529,-0.07078292206933581,-0.059402082835120315,-0.23142969991281248,-0.06097078615526119,-0.16658437385154043,0.2695708141574609,0.5609272918868127,-0.02165489602471539,0.1081202397587844,-0.10662694614860238,-0.5711164613783285,0.23633550005808812,0.475848698747493,-0.1208519640971414,0.018046268359277154,-0.0981959151667641,-0.03937413421659214,-0.03329099994835379,-0.009417521521912001,-0.02010685909482754,-0.001475048624516835,0.028855790378469852,0.035751364469785045,0.0034953397294342345,-0.024946033364884445,-0.01968070635795531,-0.10261375441449165,0.02897911534941542,0.037743418016999444,0.039846628618830995,-0.07990773731477221,-0.03275280663341772,-0.013862748588126372,0.06072406790766421,0.04254420162141671,-0.06505462977301142,0.019530349054302128,-0.026201351078068258,0.03525943370810013,-0.11416633592295418,-0.14103690294979493,0.12043526110223635,0.10774346719789975,-0.048627976525623125,-0.009359291751143377,-0.0616198887574217,0.0033949939842411797,0.04462954031048667,0.02719162049457107,-0.08757708863298902,-0.04560301716700802,0.01573633179482476,0.04508385120520502,0.004683153956719848,0.007894202741946077,-0.03945747707401273,0.03913348117571592,0.02624436905625638,-0.06009856357944316,0.0019575705896084875,0.0020317736939504394
199.10694885253906,1.07940673828125,-0.022608534033362847,-0.009059859579065093,0.08929515369733795,-0.04731276409853215,-0.017548076640623116,-0.09223957656235957,0.06280544261822969,-0.21991505421965468,0.022892095894743947,0.02501369908827244,-0.07355349541339819,-0.007695026141136626,0.01648510631948859,0.08603306030714367,0.05014278885053543,-0.03788454396760843,-0.02641261456108035,-0.0711039920286246,0.14496154196547456,0.17613551618753903,-0.14736638842391375,-0.3270562756405372,0.0181074318859702,-0.02866150371916224,-0.06833880768717894,0.11937657947261893,-0.13887888329600973,0.14293197259891235,0.3730544200284788,0.26397340964997384,0.018583888202395822,-0.058940103557548876,0.02933291013358077,0.3585437755185983,0.062144495670599896,0.05175947868441309,0.20511740304080395,0.2425127207982906,0.09769456706418167,0.3423641719452241,0.2472416181232539,0.03940905039160489,-0.400852843534843,0.20071350758952972,-0.1629914428000443,0.07106954573174258,-0.16593106865595392,-0.009257252012352193,0.024721618752145923,0.010948159770062877,-0.21812292266356398,0.06608105156899309,-0.19073324844159367,-0.03064530371057616,0.037913891883141475,0.00932715348882956,-0.03080421523019994,0.08760468626091958,-0.05692215837609491,0.015419193274475846,-0.07576077473991565,0.12168260940906006,0.11032501230386797,-0.09339154324954123,-0.025958179313709116,0.030586064225814502,-0.003503327873486058,-0.0007336143501169518,0.0903723450804642,0.058460356836164344,0.06194060828393856,0.008613035943868433,0.0017597373609372254,0.0062321670941172125,-0.09250220698497741,0.013950928922159808,0.021952322159175152,0.053859447989098516,0.09305588383909857,-0.029503170721119104,-0.04406174951378632,-0.019028258410785256,0.02129402370360302,-0.013227522610485635,-0.057097420339567675,-0.007294383960022077,-0.02933364998093432,0.0322554228174075,0.02749639061898165,0.0045791600354253194,-0.012467035081800635,0.0540374430288806,0.020088048750504208,0.021500686227239194,-0.04871390311686261,-0.08080195702596155,-0.0961021217117047,-0.008153457574700984,-0.06490475391012034,0.0013973962302908096
203.83584594726562,1.1201019287109375,-0.02488769766594749,-0.007420813411028141,-0.027229493566224203,-0.017185113371572223,0.17255758402036755,-0.10535974736980405,0.10302853663397786,0.11736771827680477,-0.044317527310780244,0.03625097786067194,0.041638466068163404,-0.026145587434959584,0.020108100951922215,0.007930078844655457,0.022800217145540053,-0.01636637673885289,-0.04639349442715812,-0.05502703770267085,0.09217620598069844,-0.020495399159716116,0.02386721304006332,0.19785153917089998,-0.05141171397199995,-0.060145113562796976,-0.029605156345082873,-0.054108315941909346,-0.22363956247861974,0.05534368730621234,0.016221061981212717,-0.1171111511425009,0.2730401518501456,0.09597996682638996,-0.04226995934164207,0.05048960618002371,-0.15112796523646155,-0.3194241754905542,-0.030169711202257338,0.09191623395879525,0.28432076226338787,0.22233032194723581,0.20535219007957198,-0.08620143300935533,-0.6746332673944555,0.18038868332595548,-0.04914777949563459,0.3929762710835063,0.19136710843598673,-0.08118215357854708,0.02249490426991317,0.006952634876916995,-0.08535096927803336,-0.026272277332069813,0.004808370703354617,-0.0364176650678812,0.013434539795471639,-0.01752034594303893,-0.004832777975191326,-0.05320516078085882,-0.033195266181193714,0.0052539015514787915,0.03587550290895028,-0.09399684213046718,0.04548617608798164,0.08670730647225591,-0.050477111711240474,0.004031173181263704,0.0131118549021845,0.051699975514417185,-0.16649634679292882,-0.10482321270016205,-0.016175082169292983,-0.0402382560230954,0.0030165728936866667,0.022379025470731794,-0.03074652607424006,-0.04560649853229314,-0.004461609254854761,-0.09675740221196784,-0.06803462389365188,-0.03145574837664858,0.005460056005153299,0.026403781303064276,0.004343407825777702,-0.00790088927759961,-0.0024224569658467545,-0.010522919184243341,-0.01903645163961012,0.05998773985056419,-0.04704327756398867,-0.00011858599161713307,0.04952982074961218,-0.10866239143344322,0.0917901800758294,0.04079278760794098,0.015870924009909904,0.002879458484908626,0.014650981986600224,-0.02692293239626939,-0.03863854144756767,0.08149672050358563
204.95594787597656,1.1298980712890625,0.05937912674433357,-0.018328064229535628,0.02202587669912149,0.0026506819758194827,-0.02817400079625616,-0.04111782823980403,0.008292836713865435,-0.0006216243998712883,0.0006260941737520186,-0.03727869939427332,0.12544211637632727,0.08705352094472082,0.023252915708009796,0.05255404451136139,0.04941120233308906,0.002539393470179162,-0.032717548566785416,-0.05017865393288291,0.017063807565690644,0.09072345104904844,0.0019187265210094204,-0.01610361018664347,0.06972779680039401,0.147441119107631,-0.04352150796314282,0.1396132481649712,-0.05626136103315163,-0.014821269322005705,0.08541494023320148,-0.04423017272480197,-0.05543572372374532,0.16295013061274705,0.1338809467605827,0.15288568874114847,-0.15379846950582057,-0.046933322017393024,-0.12174902043135857,0.027001328770841753,-0.05899181860342234,-0.019140505829415254,-0.3801527158204197,0.2396529376496089,-0.3157189808604052,-0.2899462230695751,-0.07830804354743759,-0.0011426050074023753,0.019927131631540473,0.031211491059863566,0.09536244091043009,0.036695207077549835,0.06775209730591608,-0.015336383116455436,-0.005820192335932672,0.04888704480897004,-0.012607108023193961,0.04628593401999562,-0.054840039272341545,0.02124315703776087,0.0015969986911634807,0.009334131915192527,0.005585825461870298,0.051154180553389834,0.04050931625372489,-0.013444981810011464,0.08319497759623243,-0.016088176469195803,-0.0542963624840659,0.05293589658347818,-0.03924441566736955,-0.050773258701585285,-0.022465588130546027,0.007748856443716218,0.05453830745001203,0.10076058937627655,0.04019589597181658,-0.016640524623813355,-0.06473831339984407,-0.02158541950832383,-0.055730693499662025,0.017211529915743713,-0.10055455562883281,0.0719747730346563,-0.03674621803901012,0.0032371844748404766,-0.04906842539814682,0.0009032259212344064,0.0368259554191787,-0.011135019661938465,-0.00548369275570322,0.13280512830834357,-0.03198306186947681,0.0009067309217439892,0.01788663342735906,-0.03068072080792182,-0.03351297032049594,-0.03335016214442048,0.08400374110042036,0.0520491829532461,0.08231206844533338,0.0647342757656903
206.08584594726562,1.1598968505859375,0.03262948257181458,0.05477646944169584,-0.09651179102560284,-0.1289961211336628,-0.10593844550287757,0.06461806098850963,0.05215125547289905,0.04977236407379334,0.13390737047398688,0.009736811447400719,-0.020401966072020578,0.1281735818577142,0.06725533602243411,0.07473689847160514,0.07181927901551807,-0.014494395891802223,0.03894635356686139,0.019302045280732993,0.021813257826689754,0.03229513696272075,-0.0021205568483604873,-0.08690565805992316,-0.5227977750797064,0.3011648662996077,-0.04013178211443119,-0.10770797822033713,0.1957238947150886,0.03576064881546029,-0.09008181592771039,0.22946946830182388,0.017494648985714227,0.11927029004245783,-0.09919705131434547,0.03969035208966199,-0.11256362855011051,-0.022112039687759544,0.09147592154524854,0.19740695488532664,-0.04235725416797058,-0.3370713802750886,-0.14065914164765675,0.24281801788907248,-0.32321361557623535,0.07968887142787363,-0.17917832191905686,-0.17980826943002876,0.1316682018935963,0.012163856657508939,0.2031975938160661,-0.12312993580869883,0.06553878786537973,-0.19597307296545602,-0.1406593325339301,-0.020938521719210856,0.009475964623321818,-0.007066000577692874,-0.12914896549454075,0.018009390860383046,0.00935680431224083,-0.13110087131198875,0.08629290853903922,0.005162926712645095,0.04059253525156708,-0.05819259245638033,0.013647608443559845,-0.007444654256497372,-0.07532577924938626,0.003810164409009116,0.06281530384127527,-0.024908852671987933,0.015940896257770103,-0.023076768749837127,0.0033309904379384045,-0.02832939521216781,0.024943258552795146,0.011857879197680915,0.01572447079675486,-0.03017149209597333,0.07918400385933447,0.016285249934581185,-0.018997499138308872,0.014017654319638393,0.009531965413271795,0.006718362864008895,0.0035154653560377875,-0.028874058074260925,0.048604989374323025,-0.03049651593991784,0.041650439576457234,0.021380532923741306,-0.0005820154625971073,0.0792798579282506,0.020058230754274868,-0.07197542584237317,-0.06411722325199727,-0.039248049241650144,-0.06675161079308503,0.011564314700808953,0.09492571468458849,0.019913976602840097
211.00494384765625,1.100006103515625,0.011310405606534062,0.09242688885109712,0.050432944187855266,0.04340820450963878,0.033076129250328434,-0.03874135012390465,0.015267080203088007,0.1122900349845575,0.0009626458024248109,0.016240524452445084,0.03376069147423325,0.0883017125649286,-0.03242580871811705,-0.0039229311853076435,0.001181965510738819,-0.009411722918204862,0.021238364926221172,0.03265026585863362,0.1365639672420953,-0.16537942261342298,0.06062053344150335,-0.08007724610462388,-0.041749647262819364,0.12086218796408277,0.033861008034532056,0.0852376930016264,0.04218132234493242,0.0428809153541382,0.031749540250579675,-0.5019674345211326,-0.061511167467766886,0.4765859337293557,-0.47076727977639254,0.01977512360299695,0.49910545030281966,0.004371983355854445,0.003500316636391539,-0.10121157699134918,-0.6876407546808091,-0.2365519199456222,-0.053509228503613275,-0.3738190672057999,-0.2550448480066471,-0.4477542460592346,-0.0849903312276531,-0.12025423499077922,0.8073733497074513,0.44151487614314006,-0.19650313690819698,-0.2907133371128708,0.16417644839472956,-0.01718381220605124,-0.1513704455087289,-0.2153306980637545,0.14918471174588102,-0.0776000151111152,-0.3878673934377556,0.1016521777847308,0.07608497872010246,0.03624296208385745,-0.07175101136538999,0.034254958866422186,0.004193944829321538,0.03814196432856125,-0.01823076987491997,-0.009042477672786112,0.0037803089750125048,0.03939723484362722,0.03527009497283323,0.07831380289358901,-0.07742111442358816,0.022405398816302696,-0.02832855042789415,-0.032806060711587655,0.031550313330025954,-0.05818535957052251,-0.055978338834296176,0.06520701942558316,-0.008940840372909544,-0.058218227751583085,0.03895809462554657,0.036292075441345426,-0.01638010815973831,-0.019373382005843737,-0.07907436372359684,-0.0002915244561010798,-0.04046942653583502,0.012888707297552236,-0.009929354763979078,0.05295662149734736,-0.030476917625106292,0.03360636220600337,-0.08226070079825798,0.003495331999025848,0.155237719623475,-0.017183710294657543,0.05851896073669996,0.027817754913672728,-0.039773476167180355,0.09912878734547151
212.10494995117188,1.109893798828125,0.072534250978444,-0.07734076504333916,-0.027434843921849604,0.00501615602740646,0.12011243102905307,0.06254591704083394,-0.11564019810441892,0.017189337711557253,0.02386131530093976,0.028556873602461945,-0.040580575791206754,-0.048497173024425945,0.06615706463538243,0.002583681079406464,-0.011058749574302647,-0.04286011087783673,0.0046267215146471715,0.026504517043457736,-0.0984726063546043,-0.033192910706310426,-0.3335238754932415,-0.03421713563335687,-0.1589139759004409,-0.09360920494392602,-0.000254786561935629,0.2066733347381341,0.09766885891281607,-0.11428479011316448,0.04935301815052789,-0.029867333437086557,0.0017428145145377749,-0.10765959348847638,-0.05284955321188181,0.02392980643403396,-0.10640792282297033,0.598709322761545,0.166553138281971,0.0907522739100663,0.10725640893134894,0.21054891047596425,0.04034219433326488,0.12838260682478697,0.34860956608883126,0.18523876119329966,-0.06016373015380233,-0.3602798273780552,-0.2057902137175141,0.17203826481208934,0.18947140405362942,-0.0545914330909891,-0.09601953720976769,-0.005056556145751055,-0.01073660479221628,0.027912281318070886,0.01421166941270131,-0.11378141809519629,0.022521062637075484,0.08946772859113687,-0.05819943729712958,0.020851406745452983,0.044856333926286435,0.10979196452655479,0.0011041329482043437,-0.01826804484723036,-0.07044203824355327,-0.0323787239447825,0.14234356452059127,0.07665089067656995,0.08195619915134578,0.006769123358069063,-0.052456631604272726,0.039768457283714476,-0.043006239481109015,0.006705841926830866,-0.036641646570929345,0.030850615950107622,-0.004296635790887626,0.029343370336338426,0.007804435301362209,0.054880880745525495,0.007049449289248182,-0.08029929774795888,-0.0171204632346213,-0.009121303880844414,0.04901270717752209,-0.048295613134166464,0.00795368973025595,0.0006856098239789298,0.020562485387126683,-0.0160868290587449,-0.020725884713036227,-0.06726399081277973,0.09889599125978868,0.036383985947371376,0.023609087745683946,-0.005948932668346042,0.06739760025686373,0.005480090444873529,0.015006736239711903,-0.025036571250322062
213.21484375,1.1196136474609375,-0.19659613907211207,-0.019540819674971052,0.16871784711446108,0.07074352390013416,-0.09274271653134132,-0.12768868988815674,0.003166705728768337,-0.06664430643623462,-0.022213787081376064,-0.059443171970809894,0.06174764191384942,-0.10424864145585885,0.042694485382204196,0.015907498600529542,0.005393016958437432,0.06400990685143391,-0.13420293997525298,0.0533676567778875,-0.1132610751980806,-0.029160294223442476,0.06040309859273481,0.06667496251563601,0.15290923797321473,-0.08611837688596484,-0.1295427195106607,-0.03830004559803344,-0.07918362591925837,0.06229335599019248,-0.009201624010266026,0.05150770236334257,0.047888374670591885,-0.16073268362581397,0.045274296097783245,-0.1801356110141642,0.36160859766870707,0.44094092537992496,0.04921431573074327,-0.2920515710672342,-0.0020112899574607056,0.17049524977938357,0.04652651805384585,0.06843901152045691,-0.5447912536992139,-0.09251389397756254,0.3200832682708309,-0.23265908141591596,0.04351623556340184,0.33557265663704106,0.06998934689092365,0.09682349225401492,-0.021735971560023788,-0.03028334403632144,0.03691278674877232,0.08567366475267504,-0.06177748915890806,-0.005901746604325466,-0.0054973930288750306,-0.13633253492074984,-0.010101360214310247,0.05612362039655352,0.010730248437882587,-0.2596246860375713,-0.23345555904803844,0.047338760438602794,0.06474420765891326,-0.058597751326085995,0.008167842502449094,0.09442825819910566,0.016021997225953096,-0.14409756974900648,-0.013158146498768994,0.045137885614959294,-0.012872453499828886,-0.03273790388387221,-0.041170128357065135,0.0041558373399866455,-0.005698573437990812,0.03273744950977876,-0.014572693748040199,0.0172944855824282,0.01619841270781458,-0.01983059247508775,0.002069736377572055,0.005781709312422129,0.0019106991090324479,0.025699138906825913,-0.11044102358987311,0.006126346924634922,0.011513030229694077,-0.03841496803408283,0.004675890861684094,0.009124840654299369,0.044082592776418135,-0.053350170885880004,0.028636933915563025,0.020472879864690114,-0.029595346514298546,-0.021438920203732326,-0.03340701637559508,0.13232323758581693
214.33445739746094,1.0998992919921875,-0.021242526225517783,-0.03164191900671133,0.011537030413243833,-0.1596591396980469,-0.05325071266521999,0.015010679228098582,-0.15371106708632032,-0.05787588524009095,0.10318934731705141,-0.00635308969156975,-0.09685902163287022,0.24575236926225158,-0.3865334680199627,-0.3059597371278559,0.521242245611523,0.047860499634092724,-0.16473724141787466,-0.019115852248921462,0.030713235507307285,0.09369833542709285,-0.09932577516162606,0.1797572128699597,0.26918954785138505,-0.10000102641052855,0.041686400114723424,0.07233899821056866,-0.09444574932770415,0.05570879079912151,-0.05716375486828763,-0.015457571786527537,0.01724690006502176,-0.06254712531675367,0.13431267720057263,0.0843058164264303,0.020611622056123484,0.018271930666182587,-0.2483207999474287,0.07905828865084857,-0.048152648704455195,0.16085536626138436,-0.015765382212496792,-0.1318509114823116,-0.12324903772561621,-0.020217657434893076,-0.16762706911845743,-0.053493580563123845,-0.07857608635260746,-0.08616890099619062,0.131546483808875,-0.041595100690717854,-0.19841881519557253,-0.23741428070581136,-0.43771730840410134,-0.3467185275325818,0.8090914175760132,0.0974384058814714,-0.04909112705955811,0.047029475223627305,-0.046036527833304655,-0.010900039890371074,0.09140536178545472,-0.00617853919799606,-0.11263900222753279,0.025144410464559765,0.02867394987330119,-0.06172178258477523,-0.08897406819064468,-0.07797433153983364,0.06673543110268647,0.027488115545898154,-0.03441494840117272,0.04742400191445051,-0.005786868619279934,-0.05989413107719136,-0.02057342779660961,-0.00697071503515289,-0.12493505390913587,0.01336763865123643,0.010289945463147276,0.005355965483872266,0.06907760104097263,0.0038090479204509085,-0.027631643316136868,0.020078768067139624,-0.09282139077158393,-0.012276147239874644,0.019628542660506967,-0.11577272718878864,0.09370741192634391,0.2459378454217722,-0.15527848588229354,0.08695631869669006,0.2122978557254375,-0.4320986438268669,0.26143633711575415,0.8646895510153445,-0.10206728211671369,-0.1004065033378092,0.0034731847698352605,-0.46714545131450785
218.84375,1.0998992919921875,0.13609329371313186,0.0676169704160364,-0.04418403585802698,0.007507102479377965,0.010117075297387326,0.013929208779217397,0.006621309940624931,-0.0034456516267943028,0.02461526592448641,-0.008029057464361153,-0.014567545534996371,0.020376917502400158,-0.04996711511172808,0.004826572229033833,-0.03473323687086484,-0.03397889495343225,-0.09416569854196442,-0.12291175452046682,0.12273570449095872,0.08093023600670103,0.10933948219743006,-0.03689644866219623,0.02764439523329511,0.086925820414235,0.22053794885489558,-0.01378934875750009,0.09766552606346338,0.22782282053054856,0.0974350980850915,-0.12660128890453565,0.1695128204028178,-0.00805458579191562,-0.3353811154766667,0.08667288243438769,-0.13338593278900304,0.047071938542268155,0.05088477817737888,0.055209058893724364,-0.40261359937696084,-0.05103888575069136,0.2449013812580585,0.014927513253664787,-0.1963323562551978,-0.11073654113276193,-0.2585660745840208,0.12397452749535616,0.453923550413391,0.2531034124231125,-0.08721890142229508,-0.054280960955795904,-0.046868166339583024,-0.18012552469173257,0.11108627946549604,0.1506582011399913,0.13503380579106172,0.04748093011700803,-0.0038569256989041904,0.020445408352103886,0.00165506512571288,-0.07815256799748894,0.008175292634389259,-0.13289324279974335,-0.03221862295447107,0.015207416445495666,0.038789438962837826,0.07411892769703779,0.04323001267770846,-0.005332302554517999,-0.08706466350813331,-0.028534108528861485,-0.02106518022774046,0.031115992837352197,-0.010907089840717485,-0.024238211553540518,-0.0032477871904418596,-0.038393163544434186,0.03192553175243008,-0.0913754794688387,0.006431996483513091,0.006271970464149211,0.04636857259062098,0.028894757216367924,0.021359960364671863,-0.010576321884701246,-0.04927126430822934,0.08854261514133861,-0.12071041070774075,0.018959184034751927,-0.010488717441060776,0.0455865658581546,0.017454204312883494,0.014986732117034742,0.0461980106221772,-0.06437418967889255,0.034034117960344445,0.036566037689749135,-0.07085758718207616,-0.0012463323569172023,0.001235837403895556,-0.07148402978920919
219.9436492919922,1.1300048828125,-0.09173218233990332,-0.02442170248836775,0.008660917560677397,-0.20043922916325294,0.04208443181364534,-0.10781914708367057,-0.08997945061802551,0.019734234765373525,-0.057727589159196985,0.0024272665305736588,0.005280202361930412,-0.05998521102652344,0.03812371384997874,0.03175219797460517,-0.006708632314223365,-0.13236642479440003,-0.0011523087493047054,-0.028226105029910784,0.010241675912017911,-0.11608372739458267,-0.03156780685154262,0.06102755880098877,0.03260984271462117,-0.08016785497338705,0.04950377058969703,0.15026265583386855,-0.0465562957423173,0.12652323499285317,-0.03100127783416655,-0.03710308870819179,-0.3442415695462176,-0.1386677550227973,0.15305523636748922,0.30389881582195183,0.4028859803589223,0.2586965637502929,-0.18427804257590882,0.014527685478348262,-0.2333442491875383,0.39532428079269966,0.6685795163530455,0.18189871136488386,-0.04360451070481948,-0.04635658336092606,-0.3775764362556829,0.3935034647383545,0.1585934666454098,-0.07251434253876811,0.01617544373126495,-0.07509515164941813,-0.10329284441910681,0.022588597841584894,-0.030994634853404934,0.04008593142199442,-0.013629063766400315,0.04116024242931168,0.02777036899433975,-0.002818254153977352,-0.042929301856534346,-0.08081812617141948,0.01908208961969087,0.08865986049146979,0.01915412365440369,-0.031166041031883533,-0.10518573908428601,0.04644040921365985,0.0818529493385879,0.0032801374509627192,-0.13789188798303817,0.16919959179111133,0.030754943884722136,-0.021906306618379476,0.008827561455867546,-0.05164529052935685,-0.01292871915122367,0.009959297241337286,-0.031989705230139255,-0.06827954438181512,0.016980453175566335,0.028519111222611658,-0.00893181826586514,-0.02308467388753771,-0.04860824930285857,-0.019400456186215304,-0.07610307328461616,-0.010498683609285703,-0.058901405187941736,0.013246794179420606,-0.00041022844743721066,-0.04026108777967578,0.018115791875049997,0.06124531809396338,0.008589706868048788,0.028934284907205985,-0.008957325744437347,-0.09770066703414569,0.02459378748027499,-0.08768212670180801,0.08914915198366662,0.023912374995315372
221.0736541748047,1.119293212890625,-0.0010935854194672398,-0.020514389788189133,-0.08559392897623881,-0.16123491605915719,-0.04167357935118145,0.07452367516617694,0.03680202763906812,0.003934357668740119,-0.057197389074596774,-0.047688134411627024,-0.005405485452951764,0.06567006899139025,0.07015437687118084,-0.007563751371554616,-0.0027614729981976062,-0.03153540754844404,-0.01610976794486997,-0.011382858862431093,0.03756754619765727,0.17378363721578932,0.15897663890620797,0.004644700110209959,0.016909619447346175,0.1764053075852991,-0.052135109184122376,0.27662532955622116,-0.09576359594912534,0.09768547202726603,0.2799067993866131,-0.03379183755511178,-0.09755379884015056,0.01149716582936426,0.01274273605149288,0.17100825780214035,0.1470715980291791,0.07695697037069099,-0.08723410373584237,0.10521424579589764,0.004566723033703734,-0.0851468670715471,-0.01304084545401003,0.08709133693812908,0.21092722096422853,0.10536111153092992,0.2406042588344589,0.17785147898901169,-0.02592476023278946,0.045284341554313254,0.029844974438946896,0.03189336752588268,0.02034181688805517,-0.06769217550046175,-0.04336692874439582,0.011137075837461607,-0.05889414109747218,0.041895147961254896,0.05682089842313905,0.006952782722517509,-0.017393807276944347,0.03179609372117516,0.08884963596234197,0.05739173182836196,0.05255920959164154,-0.02817361869129283,-0.06914255918436739,0.05125472809018507,0.006049654932402327,0.11759066993105786,0.03367973754893815,0.03550274951003993,0.03200926770173341,-0.042905939358252015,-0.017417631801540275,-0.10274788614771439,0.022911537149639713,0.04046028554421046,-0.02268868112947129,-0.005097882863453123,-0.006558477253795384,-0.016069880748033175,-0.09503057096458317,0.01165816768417078,0.01504053116761275,0.023559849534461167,0.017777927418822233,0.009065339229989047,-0.019048489829487616,-0.06675772635493102,0.03194529138218026,0.015049359177655203,-0.06755258974982943,0.0465751275952154,0.10145667064988524,0.04581003725688041,-0.0949635663343021,0.0653106049408295,-0.006455518932863488,0.0015894308351738933,-0.009748235569882146,-0.11521413108755907
225.76275634765625,1.0897979736328125,0.049195692925442604,0.09405726697548235,0.16451198401968362,0.2679451028440348,0.10749240393581865,-0.048559499439865275,-0.09261567809083823,-0.028333297047520408,-0.06261800735805755,0.0811407205904787,0.03445038775590174,0.034281994897113914,-0.002819483778925704,-0.02621038892779734,-0.019861536380357803,-0.03857702521846344,-0.05572524608521584,0.1836512053562994,0.10312156406419237,-0.10279754287118258,0.01693641644908265,-0.3176222753484029,0.12836225204940904,-0.2543021895513548,-0.13119712311788528,-0.0932906777498724,0.0073795428259791,0.07574071454215267,0.060517028138002193,-0.03977122796601906,-0.03552149739592299,0.1239411372201043,0.04231551155904856,0.025518975290636764,0.2831891988256153,-0.5823921195964206,0.31153012082599263,0.23991522394554401,-0.33356584841339226,-0.6584630570508684,-0.45187649325811274,0.015673288972826785,0.7278570972415772,0.11020633532648778,-0.2856909140197343,0.48816648556634246,-0.18761894638391566,-0.061747521827726706,-0.2574892184344278,-0.0024016713392542854,0.10819658582924568,0.19239949997106456,-0.08492167929682544,-0.12132872178593186,-0.008007800491601704,-0.013414934245112446,-0.03899788254163708,0.011184125791029464,-0.029483793006877878,-0.018518677622488596,-0.039765152693078204,-0.11982734184716028,0.02745795102063063,0.10698276982172623,0.08811864952465844,-0.02104373380289684,0.023863994602831347,-9.383018640410357e-05,0.13102334911559702,-0.0592049922292896,0.06001787928770833,0.03648634305947914,0.03371136305717685,0.059924349724902834,-0.010434863150977284,-0.09940715800115016,-0.01994338420188491,0.01736122961520903,-0.004259200984476064,0.024680953081073896,0.07992721294225906,-0.012690538997914242,-0.10903834856305236,0.09647517485855088,-0.008880827712229455,0.024549806992590267,0.00042649960085558984,0.09478706932583685,0.003552556099348063,-0.058679122845005025,-0.059540186069188365,-0.04554853429740344,0.04848984713272013,-0.023890295191844303,-0.07729410496715314,0.012102692731139888,-0.07616705299560826,0.026384676536247292,0.023984309612930077,0.20989499882569337
226.85255432128906,1.109588623046875,0.03002265227540872,0.08618936863124835,-0.06441161329443201,-0.07589197617106426,0.09703129498258228,0.07297260926047394,0.06065214171994891,0.017352764613247623,0.017338035736923038,0.04408639459401316,-0.0014257903735762265,0.015867583127834123,-0.01814608074426792,-0.06460777020796038,0.03474196037702576,0.03244652710319817,-0.021878168820526317,-0.008961782618667539,-0.16966522532438688,0.12066932332592567,-0.054560175655769635,0.02846722576125849,0.06562751132992439,0.08102934358488399,0.08051142520904925,0.08563341288997063,-0.03986286838155634,0.09043359652353165,-0.08147265231213345,-0.22818647632648778,-0.24748350623362456,-0.07380700752736155,0.16514527788825217,-0.43145925828971954,-0.0398609870249882,-0.30094588137966427,0.1942908056898822,0.3541712605291026,-0.06621368741053416,-0.09334618515052293,0.20709868182622804,-0.10860159850716883,-0.025542802950454024,-0.07298107711841373,0.006126638390871217,-0.19446345064417042,0.07489357120865527,0.2422304512026398,0.14214258799983157,0.039482068694677,0.11933366623003697,-0.07313559611968948,-0.00663326526794771,-0.025213440295823234,0.017335491809143136,-0.0661761122690688,0.0274856125060172,-0.008773331836922856,-0.02936179219295698,-0.016895296682954926,-0.015990189672348637,-0.07534890150090126,0.068657721520163,0.09525559475394792,0.012629446932341495,0.0070494129370142836,-0.022606245612834943,0.03963909266733755,0.014937747246114455,0.002126580362509097,-0.03640293102540308,-0.09101880103498859,0.011133570931245035,0.035944621783502835,0.06279020166593095,-0.00553159785348689,-0.030021932489564862,-0.011526611357978061,0.009475174827616197,0.07840620707400403,-0.06428543706565878,-0.005213777840188806,0.007108824189949389,0.023955421282676206,0.01693810619670208,-0.03730361098270324,-0.048308792520596056,0.03156711039424755,0.0141868225580743,-0.02640832230122838,-0.08758474537968224,0.03139518682989716,0.05486770316939484,-0.029550332695174722,-0.03750954422627719,0.013415390594295973,-0.09568847074698277,-0.046904445684655405,0.029158100313132044,0.04142324942725593
227.96214294433594,1.160308837890625,0.021034776226653434,-0.007437663931209766,0.10953147773900769,0.02517448547162485,0.07322566263931511,-0.06459684648147215,0.12989178598992215,0.019090358567868455,-0.05679812426530216,-0.07416277965065063,0.15734225745944805,0.016981566166167826,-0.02584206272690967,0.010685766046150645,-0.014729008789217202,-0.023976541903099988,0.0013367148248790844,0.0524738517260468,-0.08377057355835077,-0.016805588692766365,0.03559865434745608,0.3891560298584989,0.07991752488549476,0.09431113370110791,0.1500589290453499,-0.026054493225866247,-0.29377426879575386,0.020154629644996508,0.024018254884486355,0.16257063546011585,-0.13635831843549145,-0.25504952091563415,0.21430515440813944,-0.12263718929765458,-0.024250664861357473,-0.06247134697908341,-0.21758994085437036,-0.04560384113125392,-0.19545342522169767,-0.2486002782871271,-0.47084967175023995,-0.040003465736822175,-0.04972893193937126,-0.10652527088665822,0.35346092746675895,-0.02819321661515648,-0.018991625536117697,0.09786277770609149,0.32890817018822627,-0.09108037265350662,0.061221711712320825,0.033372671272384205,-0.01892253784997687,0.030671943873446635,0.058679550955289234,-0.07043114902760239,0.013639811130435876,-0.09605905932608519,-0.008920709364081424,0.10516842744720349,0.01734883049544811,-0.03495225920021659,0.004709673136496291,-0.1083649242128655,-0.042643666254381686,-0.009539940071294967,0.018823326582422573,0.02101457063844216,0.10065394216077993,-0.06899047812980746,-0.04841543868774943,0.0928999552914529,-0.03052823699862297,-0.04580865585165792,0.04610062477643165,0.05728507751625324,0.06969991404680095,-0.016525339621474323,0.0060332220800186406,0.0795699604829577,0.030787402231958125,-0.02264286933302176,-0.016435657015985018,0.021649517049622195,0.015395782732498219,0.007515389893670866,0.00951203023014554,0.0021053448125818576,0.02514889818430508,-0.019247527063520807,0.06843162337088762,-0.004654616797504063,0.024610510128779343,0.13031220491013992,0.07056125020194,-0.09850993867220201,-0.06576376373855161,-0.031002371165235704,-0.0966969875955147,-0.0028296064199227807
229.12245178222656,1.279205322265625,0.11812442547314139,-0.03476178899794921,0.039208292059920255,0.046060404875722785,0.16601507780653937,-0.0349681340251475,0.12394396190414352,-0.01910131686837689,-0.033560048951143694,-0.0023153143434564358,0.022143235162610603,0.0242542737255798,-0.010795293278576397,0.023042307510721005,0.048758414976538864,-0.026482205205739864,-0.033434895431962854,0.09425858555352506,0.029479462606748514,-0.022566567746610516,0.019679142546544588,0.053569314990257855,0.0645477581541349,0.07236579989945716,-0.09668623056835245,-0.03757082610199988,0.14844073978265845,0.049266425580960206,-0.29303945360214656,-0.025571706378855353,0.07411304009159772,0.1526788446452856,-0.05882036082613837,0.08772418673074554,0.284703889713684,0.0764810319548224,0.07892362505820669,-0.01990789840025275,-0.33302741752467463,-0.17510216462458122,0.1057256647772472,-0.5144732362290986,-0.0011071151879535907,0.18502817224399293,0.2711252340644872,-0.5457181692036898,0.26327052321584155,-0.21852752163569888,-0.12127354129721618,0.03822056684032896,0.07323130025752922,-0.1594659107732182,-0.07013740307256691,0.07361155770076801,0.010765190599850528,0.0249751525368977,-0.07222989510737168,-8.270725534098079e-05,0.010315965310779805,-0.007661663408346548,-0.10064040920603196,-0.023768016894535532,-0.11934622203229345,0.05491713305998831,0.05810885229097077,0.028908786382886242,-0.015903734328443067,-0.01697295388347276,-0.06766538225899314,0.035378423651976576,0.09376652689693353,-0.029225365217091223,-0.09303832368735386,0.03136028444155283,-0.007688530623207408,0.03506990035350403,-0.03380455801036276,0.033619025533182245,0.006717118394552571,-0.16471401396379404,0.01937404356811889,-0.009083208260525713,0.003815401818552817,0.03488078755333491,-0.0001249561382730285,-0.09674761865468784,0.1323066848170553,-0.0014379611040884074,-0.006782019741839016,0.0017508274944927436,0.006761503529138596,-0.02014911620228102,0.04683498542179117,0.04699033680350797,0.09514363232651872,0.04724696581058649,-0.022109342696865524,-0.019544871867525564,0.023074183125308928,-0.040661020036233536
233.7215576171875,1.1097869873046875,0.07518752453677385,0.0595265528620658,0.10113996463082267,0.020310776150602092,0.1352413681841212,0.13025590266347797,0.08896466171149896,0.021955292350287394,-0.03618040903720931,0.012433769874957538,0.07386762505773016,0.006059733790725399,0.1299206091391754,0.06279809985315786,0.18397460534193488,-0.05962918152982142,-0.010095731598185578,-0.026552969693157492,-0.007767823147112423,0.13645542119805998,-0.04593765142254858,0.02715312683392991,0.10357935676244043,0.13901283713585003,-0.07826816505014825,-0.3835684125165134,-0.09878510853669063,0.08464315332877853,0.15443636452855908,0.07941582133183962,0.18358216476394926,-0.033226733961766924,-0.11996203496871759,0.16758489872136303,0.24037795684995455,-0.2707031486228469,0.08991264506571708,0.3635628077979557,0.09194030214732174,0.04633207352112425,-0.39781721012123095,-0.02279846496729905,-0.5615464575699627,0.05737296970324628,-0.16294168869600756,-0.0019303191648555873,0.3046491499903832,0.19691885417663252,0.049958499418597604,-0.0058920792116083,0.15643313926184718,-0.056686174098265533,0.018328502320597528,-0.14095775612230657,0.0019241321742073801,-0.03361348705549405,0.0622169875593306,0.043384469548298714,-0.015247298480483984,0.02365693371590523,-0.00937397458353148,0.06432489489580102,0.019743728360662773,0.06068335082451721,-0.052184471709009424,-0.011873852122421329,-0.015180069128092888,-0.02519539561254798,0.007509304567072044,0.06839030519424,0.067180719805551,0.026412172423595354,-0.042584882297684354,0.016314733765740295,-0.0010157727014059254,-0.07249399791195262,0.05756122996287599,0.031832652697994235,0.01181773805996715,-0.043982754640294025,-0.009567562965582116,-0.06144131721042463,0.03653223225904182,0.016835316080264284,0.017320886103608924,0.0024341120880286057,-0.005227266560852926,-0.032786447211289566,-0.009748753919909823,0.007911841190805596,0.03490800082437998,-0.012549879583559338,-0.04503001973051672,-0.11387054593257274,-0.061413053348100544,-0.022847374194482874,-0.010474670076563854,0.10554814362146901,0.02841884464884147,0.016236364104508134
234.8313446044922,1.129608154296875,-0.00734180043791571,0.054146330397507034,-0.07141665418043434,0.0906295558496611,0.09747413965839741,-0.2904296483869856,-0.08409033440295785,0.04700239055620788,0.07305886071571294,-0.014338637934182785,0.03733948742541681,0.010763695900638214,-0.021330449292940905,-0.053210679739455466,-0.02479620295577189,0.056871627640857014,0.06558738258561622,-0.037990625400212426,0.06882625494188624,0.24120138610663097,0.24863776300631407,-0.09882818497637197,-0.0567254831148796,0.1598910865278486,0.00044371663905190106,-0.4884360538126949,-0.24411560685746708,-0.04842030376625553,-0.08325064923741142,0.046100479690744316,-0.11117691341075531,0.005028133934498194,-0.23132886716231107,-0.10932210193714861,0.08784077602950732,0.0405826920049952,-0.18672426986242774,0.13987306142243305,-0.30636046825453644,-0.10373010772445787,-0.14001667829723913,0.512379767916397,0.23622902666183618,-0.07117145165594642,-0.0702988948135807,0.05502451505959631,-0.04032859318838761,0.1247031634923157,-0.028757014803066937,-0.005158391261286965,0.18945037795742778,0.023691110740069077,0.010579953466873303,-0.052678863995181895,-0.08371948521751058,0.04144938129128122,0.009644437127061114,-0.03068219590637009,0.047612024385555105,0.021999149661463147,-0.04271328616158991,-0.08811242906499518,0.016977310848807346,0.04918103435444443,-0.04343801717414568,-0.049353024266560505,-0.01971859893848878,0.027493692035958115,0.00683225228390348,-0.08775575198962937,-0.10652144291111726,-0.032816870938680714,0.06252693188863362,0.064734366001194,-0.014639702162082189,0.00570579168810393,-0.043580448187135794,-0.008632401530652327,-0.058571618429371704,-0.06317634323809146,0.09792051502317757,0.0073399706501505796,0.03277908588739642,-0.03993773097564266,0.003413810580355276,-0.006421523925482475,-0.044584362919675456,0.04139224109969277,-0.015567537235328126,0.0720990782316767,0.08542076123140316,0.05412734585609078,-0.02380410586667425,-0.04082483385811343,-0.04933608304224094,-0.043311909920205414,0.024679684120197047,-0.029231905417542902,0.016701796855736493,0.0929454960393016
235.96095275878906,2.289703369140625,0.06465043833735117,0.10096956627486943,-0.05017422015865138,-0.02649097920642654,0.13485983510533547,0.15332554802902332,0.10268052338943029,-0.10341728370391384,-0.028684827716207024,0.05413952840303904,0.25107026829639734,0.1908485786952007,-0.10928782709119585,-0.0672694725374535,0.06692018674474692,-0.03320804460221814,0.052140414932307685,-0.04701488964130372,0.08913638803250007,0.07992153824348497,-0.039308231359145115,0.05035811222811224,-0.027716006788187395,-0.10077947747453259,0.020682732000986397,-0.20385264775574746,0.009635803023234286,-0.018370541799064128,0.03368726608823701,0.08523581509870781,-0.021561252135123107,-0.008440259942957317,0.09466438667934252,0.04095968559850213,0.2679899840862732,0.21136130179680412,-0.37498485971521817,-0.2829367177387603,0.001654352566843556,0.0518376476568697,0.10126975365037952,0.0039786869529861366,0.031286784570523835,0.17106842188140867,0.03511468351696953,0.11184689032969099,0.2026170527329735,0.17021757417211383,-0.6761164476958219,0.08454774782828758,0.11466788033678899,-0.01905486955039203,-0.0077959816993359,0.004471309009694634,0.00999963365465758,0.0533433173656267,0.12942489603446006,-0.010757826462926974,0.06024643294235452,-0.045323379253271505,0.021819655941178427,0.013863463765338131,0.05228562131904865,0.011824416463605325,-0.10298975559052898,-0.10316527052292503,-0.06430097456290965,0.07894124690425819,-0.047675757541939,0.022705116864188954,-0.008353672542956053,0.0023577002181301597,0.01757227101774568,0.012394072125295719,0.011081531239887695,0.0022275488833720797,-0.034257754684609745,-0.10007773926803759,-0.06367608167914597,0.0637533137408944,0.07435436613481533,0.09786264712026176,-0.05794835317645623,-0.033452841074546734,-0.014922008787669009,-0.0027112983624057517,0.10910458967185224,-0.08058522146357967,0.012923987869140617,0.060112052596518924,-0.07610600543557536,0.06939026661598383,-0.08401316595056772,0.05489499604602987,0.03121972615437845,0.10675069310245185,-0.03900649030498298,-0.08496100543755257,-0.06318199776131576,-0.07519352770596295
240.38055419921875,1.0797882080078125,0.03766415212671209,-0.04089538065038206,0.008611485060169295,-0.008967505360708602,-0.009183918712608173,-0.04433838013236714,-0.13060841858189012,0.013927744832696598,-0.02701527431234236,-0.22862731162130867,0.0017102445223797385,0.011563295937335044,0.012574285668074711,0.021248424126232755,-0.032841307888106935,0.03190494797235726,-0.021951100364144292,0.005527191171597742,-0.11506051344964031,0.13797045060127558,-0.09452933670824748,0.17363295976605775,-0.05174786788914266,0.054004644315094746,0.060977877577816204,-0.022681391684404955,0.10618401090817668,0.3753719191228459,0.09798420396427415,0.009601420480057313,0.3292141999550732,0.08189777707619927,-0.17733005271548355,-0.15328126663967764,-0.0009908428665254126,-0.11384197091236989,-0.2521740817998645,0.21109551990200964,0.3400488929926264,0.18472028761023201,-0.13059929554683897,-0.049698923262042456,0.06726180820783728,-0.1267403830493225,-0.2665559192733784,0.4676359751580657,-0.1765782920114442,-0.29713882654930573,0.16430525892535122,-0.0029752644553964493,-0.0400714195958109,-0.09279555194680511,0.2855254843718418,0.010567779388472136,-0.03926885620737982,0.06565519420370608,0.05284184882752531,0.08390799463323291,0.08366140951856958,0.019222011398170355,0.009370410431537076,0.0513199864917594,-0.008924327249543397,-0.11538423553756923,-0.08750080820553949,-0.07357177200058762,-0.02679163695887313,0.03921347978902612,-0.008533398751451819,-0.0068331513871341025,-0.019108307043384135,-0.08017036587631379,-0.001335829450405255,0.045034252912258356,0.0016073558861048726,-0.016336610631932584,0.03730351091323158,0.02070218541315143,-0.0002337556998212774,0.0020798765671370123,0.016715866743787663,-0.012479313436037755,-0.0382040261553196,0.011518583129120059,-0.010772721899458984,0.08790719879004508,0.007277502934224666,-0.03104403795573793,-0.04658867854589972,-0.02226340090821229,-0.12424840181796915,-0.0016077372190929037,-0.0188266190265434,-0.07770038090010467,0.0883546999381026,0.0468889067544055,0.05823882155593994,0.011975852162090413,0.03186012131342286,-0.021712053442264234
241.46034240722656,1.079803466796875,-0.04470008346568918,-0.0731651789878109,0.019187057211810618,-0.054064088050466856,0.012600062854692654,0.07204528319393512,-0.04959215920334653,0.002786442270300213,0.15367636801471252,-0.03988826103680409,-0.1857857731856955,0.027892825365387522,0.19910873107372634,0.047530807146603515,-0.09004053217832717,0.023405659557905897,0.0870649711289045,0.07662696660512328,-0.1718322823574814,0.011944709690904914,0.12623187453121554,-0.2223321678229897,-0.07315889134119602,0.18142515732860473,-0.03487058009958418,0.005123455108367564,-0.04230446796054397,0.1690506488574505,0.16746144313727604,-0.04022364298393345,-0.14523525026942155,0.02105923712914931,-0.04978437161873278,0.17395656379155364,0.022073364821083796,-0.22221785438549524,-0.14857176450375809,0.11851805253336463,0.056377600848091354,0.21249889773363778,0.4799286189566218,0.08244645896453315,0.15145643460519248,-0.15806123905524191,-0.11317744302750705,-0.09810569182220236,-0.040399052638748184,-0.08670525954295867,0.40075177721234123,0.010089030152076506,-0.0777685589445267,0.009906423713371484,0.0053092062018908984,-0.07336653322523612,0.06091724442381484,-0.05413367333783366,-0.05434576895035835,-0.04869050862971517,-0.023391705149327903,0.06610786510647089,0.07521852296850536,0.0766064433448392,-0.055526103963001526,0.002937914031515968,-0.048726801810754755,-1.7571094067203108e-05,0.058297400099810215,-0.04806514880814294,-0.13770123919273922,0.0512838782576273,0.043353688709429655,0.011832762871389962,-0.015093568014420125,-0.016710474760181348,-0.007260369584305678,-0.09374708666785024,-0.028232751906211502,-0.07567423744163834,0.0766095613580938,0.03621640046879631,-0.05642847545382343,0.10470768834298545,0.026647543169002832,-0.02018573369735668,0.00919287646431594,0.0065235483813610995,-0.007791156259390473,0.047700874703314335,0.0916837671948788,0.030139941242509453,-0.04287933938942927,0.10661430150900465,0.04113422571886757,0.00912341314423816,-0.047308513906105215,0.14860899431369848,-0.026954714787245315,-0.02162609113831071,-0.009983607759168511,0.015010002911417901
242.54014587402344,1.14990234375,-0.020813418463350726,-0.02826912191151172,-0.011321433327907124,-0.02011066309862081,-0.031944015385205415,-0.04517843487348803,-0.058586244014066834,-0.17797547221402144,0.04805646007465999,-0.06156564448525584,0.09373621689076884,0.12661614222685427,0.04465578885588413,0.0066712740798086844,0.009630544544788292,-0.0018902727068713081,0.043320623132572456,-0.06095874262820986,-0.02117428318117307,0.1821195187417334,-0.16029949088129272,-0.009310763308284089,-0.26352041680936233,-0.07893087590060477,0.0035580894674361666,0.024544556461701842,0.031947718005270534,-0.036620830420233494,-0.04591607218736681,-0.02164228017601598,0.05528239104430598,0.0930298122101486,0.15040037066037984,-0.1577361649567913,-0.08480203322841287,-0.07186475542875878,0.08763902217509444,0.03132190608815967,0.19573178888410894,-0.04799763844164184,0.08864389429446191,-0.2919463668773068,-0.4138987512526183,-0.01546701804422137,-0.6509975262729514,-0.34847536244845057,-0.045329978827879466,-0.08693151733529,0.20930089577212704,0.020520302598440537,0.023919082141013022,-0.09646396839432048,0.2122220921419134,-0.016157830811526563,-0.058624747017664014,0.013962721788195305,0.07902862214840306,-0.06535475838001727,-0.014284938623841482,-0.011219102954339161,-0.03945048939554849,0.025478855277394886,0.027900222255031987,-0.04852239305925005,-0.010204110793767944,-0.08469075733661069,-0.10085623724481271,0.01849075964524687,0.05391228184171221,-0.04628320613285203,-0.00879514788514546,-0.04829824853187485,-0.001174013434307016,0.04012657660718666,-0.04208459139888339,-0.0006842700246379113,-0.025581520187387116,-0.0909384219215293,0.11187606258924108,0.0067308323845590295,-0.005052121152515562,0.030823273909382935,0.017573235990950356,-0.03294031080081238,0.027345343234494335,0.0023064067396082093,-0.03624550209876989,-0.08352954043923927,0.0015834892387390357,0.07331958590012881,0.0757889698156917,-0.038626252573106354,0.032190509648527016,0.0035901981440193825,-0.06380375364344865,-0.15158430838294626,-0.027436034124187256,0.0449453112580778,-0.051339856347961024,0.11148158789223388
243.69004821777344,1.2993011474609375,0.07946906048044594,-0.017066004726456602,-0.023270729202402,-0.07997231004243567,-0.00410922038326543,0.08882413917363234,0.07145638811610001,-0.044852441902934546,0.04120747093228788,-0.06523694174399484,-0.029608929168127383,-0.18198690330161488,-0.10245543734901875,0.020735254376563227,-0.08726444270498764,-0.01750389891301327,-0.005504936128737257,-0.05468198890654669,-0.006727659838510579,0.054711277555792984,-0.22100656348015468,-0.14753543895462845,-0.04894480411103842,0.08363627794623034,0.17778171187948857,0.03906006811288931,-0.06024068021068514,-0.32242807778462074,-0.1810657935827432,0.39405774237840985,-0.20987710095334147,-0.027100079575798665,0.007102346362343248,-0.06892369533141789,0.03290640991064303,-0.012516014156572016,-0.12151721674933084,-0.041407907251773984,0.16111179991845784,-0.09297971567037851,0.07517154574652651,-0.0710530194724642,-0.050173804178980666,-0.1817049764314437,0.42041577778508926,0.14975661362317555,0.0009890256245952446,-0.019497839460182607,0.0715023590668236,-0.08124406071323623,-0.06462739639204067,0.0274327434351829,0.14456329795897843,0.025067860080310193,-0.013099597887142034,0.05234882184568752,0.008632638063437673,0.12078914079001839,-0.00262018157388287,-0.050195970142516276,0.0048963271402310445,0.09785495318871897,0.003811332102546316,0.0014153840657913103,0.006827141834394555,-0.021857179404816966,-0.03820130431009082,0.10558894000785182,0.009720929000556417,-0.020247033684480928,-0.0661127868169567,0.056755959573892005,-0.04026661021745135,0.039449030014498086,0.13388510070746829,0.09562326192729542,0.08789882279290573,-0.008744139782526437,-0.015559112089750606,-0.04000205948685138,0.06047662537597638,-0.06863071737683307,-0.02712532556219202,-0.004005741510946437,-0.00787067188229901,0.05163251508164226,0.09190415104616821,-0.06000173290770855,0.01894984284497085,0.12656579355738404,0.01147387912987538,-0.08273830180464407,-0.0013714045580774104,0.01099030510331938,-0.05646315428385211,-0.12505527002707442,0.00401947846490665,-0.13844469567768075,-0.003822783399064583,-0.011954286831735205
244.98934936523438,1.1703033447265625,-0.02322477790390832,-0.044033565149118915,-0.03921307983098204,-0.06320644920142095,-0.048036357337656724,-0.02744028347665467,0.06496114919346138,-0.02338664847549395,-0.008060448291085563,0.10759532381140603,-0.0017990598028512486,0.04111555622525062,-0.03066382402889469,0.0010047925340098956,0.013298652856761373,0.04777269067493708,0.06108266749062656,0.05377491099643431,0.00651955110911777,0.04554135611610423,0.055119658841841786,-0.05213497723652302,-0.035041586336921574,0.03378816016365545,-0.01203601610006972,-0.07830208542480031,-0.018442716553853242,0.11947402909675528,0.1447189883138678,-0.04220976215907699,-0.11856485721147744,-0.060861882855927196,0.0042934936497559945,-0.03442866578756777,-0.12147767033635573,0.08775685591547125,-0.10648031671819765,-0.04029834903646433,-0.014065466360419412,-0.058703646247014185,-0.13820773996755326,0.01537405079113699,-0.03675022255888015,-0.16374744150597956,-0.17701628866521277,-0.1607895348942216,-0.04275947831201218,0.0809644033144877,0.05448831785363668,0.0059729952780665455,0.019855274768367914,-0.043383027092355066,0.007078422370154422,0.0032818986164892677,0.012761437703971947,-0.060056433780807904,-0.08928209944075348,-0.008455293382534403,0.00501510921928873,-0.016441806130985843,0.009191784668323214,-0.02976352995827907,-0.010407379393984244,0.0006176705698584647,0.03489130546462696,-0.031032686046137792,0.017689517762035985,-0.013977217592713694,0.011633642157430147,0.01459623470535037,-0.07478106264137742,-0.07686763885146433,-0.06287620173367384,-0.03096686486688381,-0.09563467545745774,-0.0579159078669997,-0.02171571432958272,0.00400286842196959,-0.021103285236323183,0.11976775965597336,-0.025255707926827152,0.003280766660784627,-0.0002655947184633461,0.011053596841033039,0.04082729748417341,0.07282776775616233,0.0015577377396605798,-0.04999084474323539,0.022794464123373947,-0.025336408140325395,-0.008630085612566925,-0.03985752085426687,-0.00033871471276045173,-0.058248742942440514,-0.014073717754845288,0.043047175614621326,0.002410308261140745,-0.07203949038440309,-0.028866759643717092,-0.03755717902027484
246.15965270996094,1.07989501953125,-0.039712771876712974,-0.15425270334968036,0.04377778034061494,0.061076125096493815,-0.07437669261038107,-0.015133752578141679,0.02622348028713918,0.11469735000288987,-0.02968282672596048,0.0724951841137281,-0.08957761483953555,-0.03772150609615674,0.02762136595695879,-0.1581783269799798,-0.05958098142395411,0.05108606695643936,-0.05528486587992144,0.05748923623554443,-0.03728432584403116,-0.012824579575689827,0.03952040985730306,0.09972811834133294,-0.016726812892721092,0.06706207472421008,-0.05394747092805831,-0.08926582510860798,-0.06801353099557143,0.27366104764692856,-0.026190448187553415,-0.1943192385094491,0.004376627817238007,-0.0960221305292935,-0.19774743012555346,0.29046949209608103,-0.01179014680425966,-0.11526851850837438,0.1700098214986028,-0.05344144488862655,0.24989076305122587,-0.025690164521936246,-0.009548765253290209,-0.01062393738502839,-0.14326692115515577,-0.43715630078203704,0.28438151448296345,0.5004206160081349,1.1291788941872056,0.4166263608599545,-0.17110830554354228,-0.18423874045446137,0.4533848062433008,0.16390575697644558,-0.1789068214444613,0.23501870748059195,-0.055809734503939216,0.049207555154701585,-0.02869893002384606,0.001678043994451782,0.004055707395902005,-0.0283405578341717,-0.04097360713309879,0.045402078555229035,-0.07622513341492852,-0.003145758299577981,0.0394484926425961,-0.06007673468899853,-0.07502504735561145,-0.02845799508661378,0.012003853829996115,0.09675832594340868,-0.0854042192845357,0.040316554024432204,-0.11597358948632684,-0.023105903192838048,0.03824648611751818,0.07969534076481279,-0.059544880231251616,0.08210200850495482,-0.05362119978857121,0.0574882451570356,0.004828602834197357,-0.021364067092651505,0.0010272533190762657,-0.08998433370741193,-0.11317135625488822,0.07942511740806833,-0.023614009292697198,0.01686215966271316,0.020704060353249353,-0.10933718234857458,0.18969542746821866,0.04261375863802943,0.13342051817228795,2.1850042901012078e-05,-0.017357371099034048,0.001148113635390907,0.019877760099882416,-0.026166791132676236,-0.07076879333692122,0.005274736340056527
247.2395477294922,1.099700927734375,-0.012879182949210227,-0.0898260781838518,-0.03743163377193259,0.10575377140838263,-0.012173544155574879,0.0739423388359971,-0.026306739046173252,0.07931968240144979,0.256038152577023,0.07186438580125527,0.03503434891679852,-0.013954703207662789,0.015049846982412613,0.07542315092122182,0.14871364644195376,0.0587092675247698,-0.016595560651586225,0.12750755940274688,0.015281946357545251,0.028562899211883926,-0.010493034781549922,-0.17876482267985477,0.052312343861692284,0.021795765723235813,-0.03667407719634041,0.025849039702063238,0.12303389727312691,-0.048788648392004814,-0.09681509207850705,-0.3007900405367969,-0.17000854046508818,-0.13425063695327427,-0.07861569380247929,-0.10406669228702321,0.17247875632716658,0.49595760141395917,0.0996427122032314,-0.6447956721639212,0.22610576356741416,-0.27895873365198454,-0.2875464956030637,0.4433955370851973,0.1302485510916751,0.054464175767034044,0.17769321952888986,-0.17569528651595595,0.16832998359123333,-0.058317156632616315,0.20187437045955078,0.07237344660701443,-0.010641242057015703,-0.009871050684647466,-0.0669000749014617,0.05830060279927687,0.029601792816879375,0.011772778605689519,-0.06152278597906317,0.03708890850428387,0.005943593281838128,-0.01289594708666779,-0.05172748196230649,-0.05563031101488831,0.012957373831705768,-0.012513870243755845,0.0058073213828581695,-0.0582274409717098,-0.029798897302927327,-0.002012400723012883,-0.0247271448446622,0.08861877542503019,0.06615366933053159,0.004819201015438741,-0.04699506812898908,-0.02053090841618651,-0.02229582471337861,0.048685862566574506,-0.026188360057207476,-0.09301549527363259,0.0397541349811147,0.03564031982449875,0.06862943380926684,-0.030882525519544114,0.0018504488233385143,-0.003944188132814784,-0.02502887183988773,-0.014615926324696615,0.01843082731071238,0.00036152414902424585,0.0008532767868826752,0.0665424936015456,0.025074232713180322,0.03332334767944044,0.03148955132965497,-0.02774526236178547,-0.025044857433776,-0.09168008083504213,0.0045433962595644115,0.07587352428929023,-0.10277881474505365,0.03329186729331624
248.33924865722656,1.07940673828125,0.010256917513021033,0.05242562943248939,0.00433983917789639,0.06890273793528524,0.05320371208811647,0.07834420284881646,0.0002532019969927659,-0.26794912937008836,-0.07423335335439292,-0.21033159392242118,0.04392704904256109,-0.0015351583029893784,-0.04000935506434367,-0.016609181074804306,-0.06683146539214829,0.050633705877427056,-0.05012096637791753,-0.13591120220789107,0.024548657822463113,0.045242746323289604,0.07387605664376781,-0.10470086020347429,0.19188146986637736,0.3118322975066516,0.02386271785918144,0.033528354065804955,-0.05043779840455189,0.06000342499316894,0.021427639140024504,0.09108134920037504,-0.006860613926889183,0.06703877428459314,0.16205626416553648,-0.03463747584911857,-0.07645654954084465,-0.08511323945249327,0.15060328603355166,0.0005755439321814548,0.08717682807757056,0.3459451469905542,-0.15631444262841793,-0.04790418844724324,0.025177102394650458,-0.1791443900159606,-0.016170036171660143,-0.37589569693898023,-0.3232789459646551,-0.5978890857699611,0.13073978851475992,0.0994867825050906,-0.11435721635889748,-0.1440867108824947,-0.044484378012268753,0.0014213800771922802,-0.002919940665185361,0.031169101136568914,-0.006273776990071154,0.02214944796693266,-0.01201528178650068,-0.0870629908974377,0.0015888104435299506,-0.013595017033580195,-0.009265919556785226,-0.000302751689992265,0.13983629563721978,-0.10300619253419858,-0.09612909615579225,0.013638111097981914,-0.04196426626097232,0.037098637424012565,-0.07987579306823953,0.08162780433951466,0.042608220004679974,0.008276756450767213,0.06086412905159929,0.07470502457180059,-0.049767685517212175,0.08936996439838814,-0.06518740862471765,-0.028062580092905957,-0.014992012397080054,0.005238238906887004,0.07203109287236062,-0.02182279454449702,-0.0042734849949392,0.0002205159749790439,-0.026057011013009196,0.0431353778976537,-0.0797262962875235,0.00040551344221272914,-0.048724774369069586,-0.021080510978233213,0.025113105083026752,0.0027053353914397284,-0.03888345025615895,0.011370659932735441,-0.07042296467512343,-0.1391245600642938,0.11654629100600232,0.03732962642813404
249.4186553955078,1.1201934814453125,0.012190642678500015,-0.02658919759224796,0.0112005081303375,-0.07247268103430941,-0.014216636542084006,0.36889150869940585,0.010686484831222962,-0.1014961599116842,0.08875852543885851,-0.0914006581921181,0.10139873888210252,-0.06260373442558462,0.0930432356281467,-0.032479943291484695,-0.023896073122624026,-0.024016570029383177,-0.026122704393337443,0.0263894838195632,-0.18177186894280822,-0.3983192667253403,0.06465263305167024,0.10635941399718751,-0.11912248137458986,0.013517746175276069,0.07784945484445169,-0.044999958533394446,0.06162387211468386,-0.14352967116725587,0.1885416628476468,0.04012936757245393,-0.15071316710583021,0.21100339067120413,-0.0006032562398085562,0.21077087758272744,0.012839195383229765,-0.32685720636683874,0.05325940075799133,-0.05559715975288182,-0.1613347134476738,-0.1615414430795412,-0.5495037994476499,-0.23342104862321789,0.2491938353810567,-0.25742908395670355,-0.668599141829422,0.39664730327666514,0.11759360939589547,0.21057328780509005,0.28017958426197515,-0.2646078148337896,-0.1134532161863319,-0.513724941025163,-0.144934653548415,0.17197218189197033,0.07904942023304531,0.07309413942051832,-0.021760765145218353,-0.030332482033522595,0.0012335386064525472,-0.004082159951431857,0.04225800151914519,-0.01967878118153562,-0.006018490019870926,-0.032638668076983075,0.05273364172218628,-0.013037121977941532,0.029144517382672958,0.0975997658191613,0.06953771987457177,-0.028086874768717775,-0.05729116195763356,0.05413155541631153,-0.09300372391922564,-0.03554345781491844,0.025559523859180318,0.02682805551783933,-0.023668446324451684,-0.02077540017688994,0.05534596274753372,-0.12313127565942943,-0.026897919458865605,-0.0022901200121401436,-0.0037754975887152606,0.0010905997328658984,-0.012464934661084892,-0.04722383677147445,0.03752750684334223,-0.09436567165702624,-0.0024980717856255734,0.012460642872734545,0.05735807317722195,0.08992593766109519,-0.01245601877164064,0.019670254237483285,-0.023971173423145864,0.029657910934730233,0.09094707242459812,0.03406476870573393,-0.09725174661659766,-0.11869678000292475
