start,duration,0,1,2,3,4,5,6,7,8,9,10,11,12,13,14,15,16,17,18,19,20,21,22,23,24,25,26,27,28,29,30,31,32,33,34,35,36,37,38,39,40,41,42,43,44,45,46,47,48,49,50,51,52,53,54,55,56,57,58,59,60,61,62,63,64,65,66,67,68,69,70,71,72,73,74,75,76,77,78,79,80,81,82,83,84,85,86,87,88,89,90,91,92,93,94,95,96,97,98,99
140.77630615234375,1.5883941650390625,0.08169730571452431,-0.019777539980800007,-0.03244259410047664,-0.04623540749368406,-0.04038936275796506,-0.0034838130718015947,-0.024673682714144874,0.005333469931719708,-0.018790897131911927,-0.030479449361758816,-0.06417227390666962,-0.13544334610055908,0.038924991529794284,-0.20601274668850433,-0.06623881331816589,0.13538198268447996,-0.28962666970133427,0.19982841607821403,0.11296654925834133,0.2735959633234063,0.4483549672763743,0.22226792590592054,0.16932885285242874,-0.8656207456075127,-0.37069448509275366,-0.1315327106004081,-0.3170557955548134,-0.18216691753004227,-0.11563601350946344,-0.007468697046700251,-0.33255575582639363,0.06017921306016251,-0.03129716417041247,-0.2961657828114129,0.11379319098652474,0.25745053092693254,0.29176570034998095,-0.021994772243750595,-0.0341256385252106,0.16153804466476646,-0.36450343162335347,-0.28298462716723094,-0.27458918504950725,0.43662728391924954,-0.05787266539947146,0.05240488381282325,0.017499105996706538,0.5848589479424255,-0.026193393518556863,-0.057158962879765345,-0.3227568338904604,-0.2085069480557529,-0.08398866035541835,-0.07811144171476818,-0.11027460318116981,0.016930882836430197,-0.04804057864147774,0.2022024758193156,0.37575546646084457,0.07263013288752984,0.003858670517582372,-0.07769172470401871,-0.0025491091389611593,-0.015625733160944677,-0.0022903778400436845,0.006593856782925442,-0.010423270823351358,0.018256956634485857,0.0018544200309548932,-0.0899975761305901,0.002781288248621551,0.023027931933286592,0.055634063307754236,0.002755818840666959,0.06716704578539577,0.015736110427011913,0.0703277368727567,-0.047900369717590284,0.014931147392764696,0.004195657887272821,0.020091265758552246,-0.007501597693934973,-0.004694066378754253,0.050354879804543895,-0.03630297500441745,0.0005531100838365724,0.03426258825075284,0.0007627317465049611,-0.00388543727734673,0.007489243419112598,-0.0009239202595225157,0.0030073318327615067,-0.007030463848413141,-0.07889287521046948,-0.0009598188200738494,-0.032438554211813894,-0.02764625908169007,-0.014942775863044894,-0.0066057227882561995,0.00948081411825771
142.3647003173828,1.58819580078125,0.011020677196581553,0.034210402329218896,0.03975125509212062,0.06890531435775697,0.063815769462642,0.043282310469663535,-0.11413707625168594,0.03214729128424243,-0.020141959303226764,-0.013255628613604915,0.03133552934987535,0.03875016950201628,0.07383649684113702,-0.08880806267005469,-0.05430648593657963,0.018449250421400203,-0.0312814719664269,0.0018000384054307583,0.172481915139897,0.05178491132486274,0.00561103224468672,-0.010267497188606214,0.03330030906394299,-0.05238635107646484,0.05057351824519625,0.008092140407579412,-0.0561578430271781,-0.1141989961279893,-0.04787151460764927,0.0013019114592435627,0.07870624003040998,0.041969846399348115,0.4254598810840389,-0.15852061896959996,-0.004939445828460044,-0.08897940500469673,0.3765049039485403,-0.1003929366183639,0.16977682769455804,-0.18230434946620297,-0.1835006121243839,-0.05636823281581449,0.09392005813967129,0.23290979264557113,0.08879454817060663,-0.5193801258079602,-0.11423885074857318,0.3651449187224217,0.19291505545128285,-0.264438075065085,-0.5128000982062064,-0.3058553666621469,-0.1633574616420166,-0.2515383690573197,0.42252878145800077,0.037901147577763146,0.018717696087381056,0.03656559108657849,0.0103869079094972,0.06742481471065155,-0.0634053844913001,0.10967126703157323,-0.006110527904583736,-0.03568050342709499,0.0048955552769127525,-0.05066945257619283,0.06528334616989294,0.06201422558458811,-0.011911669611013987,-0.03644248724272003,-0.03964387383190074,-0.009192855939420392,0.03591424961922772,0.012246006594826744,0.00400071497933857,-0.0044907536073867296,0.0055137438480280234,0.0032888356374600677,-0.010959563724869826,-0.010484328721259867,-0.013856922971851496,-0.003382186513737339,0.016167476889496945,-0.017677041847467462,0.004567559222962666,0.006458122741241445,0.06775216432493503,0.028572962712000338,-0.004287929324233863,-0.002797267762973097,0.0012671270264730367,0.080805784201882,0.0016356447901436358,0.022185383349142315,0.039229908343594494,-0.04828900594384676,-0.003328622052270618,0.05725438938980583,-0.009588969987426973,-0.041566116261620226
143.95289611816406,1.548309326171875,-0.045115532837753304,0.040546167701215656,-0.005370570581483148,-0.018944459844765615,0.005748471396377509,0.012231393412135652,0.02791875630456349,0.07283347794275451,0.031801236341236175,0.10200159092337575,-0.09115518350897539,0.0559176857316786,0.16729827284261706,-0.1528088875925753,-0.02735915868567332,0.14286550794348382,0.10173444868609141,-0.04993306551666671,0.05344608589526771,-0.0021571819162993595,0.053531830096478106,0.05908485049102853,0.10182586681903885,0.05765116575424804,-0.022674937900795812,0.08233659201652371,0.006643422371442914,-0.15722842473605328,0.2281557737684411,0.1901961528264298,-0.06232071476444291,-0.019105779326090894,-0.2289755357012913,0.349954537161792,0.06030361126287753,-0.018408497464540416,0.1282813440175547,0.5102932786635165,-0.2452002452198127,0.08482906580638376,0.36490740806914834,0.7901620847546766,0.01230667367084376,0.10676557333659464,0.08422062586890365,-0.3672859162063423,0.016431198667127694,-0.070078676842172,-0.3896009794427367,-0.2227399281289935,-0.2335958253331662,-0.6194385587234166,-0.19758175009322362,0.15631051668151003,-0.2509063855222241,-0.06350036329135364,0.05038489380087298,0.10921956026906628,0.06277461406746992,0.07112961818335581,0.001650747350003214,-0.025598619953668994,0.0025150764333835424,-0.029391614886452297,-0.057420525186981236,-0.018953966453531663,-0.006176711164047813,-0.007301812258297912,0.024777517116522242,-0.0007642798357844133,0.0005889960981843986,-0.0408279507291701,-0.0011767957712263619,0.011607954917568396,-0.0011242920809635196,-0.0007894861306328368,-0.012362602277052869,0.008182915116384864,-0.08643100459255254,-0.06742631126554315,0.007653176980773731,0.0401232504517905,-0.01978226040709183,0.010700093860373168,0.011036173506094074,0.030103273022557803,0.08123638671294084,-0.02981078001043941,-0.0013037830336493387,-0.004654426999729443,0.059272712993449723,-0.005580567713357569,0.012754617816452353,-0.0811610364140069,0.038394897055455235,-0.04700908837783015,0.02909106150776644,0.0003335487371867313,0.1401293510094464,-0.025056823777086693
145.50120544433594,1.548095703125,-0.024144647364967256,-0.009752656868241031,-0.11579925875124408,-0.12116398597132562,-0.0009802994729443816,-0.01292096103045833,-0.09362792502102103,0.007141786539703332,-0.12474714475755219,-0.07864667882829189,-0.015576828418804936,-0.0656874065376416,0.14453296870596952,-0.06491495164535165,0.027018859689306063,-0.22795256596279784,0.02217094043966723,-0.09159739256640208,0.06030247450694286,-0.029381073446337554,-0.008223607722063694,0.060037508131486395,0.0005033872593638001,0.14471634090055502,-0.04082873497934561,-0.03943033488045035,-0.02068878856903869,0.06578400808077949,0.08198877623808398,0.21024455340156212,-0.09478029672954523,-0.15130026019367587,0.12683766468110386,-0.005616508400648123,0.030509895141932065,-0.07710875770867923,0.002558302213185898,0.058330351709074676,-0.13516827632094963,-0.04037373901993829,0.07737090339578419,-0.4456522743487853,0.07615246460863878,-0.19640676107732455,-0.025228157334490013,0.0004031785217001732,-0.08517171332922374,0.24929359484915936,0.1820272283723033,-0.08980802621868089,0.030231454479095574,0.25396557399554454,-0.05246766260310799,0.18835154293167378,0.4287316409636159,0.0691263724712504,-0.17917617897798685,0.09285409751953266,-0.01642655793198629,0.033317421915373645,0.030236412290228182,0.024473539700573525,-0.0670674275734431,0.03282592542662371,-0.017922077950355414,0.0417062242391109,0.0403397628286468,-0.03421701414788357,-0.0013063837510214518,-0.00618943156222708,0.05950606240207061,-0.00039517206272177857,0.005651443481120201,0.0016610041732741778,0.04895736306187864,-0.006569264473654248,0.03641106246942493,-0.000998197647319607,-0.00023300649006942077,0.01815798288571479,-0.07503990263184865,0.035021945736974425,-0.006881892522687177,0.015796369287702637,-0.060339519396784766,0.009337048262827155,-0.02269431478995823,-0.030764273842976374,-0.0027814323410967814,-0.00031276103569690566,-0.05325039403603291,-0.002070720032077644,-0.01854870175732842,0.0354442018329251,-0.014252937194197889,-0.0022970265759359957,0.005012122831910659,0.005322749872564939,-0.0035998815982568474,-0.002789346469597953
147.04930114746094,1.4678955078125,-0.0022559009401923887,-0.004416715373510544,0.00014791685999933558,0.05762239401417135,0.04093875274693462,0.06200366870241752,-0.010193673921243984,-0.0029622569236453706,0.0737193976817771,-0.06671128924735631,-0.022681469660598745,-0.027911877215337198,-0.03334342979079024,0.020547101924852665,0.16596976996488066,0.0699915890361912,0.017833837628511935,0.030452834817925725,-0.04842793881487345,-0.10950940832735843,-0.18458041511097725,0.012107340271268942,0.012654467117680035,-0.007843511593527256,-0.0319392467640842,-0.2693336077461097,0.3331806746871632,0.11072206114538781,0.38585462993539243,0.06428876966095262,-0.5329904819325545,-0.4789377384772309,-0.21908649458649201,-0.4239298139833363,-0.08192372112485102,0.25070155219948753,-0.33162539163526106,0.14514467804660508,-0.14415446720917807,-0.1835225675910125,-0.17596714136433605,-0.15404446977604844,-0.05493769696742863,-0.03393251644506441,-0.018493928144822036,0.3230984912528317,-0.10376127674744079,0.1123234256890433,-0.4043417477508415,-0.26388658746500565,-0.1799310123931972,0.13766847420947237,-0.5237080744471728,0.03327742962506146,0.07845143139374096,-0.03443444475045662,0.14934411509522919,0.4255023882587857,-0.010017871999254496,0.2766867885690736,-0.03551999691349386,-0.03768398267815287,-0.04484806445452887,0.1106535357115291,0.014270939548313134,0.027929982289244086,-0.031790196707859666,0.01571294012903183,0.02256419392663743,-0.013704616674130529,-0.03302374679321037,-0.02606866073956175,-0.01877634408911434,0.005170416972832895,0.0032978616577226264,0.08229448170841143,0.027093175059850927,0.045467276494175785,-0.05080115003403238,0.0027117912733336438,0.029778349616450973,0.029992753263867144,-0.06726290609989649,-0.07362183193917231,-0.01939546210957454,0.055818436884869066,-0.009886044377581428,-0.05461240867563885,-0.02061763274604795,-0.1333668579695021,0.06702912063037682,-0.008723882663652212,5.5390188995786885e-05,0.01792664566377098,0.09695633761012984,0.019764623502712582,0.06822158162709377,0.0032064100711604203,0.006205751316699079,0.03575737868617532
148.51719665527344,2.207611083984375,0.030971252912544607,-0.03777983428232365,0.038495392999967896,-0.04789223244342008,0.006753875633590313,-0.018319564476234566,0.013480805133898498,0.006497430262212179,0.011036056631599503,-0.002220458676583988,-0.023668140763530986,-0.07016401050287241,-0.00648798072038812,0.01925678025031695,-0.10249923335343002,0.017922298433085744,-0.04337704460007438,-0.12105599606507189,-0.15392658617851063,0.01395775310171558,0.21624739269605286,0.1557299274891424,0.3167094164629824,0.48150525663823585,0.47958730678079076,0.0430465997376558,0.01402789496385451,-0.004265142138605946,-0.20083356923060677,0.2889540208291833,0.5944839454074673,0.05120233953758946,0.0646928706456868,0.3357288175806479,-0.0485783000499197,0.09884231294131397,0.060261903141103114,0.0665101003884189,0.16580216283039934,-0.14431348706975675,-0.14487112388191165,-0.14584587507906982,0.23454044441870067,-0.15596616087864912,0.1526849821970374,0.09153025345714752,0.37266128905009077,0.4390085513800446,0.23920039353258876,0.12175900039055865,0.3813379509241946,-0.06265032868403421,-0.17306400113250778,0.005750940183348221,0.035118212458174904,-0.05836409689405674,-0.045306785967628764,-0.00780496443285926,-0.07397171170850965,0.07774919165146264,-0.01958141004154692,0.044737944941641676,-0.046380064983012746,-0.008656361695676684,-0.047052568985817264,-0.03296039200781447,0.012691221004186447,-0.005823241984957482,0.021879671878429714,-0.026404421303096455,-0.020692861020626077,-0.025912215911619484,-0.003007187523949687,-0.016351577999215897,-0.088868383006383,-0.012176866371989597,0.009661965413371658,-0.05550658644884247,-0.001463700725726134,0.03919114680818217,0.03559953586338642,0.02013912674401509,0.07270820877715974,0.004363147025767927,0.0020143513105811404,-0.003300833338687496,-0.003543013878597256,-0.10158492663026876,-0.031326499551294504,0.001938859837847905,-0.01866380564090607,-0.038157479718196906,-0.028994500761582456,-0.00017713334988748997,-0.0008464324524060478,0.005567552961447761,0.02805503321189166,0.10286844148027537,-0.0015324387685146147,-0.11249263066659425
155.36929321289062,1.62811279296875,-0.03275959502744336,0.005297376787285047,0.04928128933029124,0.15612874506020868,-0.05311270892845286,-0.017652893395663536,0.05347017998628541,0.006714254948879836,0.003457332405686404,-0.023077818029801543,-0.06590077305731581,-0.06725140985530975,-0.04281207540542158,-0.037125197106620565,0.015462681183387223,-0.03022719391441115,0.01672446626649915,-0.033247850582589,-0.06844954314870609,0.044204223256855225,-0.000184049727339047,-0.05439027008516714,0.003159432972981154,0.20385201187934518,0.12447715771690446,0.06488720473257356,-0.17741449433682338,0.09079177246440188,-0.044477764650338106,-0.10976992960483821,-0.5268933336914688,-0.43386463158123056,0.15463381307290217,0.015905077384032323,-0.20674727585071018,-0.19618463761332355,0.2353377404450368,-0.2456740053539446,0.24508111808275918,0.2781096517304665,0.20993383418059752,0.09232979306572134,0.10002190372048159,-0.17862741963291598,-0.17966074970755339,-0.04274610101000124,0.1296922555386073,0.11272767145522537,-0.4911780804803349,0.4175563183576423,0.19201748173928979,-0.2100653849838067,0.09000219832461478,-0.38576112567329834,0.04566264520193877,0.03122204304761278,0.02320010992678277,0.015452890260482948,-0.12192343542703935,0.180146209646802,-0.01824062890354025,-0.0565070451005763,-0.820492944254694,-0.009012730476440453,-0.08704993644898751,-0.06240026807306223,0.0305257005836367,0.06890216240221637,0.009292924312584015,-0.010432417616658947,-0.05205676332734685,0.00434755336598044,0.01090196170130282,0.004224730126226817,0.020224347805442914,-0.08100411107112675,0.01186141128274789,-0.025392083863358974,-0.01872808705427861,0.05147423783505804,0.014611832946522957,0.00021208301512469762,-0.024236541975614635,0.014725963224894147,0.012628873883372397,0.05915080227115732,-0.028776612869353513,0.00858898440329557,0.03814053464902152,0.0030183805449989724,0.01865325037313841,-0.031943243890069084,-0.013252656262556834,-0.03372363051407027,0.004204810419156097,-0.009555649460403319,0.005550727624020112,0.010689490307710567,0.03276805694068917,0.09052281260115887
156.99740600585938,1.638092041015625,0.0936183652294778,-0.01448365126573267,-0.020271847760181497,-0.04924565285954259,-0.04601989402200672,0.05774206599016869,-0.04378631264901285,0.10880125434186223,-0.022018670780147458,-0.12241886940909848,-0.11355075632210296,-0.0999160909213893,0.06517536731723177,0.09384135871482428,-0.1366997922705056,-0.1698307518160764,-0.23731748391238983,-0.05734391643671609,0.08681410994922106,0.09248894659791684,0.10025348182639393,-0.07517310435767333,-0.01551521269575028,0.005941951169098431,-0.17827867399325836,0.1908719733989129,0.013898541338063418,-0.03866881350238442,0.08518524316849813,0.12833095307528786,-0.04162846598866554,-0.16283482084316594,-0.32011573207872246,-0.5653988502390551,0.40864682797218504,0.291819067022171,0.21118682725088478,0.015971817613479985,-0.03655938117807643,-0.6141217472379314,0.21474310102974886,0.01827878760826155,0.3773207582348639,-0.08906084116595937,-0.04460887470895809,0.014101829197625702,0.02635919754152249,0.07673464614191305,0.500863612114965,-0.20722118840242887,-0.23401300003478198,-0.04497499933882741,-0.2712102368732425,-0.0900520356006309,-0.0320157848398504,-0.28446320105661776,-0.2779478217192029,0.5396850969691973,-0.16894680124628972,-0.6302171386009429,-0.10487591780595847,-0.013770227575814876,-0.002447317962476043,0.003452005401897207,0.08818054844039382,0.36931741265532386,-0.1267522599291821,0.01881827260165788,-0.05610104507880402,0.03757345603786705,-0.011726220560671529,0.08554651479902863,-0.024135842525195603,-7.587823632497812e-05,-0.05885751762263663,0.05109912015793225,0.01995122365372305,-0.009822139113727767,-0.11097081722525866,0.0014529041577182671,-0.0048518786736915466,-0.005557000500623543,0.012913715384881251,-0.09150379124516445,0.04580353532643176,-0.041799517250131486,4.352154389868726e-05,0.009700903117618044,-0.02204341840681516,0.0074701588570086404,-0.0047649501347694695,-0.05133261032407747,0.007032699399871133,0.06504824580515019,-0.0018897798832307915,0.06231918353756417,0.054865365444499714,0.012348558501451234,0.06731167645886997,0.04503410218684184
158.635498046875,1.6278076171875,0.043483110633745506,0.018019069591908157,0.022129360736714874,-0.08902763591525488,-0.02227058062932502,-0.00564750614868199,0.025275467260818838,-0.08988634630304458,-0.10921753941518435,-0.0093346580895573,-0.06654499754345071,0.12178507974538086,-0.06371352085070897,0.03868769212416317,-0.01698705825099102,0.058872427034959596,0.058995921652623164,0.006272691257379543,0.00633108640840222,-0.004841776534833007,-0.06299941345795554,0.13974236169067586,-0.09949739817955697,0.13080301529074415,-0.004300665786130156,-0.04620420177774752,0.013161704931111094,-0.45782989264555957,0.014933817609270122,0.07214073531198743,0.28854047297501134,-0.4549833817956627,-0.08112820796002759,0.19449165540615443,0.11340822101276407,0.12600070068809627,-0.022030851342673255,-0.258088860175276,0.4357549778756246,0.14831245356651432,0.12154852880236469,-0.23226161805861745,0.581539612756319,0.37316792386138675,0.11726633471010635,0.37346474700037247,-0.15213496219680597,0.1331401293501893,-0.09247133444482042,0.3086880022465226,0.8471995952537354,0.15340039446563775,0.1576116835507122,-0.33487980076231966,-0.06029507991404324,0.06173619841058364,0.031378628363678274,-0.2536105734654895,-0.3392085961442401,-0.004957537076630575,-0.03534302753570922,0.038021876663875805,0.020380262607510746,0.010217238946076554,-0.03870805453929421,-0.1848280457399628,0.0588477482288752,0.048216994954007775,0.009960171025481437,-0.010811509053325124,0.0032510296262259165,-0.0405914787252237,0.0017737200197167785,0.02617361212472108,0.018901511016997607,-0.006777398708045997,-0.010501692946798646,-0.029155581604335273,-0.10137338118799682,0.05193072790582096,0.0035582445904281863,-0.01887453819644932,-0.01205605395841967,-0.09155197291011209,0.08624752897665736,-0.007773571223444416,-0.011446137879365048,0.06082905667238987,-0.008474351117414704,-0.01703735568942351,-0.022886017108794992,0.0021948761058495714,0.0552826435977408,0.12256331345148232,0.015654973892514246,0.01508730180809452,0.002846340248674131,0.02243079404210478,-0.08938889350451902,-0.08904017344735418
160.2633056640625,1.548492431640625,0.051502869989950614,-0.10723866608825645,0.030184588871388793,-0.0038880327246956586,-0.027713571211755397,-0.0577194617516103,-0.07764694377629205,-0.0939861735333785,0.02978371742583013,-0.03405995607231717,0.0022706154934471643,0.038709693652394433,0.034498064064397205,-0.020286797854541107,-0.028816227723046112,0.0008842855571291053,-0.017325422974717185,0.046444602379028796,-0.015986128384221043,-0.021245510924356746,0.005759510806444211,-0.007582798068154228,-0.012075150370596009,-0.002787087989257448,-0.00803025570782547,-0.06650296346077565,-0.016174795042656384,-0.042021585526760385,-0.05287567846492445,-0.017141836281777637,-0.03410003650072948,-0.05553289159715348,0.2397900388021928,0.04076276748548623,-0.07066366612723274,0.04814091294490297,0.0900553585438184,-0.08182437454675083,0.013980228266856042,-0.05083004964407345,-0.5016295334514609,-0.07965225113064524,0.15253389892892305,-0.14573245060993434,0.34422503544283417,0.25611081658973855,0.05907787240109742,0.22963331450426933,-0.1804497013657109,0.3327809375982198,-0.2618203226345514,-0.06911019722812008,0.3118162618865548,0.18439881205626207,-0.49451744509075635,0.25464589960706707,0.034830245259673445,-0.34058070582267425,-0.06316085555323696,-0.07081213277250138,-0.0005363319293050829,-0.04950638244023202,-0.057520772805660675,-0.28267382861933843,-0.004442321377407456,0.119657845344135,-0.02513408901153255,0.06809661607354382,0.00048494583028545516,0.015648974934898613,0.04367528377135553,0.048052966859233076,0.04618236155963107,0.00809870405572223,-0.01657964890990079,0.017383314659538407,0.002263069199789071,0.004998413054237161,0.05362535846342,0.04852096471650575,0.061369480287482174,-0.04549795224162023,-0.018734021922424966,-0.07813476450805382,-0.09150714167740909,0.039790294510601926,0.05781743382208686,-0.02357325794749739,-0.017346809965045708,0.0036464036079074543,-0.023407506103149577,-0.0006353759714257915,0.04000438623679955,-0.014892723131107562,-0.0019584483414096456,0.01614362346452409,-0.011631065196149155,0.010431540499792346,0.012483544490005367,0.02013512207841077
161.81179809570312,1.4380035400390625,-0.12338316530734801,-0.01975813421215146,0.06851571418245288,-0.05959844492032016,0.002314099585096387,0.10674608360896953,-0.033551270924930675,-0.045814968004209936,0.022982577474220982,0.06112425878617979,-0.08083984190766308,0.007153509726863144,-0.08061958250329958,0.07513157332807187,-0.002416386392203612,0.004013126345160026,0.005986480877451334,-0.015171492576047834,-0.000979599920981003,-0.009754124261544818,-0.020037091799284076,-0.01917457895715866,0.0016930573774646975,0.0385839251419828,0.04319180625520746,-0.028537646467888887,-0.002203513870676599,-0.009809262345797275,0.03287018087849898,-0.049099564859393735,0.00880117418660208,-0.0021526698221078795,0.028951175007292183,0.08257324273983396,0.028837770184205618,0.13864253401030996,-0.0172256167903271,0.07582267222010064,-0.0852999262878248,-0.04992528360045234,0.0943071884362302,0.05292241718852739,-0.055833319200401625,0.07081637038645772,0.19797183136446384,0.25360105104923525,-0.10508647807659635,-0.5950747537331765,0.834385578881266,0.1571987092153445,-0.653184445295377,-0.07728851418210926,-0.43112532246306623,-0.03371727357003945,0.28495478644127625,0.005204913416729531,-0.10671808943556602,-0.010185396467210697,-0.013374080672861242,0.020836481107429625,-0.153804272027818,-0.00449204540351272,-0.024159691912707427,-0.04966453135323684,0.043147281702330835,0.01045353423969583,-0.0032212141161452176,-0.08912287462597361,-0.037626099079939676,0.0198957682921751,0.0288615566417511,-0.011679287582012615,0.0021097918477980507,-0.06460435273992218,-0.005878811779607542,-0.02880774313026472,-0.024661751064264617,0.019805681284243738,0.012037374416739147,-0.04265463798439119,0.0439465317212169,-0.007470551418524277,-0.016408678935727953,0.05387154764764415,-0.04253848159528897,0.025968636546465272,-0.006389976822091796,0.005053784194052349,0.0763813835567557,-0.07550852125771702,-0.048063409472450164,-0.009449761394232233,-0.003060838553616381,0.012207597255751296,-0.052451233632974846,-0.0005069289218177272,0.015482892007720562,-0.017536836724890016,-0.0048130922127985745,0.1392166213849437
169.84230041503906,1.6580047607421875,-0.001550459465118217,-0.013438698522749483,0.0004056792076386554,0.047526456020842274,0.017801758465230667,0.09579669416611235,-0.045375252586192565,0.05176192781854509,0.04359037367504774,0.029062455779587635,0.13273908010699764,0.09500929308333617,-0.07602422090140809,-0.09333549125397128,-0.02251990220625019,0.026043819999340516,-0.00047319103964226644,0.1928298554539145,0.11110077084483809,0.04572178395957389,0.023383717970210757,-0.013747161310621672,0.04125043872962318,-0.013987834096309437,-0.09205607754851766,-0.004880005164375437,-0.022043868991564488,-0.017212452386627226,-0.09299293481025252,0.00055519226210414,-0.10285986359835289,-0.23037080827295423,-0.014085474999120695,-0.11419109361390113,-0.11316915038732063,-0.06511480021012131,0.20706164961221646,0.020518420707934033,0.0847646530676433,0.1434493063494584,0.018369210281205483,0.3550537683001515,0.05901446089980191,-0.01752520675978423,-0.17745677311020824,-0.3012206626678958,-0.32199272249580513,-0.17588845980385598,0.42942855811534525,-0.7044014265717715,0.12076169854539004,0.047814760694431,-0.16662668650850912,0.06923233774779233,0.12454275358921378,0.26659210310412146,0.04063679517302552,0.07969631633149034,-0.029088174391802286,0.056444474137276074,1.790799633535366e-05,-0.09201243515886741,0.004497865331434239,-0.03640249165240627,0.006447807379114769,0.0003099385080330999,-0.024172441205720634,-0.030020988004882232,-0.04816101716783677,0.08653700060219176,-0.0014123785365774805,0.03358817114418441,-0.0008727629349354691,0.0024014901495150666,0.05553510837339173,0.06718169163541853,0.002474178517435996,0.010123878018005284,-0.06532893393533143,0.11460783890415091,0.02520573279203595,-0.05417364945631946,0.02855550246967441,-0.0077037164798747955,-0.0014575339338192446,0.009160887312964924,-0.007277287785288557,0.0021191253619622934,0.0019129886957398746,-0.008026338970217031,-0.0035197989136086967,0.010609694969806394,-0.05406562049629352,0.059181894407767305,0.08228324177779299,-0.014863550300258523,0.0501290680064409,-0.016321705169648128,0.008584682931080466,-0.061487834644420904
171.50030517578125,1.63800048828125,-0.062062955580045785,-0.013593497621389321,-0.04206857399616244,-0.008727355381174598,-0.006934968487350589,-0.01801463424786664,0.032466529319183764,0.04371756595776682,0.017888018041339722,0.09210545022492315,0.06595306447205711,-0.009385172812532525,0.011186181605463905,-0.03131376779478575,0.007649777762937683,-0.15917378136446267,0.19291863007408497,-0.10101442334059353,-0.003794233591734947,0.06514220059292247,-0.07116132900578737,-0.0346034345040297,-0.02757159006243423,-0.003985704632516701,-0.015723975361320024,-0.015179737939023968,-0.35334259414320396,0.0921727520278239,-0.022245450708443838,-0.14542379133980832,-0.21817601106424483,0.2635819729997708,-0.07462651814957137,-0.07991052039561959,-0.3077243212763645,0.05457430142739653,0.005053734694092675,-0.07451574939489895,0.0473132333801084,-0.31856354978246126,0.1279270838086689,0.5934201630508298,0.23446633244985685,0.33076377440070964,-0.01806982487625955,-0.21358561716952676,-0.011744401511941968,-0.0902367844010866,0.2997877392510566,0.6156454477903799,0.8548429234502761,0.0441428328589842,-0.04220721742509212,0.08482239053822452,-0.04200159493082136,0.053117589371759096,0.05404560588699356,-0.126802808579249,0.11596769298341585,0.025519849716580945,-0.017801025098872682,0.0028815823104151738,-0.02564523034464616,0.011816341505570567,-0.05583744078250642,0.005363526745622877,-0.0018057430871698259,0.0020208418613151266,0.04776071188484549,-0.01981247969590655,0.00923800122355611,0.05297748428690942,0.020285092823290753,-0.028046333535053026,0.06845670038351341,0.030981387301171105,0.025838673064555347,0.024737925073745656,0.014729868941925014,0.006646627361060278,-0.01859623485650307,-0.012901134730350408,0.0202995171439634,0.07074294403208738,0.001798032583610522,-0.018205943876588238,0.02848696219113224,0.10832638732856369,-0.015738325318014834,0.0023673907163786283,0.010443777932082916,0.0806461289047123,-0.004848087326037376,-0.052516732587721826,-0.028454471503976397,-0.044283660946317346,0.004645104498317044,0.056577271319716904,0.0008873554681135461,-0.0075343397130124105
173.1383056640625,1.708099365234375,-0.006734685846540069,-0.02196294954897826,-0.014740497612625308,0.01020515817382493,-0.07752110137071265,0.08746630762905892,0.07155759052774967,-0.06262708947040295,-0.10077092634769612,0.051846944411528026,-0.043843921188500515,0.13184824378430032,0.018596039459998284,-0.00036995763325544024,0.01703665351698216,-0.032018986368933085,-0.015753463990266545,0.03237183314754504,0.06446270877592336,0.14401284708955833,0.006674727598211755,-0.009774445239359303,0.05943759896996043,0.016940877448189628,-0.1942687005525487,-0.15968427035289107,0.17574693185672466,-0.012732388223906235,-0.1394360920715628,0.14963945446554427,0.3379425654140811,0.19183285348013934,-0.009765920997989666,-0.41723674999634225,0.024654889384434116,0.12275003741614637,0.028797056768269352,0.09363772195854661,0.27719306089853063,-0.08936168151348615,-0.22977660589819746,0.013763661703662012,-0.23795970856820334,0.09440682257725799,0.5721547568034877,0.1596940174744989,0.2889289798126867,0.7798370009678687,0.19614566674686817,0.08685914759884865,0.2751824443592279,0.008224876551570259,0.30057096635690034,0.026007170247349387,0.21239047873242373,0.12245208724546358,0.033461873996842355,-0.11861739441142644,0.07917083879206785,0.1328827864950769,0.067540265699884,-0.03522938291763117,-0.004386514415579827,-0.08604623444775474,-0.002320806025558691,-0.05429993959657898,0.061692022494143454,-0.04414411730994894,-0.01982183819859612,0.01786565296467075,-0.01713405237007639,-0.06317335406727388,-0.01911608149331922,0.0023916504809616363,0.00034995517325154234,-0.06798061415739014,0.03937814522712545,0.03371323378141681,-0.0010474027535638227,0.019657713675316747,0.015690255050408705,-0.0375551610753391,-0.06083986298860753,-0.004243092453934702,0.03215522462383916,-0.014274970557864813,0.006596606368281275,-0.06871549583453938,-0.016914879248145605,-0.006242507461887157,0.14710666986516183,0.01682053726839417,-0.01844514125976423,0.008349643506301503,0.05599095311066792,-0.047437043088352386,-0.03146930200790411,-0.043600708259376265,-0.020267874504963142,-0.01542041394801624
174.84640502929688,1.6479949951171875,-0.01561283878494945,-0.019977084120890075,-0.043914806164172135,-0.032000704847117714,-0.008899125424461172,-0.02814418796567157,0.043630777892042755,-0.01840090622663296,-0.0864327184875418,0.017223276363160275,0.0272070278318755,-0.011681059252792909,0.060785018361193995,-0.047501668414607866,-0.04406490558168532,0.040090591410762086,0.1522581628852878,0.014950303799389695,0.10383222791037706,-0.05321642044534631,0.06882975676695716,0.0045766654238355185,0.021243980873307134,0.09908169121227232,0.18109326335051484,-0.042798479879624464,-0.09128451719778512,0.029067380126419587,0.2549365992070597,-0.21633556618081798,-0.06710912348045585,-0.09063967593369358,-0.05534054416603564,0.11435166304001787,0.08067113119914238,0.28557760413703176,-0.01869272795635746,-0.0677511352370894,-0.058299764008515734,-0.17074768217222389,0.2824958351173883,-0.011073995609593837,-0.23378290878740038,-0.058943786419932864,-0.2213259276708716,-0.07396268967220195,-0.5140229986925713,-0.10217063035808838,0.057538974786097215,0.28310779517745477,-0.9438342716801987,-0.3906384957595286,0.24156034622564157,-0.025743164705397226,-0.3065490171498736,-0.05268559991758214,0.28597649111409607,0.11388617320769576,-0.12398988203033942,0.10946130044020286,-0.05294804733423576,0.0031972349156073015,0.015501687163952062,-0.04159380163822528,-0.0003429971331660453,-0.028682557831986102,-0.06763150657330624,0.0011784284374740227,-0.03247852163090541,0.0011333347075224013,0.037256718100484004,-0.029813218217969548,0.03598900831602375,-0.03293551809607097,-0.06866347290179678,-0.0310827564290911,-0.04414202652602862,-0.012816472199284296,-0.0007121845391872008,-0.024650932207578524,0.11557273747523954,0.007574059157243097,0.10566681688740652,0.013875639164650538,-0.00988188293849873,-0.054453536016061274,-0.009965327021432048,-0.006239867969005529,-0.007306652157169427,0.0009160924742346289,0.004133154004235135,0.008078754940945327,-0.03815401521143091,-0.0008879649354018597,-0.09724465300600703,0.003028622181496528,0.023720381412392202,0.08921665566489372,0.10531456105558333,0.04227861607240439
176.49440002441406,1.58819580078125,0.044180399968747064,0.054237566010105806,-0.06697002028444872,0.01539132838064683,-0.035098664052298854,-0.05019959768337559,0.042453095030206243,0.02847016623081454,-0.02108751426201716,-0.032463867242715584,0.019368470680023602,-0.003892624466784576,0.04547773492883953,0.04539432191376983,0.01188293001117786,-0.08779607876404275,-0.0013051791415462372,-0.02202633678497594,-0.026302890824899602,0.050322629710871467,0.19137662091151397,0.006286821996186659,0.08878632129652943,0.032987359065003566,0.030245994941395064,-0.1168466492889459,-0.14456339517678246,-0.07296594947873641,-0.008192603212787544,0.12142759413480483,-0.41398416152192,-0.2318899165451773,0.10220313990092333,0.23863537501556156,0.23500119055877158,0.11186099349753063,-0.08146822589740067,0.03151963716828511,0.4580130205233139,0.15313759760435647,0.03201228918565895,0.006345614434399086,-0.3278621953003924,-0.3543974144766911,0.1460787797106376,0.15937188605425737,0.13189735705090483,0.5291375762426272,0.8291267733659952,0.23206253234814936,-0.19802526754709604,-0.7155701032506373,-0.1492564964501852,-0.017529296588856637,-0.05371659057741924,0.17436522766722862,0.00392609461594761,-0.00555196863769235,0.036129274969518815,0.009433692177583575,-0.02733231077986044,-0.0005781670643998302,-0.10806455618730833,0.021674373347966902,-0.014018622350378497,-0.037092435970960916,0.050185416603127,-0.041091206788851226,0.005278788449942679,0.025271601733388653,0.09148961374440316,-0.0637061663784891,-0.04073369154056285,-0.10386768020365676,0.006532527782849273,0.010031469303926257,0.007206452617492238,-0.07396355929733435,0.03318915649377825,-0.07198167605199045,-0.0017601906838918505,0.04620951486714848,-0.03034351938928484,0.01118974566286896,-0.0283850304356449,-0.05431921809213073,0.09767039026413167,-0.011195925276620741,-0.009722176744940194,-0.007522895729114189,-0.06859672263027466,0.07143680353723605,-0.0293119492981629,0.002949500388510495,-0.12023029760629678,0.01259211597400685,0.07793021467393207,0.021182005246944798,-0.02659635683903816,-0.05828666518912177
178.0825958251953,2.7765045166015625,0.08498220071175794,-0.06995526278953855,0.08032842602829468,-0.04743185831949171,0.11355803830753823,-0.07738535407228231,-0.052154897321604256,0.00624949278847288,-0.03301407353144364,0.025308467484273553,0.007717570168615708,-0.09570924503675113,-0.05020654290059025,-0.07840677539261237,-0.007102061068233655,0.005431597981217366,0.13952034552186732,0.09444864295859286,-0.03485964731715456,0.00033325735407771506,-0.08340353502212591,0.014338485437778464,-0.13758399578465508,0.012083078076914597,0.5033810346997978,-0.046168162029501164,-0.1890528451131705,-0.46017250510177526,-0.7603160394747199,-0.11536985966368526,-0.38520555663145783,-0.17342729975230825,-0.21447651032163423,-0.103258090897039,0.022821346495838224,0.485691654181613,-0.23507338941601974,-0.10736541391839151,-0.1849217907506928,0.22835600766009195,-0.1589585640615791,0.10461529141936578,-0.08194649875855436,-0.1232249714998019,-0.24288709216552795,-0.3143775979880282,0.6142871983538191,0.0275764605108108,0.43160973591649965,0.2604153789694196,-0.19994776429176178,0.06374187818052776,-0.3308781908832019,0.01247655285101414,0.06870609575664201,0.09293559826566744,0.03986696911652081,0.02706382726669107,-0.06527321221825139,-0.11771843770488838,0.008437065432800525,0.06990790393139798,-0.004285875341585671,-0.043927304444862425,0.04462947571619988,-0.08628205440543807,-0.11205756410007835,0.02149092872393677,0.08582555362001107,-0.0004040482281411333,0.06370184606426757,-0.0060030962690857306,0.00923965167381151,-0.0034477507921321067,-0.07692670307005281,-0.028563661504505868,0.04168425106170616,0.0066652664822043645,0.042428052301898306,-0.008206718927894485,0.01727829261445102,0.009203649573910535,-0.05931228367481814,0.025066841696173976,0.03685341490995915,-0.03365336252392202,-0.02166158139149848,0.010545457817344128,0.0006018006525576572,-0.015034884551783263,-0.01616633393952128,-0.0038906232028328627,0.10533849661533129,0.008101174161104528,0.06747213689989642,0.044035373852588044,-0.030810908900985628,-0.0007768894568506851,-0.06931272284494046,0.05478937941606775
184.11529541015625,1.6280975341796875,-0.039930907723595505,0.08641403580070506,0.08841526730918178,0.003888863837994016,-0.009079275776470622,-0.1266593355172758,0.0027086364362645813,0.04114378894512863,0.021382645586448014,0.003963493603700985,0.051999563088905305,-0.06117107392794456,0.09224582571639713,-0.019148893181401793,0.03658163105399383,-0.04380312549509169,-0.05774107841069587,0.004473477843292289,-0.017126866221674336,0.05557168771818958,0.022726911991915986,0.015276500897226082,-0.1258915899007691,0.0845016514192022,0.11904159366238293,0.0855697992697736,0.4143381001146525,0.10613655439833466,0.06616246804468408,-0.19174897615649622,0.12764423222254667,-0.019077510862055728,-0.15567881299844727,0.05003580100410969,0.11343976624129755,-0.024835640410674903,0.022375750337768202,-0.23020373222444004,0.19080930442808824,0.028527271405224805,-0.06380746900094417,-0.7912599620315814,0.12161700178626682,0.01769116777870544,-0.12840376923005498,-0.4866880706269207,0.17747589598721267,-0.33425235258111335,0.34950624075805314,0.237652971254113,-0.45345263523445095,-0.4130948102171176,-0.21615726161574436,-0.08754048782604426,-0.4687592122831587,-0.019862209913321407,0.2586756949351891,-0.10096221999926631,-0.1669445281257147,-0.156729769834959,-0.013781644612499732,-0.011337461750554249,-0.20105185690246458,0.19672479487379255,-0.03885392261653052,-0.012320318373308282,-0.011479032907840282,-0.008403339661348578,0.016178878977036893,-0.012079272276889402,-0.010324482313530212,-0.0013697067474022606,0.030619218190499956,-0.021975857605159077,0.005823188815288198,-0.0040403580128137995,0.04642840926935779,-0.017208215073003172,0.01522596846921622,-0.032184694301004554,0.026311710640234853,-0.0715946987182306,-0.01297767103463747,0.061252831913498985,-0.029174096286258527,-0.011162809481596436,-0.014097077863253205,-0.06562539756931482,-0.035076108179997935,-0.024412338347828223,-0.018939850657747104,-0.002172559645085269,-0.09425128133978287,0.04435290522391217,-0.006263938232593275,0.022286108256919807,-0.004871667696539143,0.0033935685421325364,0.005300171420865595,-0.1307605016345267
185.74339294433594,1.6077117919921875,0.012574246668865273,-0.028023238436144945,-0.017092723617795624,-0.06956751091804987,0.13865306501686822,0.03229057168275572,-0.010403635553776436,0.018318392784870213,-0.020940767861903062,0.03968331827520083,0.09511811682863813,-0.026349173548143884,0.0187521281573391,-0.09860987424184318,0.022598867102737594,-0.08984514445221409,0.0052338230257132495,0.02789779886010369,0.03415117366576294,-0.0505313555884853,0.0865930492630915,0.05730916167699964,-0.04709953821597712,-0.007239969269710035,0.005584247416999283,0.060495522523073254,0.0021047830140463646,0.006489450839705857,0.08976255028425364,0.012777921513832214,0.10625890236465596,-0.0370224964365581,0.10297573694988481,-0.019468836209383892,0.07614226531238298,-0.06922525645617846,-0.017926559576485784,-0.22803363727927498,-0.17276984889252525,0.0628176082572205,-0.06937031596412678,-0.22227641861668168,-0.02581187902314991,0.21200389614809934,-0.1076890263872181,0.18145238308520137,-1.1405176824396583,-0.5418553802668873,-0.4439679223723715,0.6764859978782032,0.4004581832839333,-0.05899006967707797,-0.46585198689731994,-0.1219613897935334,0.015034219723215784,-0.1287604837798211,0.0113699211076297,-0.01098721914210743,-0.004950555056177604,0.022296305481542884,-0.018398182932318336,0.009418201667539514,-0.12407503032984975,-0.018410292899867155,0.08133644574018038,0.002074725611256347,-0.012405679082663823,0.05181099821677297,0.008293092070443014,-0.01104975904588268,0.00831631108143817,0.060773842388497604,0.04906035544565525,-0.07885336612005782,-0.011593465141226098,0.031378730039043526,-0.07039133365689894,-0.00814701222612224,0.014343495430395863,-0.011324308916524738,0.06512774332852984,0.0019407712440420403,0.02326704188980726,0.044053115051445386,-0.12660710478709586,0.022209729098171812,0.008652342239010274,-0.05141534595089304,-0.05497396231049815,-0.062139536987774045,0.03974661892545065,0.05534253113984863,0.05284719567622277,-0.016332292083088,0.0003165587090033304,0.022254705830315424,-0.0597355188998888,-0.002074008862805172,-0.10863429600434027,-0.10573861272364005
187.35110473632812,1.5684967041015625,-0.10116556941993099,0.02007131356423562,0.03872215166249587,-0.04958867988702772,-0.01794596208149586,-0.09470402965555134,-0.06143663196377897,-0.006708253474168414,-0.007022985822130276,-0.0019008371312294117,0.008302724296217773,-0.01644075553480982,-0.0013497712345683995,-0.07633337789820742,0.013348582151885198,-0.038108615483136675,0.014429823814737772,-0.07782367994157854,0.009354974604956283,-0.04416039728924449,0.03805785150034241,0.003922528245711434,0.003024198365255442,0.06704682094888458,0.08755958334496877,-0.02995103823814984,0.011323317223595843,0.013485154166299093,0.019027525872990867,0.0017164703055627673,-0.015423347011648207,0.05571759458881188,-0.020896692813346916,0.04035635697968674,0.03574800215747117,-0.01188091010394811,-0.017154069546507004,-0.010945514712031566,-0.07699071079363029,0.3009472582604285,0.14498395456532492,0.1554818647555615,0.14288367706375207,-0.19854311848739056,0.47067236438471965,0.04030727016512908,-0.32673762743130025,-0.13925707003541601,-1.0044010429290076,0.0784635131469322,0.2001020404561148,0.38800915238473566,0.02178767549634959,0.3123630061367929,-0.0008708599233321925,-0.07886649420903545,-0.0026038549294593975,0.11363869483585913,0.012918507178773173,0.018155340505388775,-0.00802211559282766,0.03615094924482741,0.003944758662803784,0.03785695078311563,0.0778335158232343,0.031261968381962935,0.009090269605549978,0.0008139225363991705,-0.08547808154601666,0.08045979235278715,0.0039795780294797824,0.014528381274517194,-0.01802166714610138,0.09433198825548868,0.0023216142361604034,-0.017262858694174307,-0.026169874557988537,0.02229406838480047,0.02999088480873351,-0.11439454654263348,0.07335277427552311,0.021605882795031024,0.05118499525213343,0.002047945888216437,-0.12139684379135049,0.03880902703881635,0.09942432646334198,-0.0008724214378661875,0.022870903017491676,-0.051868602701604066,0.04227436742128046,-0.011578412581754485,-0.00418887298691444,0.022099585841587943,0.003428263039412406,-0.001649529481997226,-0.04909430707303727,-0.0019359310062676213,0.022334929881295974,0.004590269481568168
188.9196014404297,1.6183013916015625,0.0037303866084395995,0.005912671970645819,0.04464641577628654,-0.03242307679212689,0.004854476671399906,-0.06899785566390251,-0.024759178924297423,-0.0347790619782134,0.14477242980550414,-0.07208176665976697,-0.09732325288057855,-0.01713745534785284,0.043103322861897865,0.015089735620643217,-0.052361581814036696,0.005916180637668962,-0.1167269728272767,0.022308719442160882,-0.010751505915258384,0.05668121538520762,-0.029824452175388077,-0.018845908326969987,-0.012852516897453335,-0.03562837584013053,-0.0066040385885556925,0.001711107697497657,-0.08043837835584622,-0.04228319040034971,-0.0008291035159444815,0.016111058688681304,0.015566745715740397,-0.05702737902860374,0.0028099947121135865,0.01748067081065644,0.04732339683271981,0.0586977104716307,0.01825131724505344,-0.006688847460770859,-0.02574332093657103,-0.054669851050253994,0.056890994928015415,0.07415251930993579,0.042542556115564956,-0.14355805661694357,0.014206168309357918,0.21266439283936192,0.16173153700633836,0.4764228184531907,0.5505195060996834,0.37007903730283104,-0.14941481418601624,-0.11615756017447505,0.14675665698736057,0.2202592006105175,0.14353149637996773,-0.07304838951887291,0.27427806662706666,0.3282096511516229,-0.03768130898815038,-0.26658538035941803,0.04798520074795609,0.0761277478588906,0.0033117503318731436,-0.007421971228568193,-0.06189730658054708,0.03994647833492895,0.05856335881093511,0.023430294537244017,-0.08123822710104928,-0.053039270230241145,-0.06092983796437803,-0.013383277792152528,-0.007529319651342879,-0.0013589320513128437,-0.076854500230715,0.044521596481220144,0.026812424436576086,0.017254248426828704,-0.03032397244053222,0.07402302954501117,0.05663675281711969,-0.060563860035929645,0.04042231793209846,0.13616083157061565,0.0019305585283857093,0.006713743431585666,0.01451815311755238,-0.08501740968351629,-0.008281126308354142,-0.019492292287073526,-0.005889640400586772,0.006148188608874285,0.005918339305511618,-0.06134817916266991,-0.003650525539945673,0.022774278542289007,0.06935912364728043,0.09030649617973961,0.008098675897259029,-0.011128204051842524
190.53790283203125,1.5677032470703125,0.13127817185085922,-0.018217774207805328,-0.00942225311401996,-0.02749751188679436,-0.09359605011881543,-0.01848665932794092,-0.0352185120406189,-0.0837069403552928,0.029412340791143472,-0.08783814000756868,0.14747717752935988,0.06293862575865126,-0.03187281824474667,-0.002560495890069771,-0.07464033557793165,0.10641778131487241,0.010415945361679738,0.024420051398566466,-0.009432530225584042,0.04851464676904328,0.042652310420819746,-0.06270882815206588,0.03504952249368703,0.025876125586621522,0.024501618990048327,-0.04693224129348574,0.057488579981692545,0.15842983229413732,0.2870146019285052,0.03574379094837417,-0.059446387844325904,-0.0652768724654946,0.10149784673340363,0.016412492649480026,-0.057439656285236465,-0.007698669913004292,-0.011568680566118275,-0.022246785241398313,-0.04912128354014736,0.037953614124281755,-0.12878875131346562,0.016939694312556756,-0.10171516343410318,-0.28595504523063764,-0.05309097553767689,-0.4106070380137381,-0.20165216063741526,-0.2654113126555709,-0.3093996852109654,-0.5600714645122514,-0.3348306544145671,0.14924907946141375,0.16395729539867934,-0.2115385465551652,0.11524702758264276,-0.06216937682318088,-0.4962385030337143,0.00873606216661571,-0.020923549237880985,0.0022809811007243525,0.022018163546620693,0.010330145866890595,0.030569668886353894,0.04235117842490711,0.008856663979968874,-0.000989470255608065,-0.028276383069425856,0.020276929330577412,0.0018387830161067525,0.026718334329952773,0.09260911559358836,-0.007094320024660619,0.011246664749227416,0.04553939946544802,0.03519570368039494,-0.03063272177511258,-0.004344256186317479,-0.002846840972186306,0.011655564196097378,-0.06593592226115536,-0.009538492204189971,0.04169963562374932,-0.019984271985100454,0.0017222458120095367,0.04908244702476619,0.03181989214383918,0.003844348565735537,-0.09880502980376535,-0.026505298543062862,0.01287317404450888,-0.040084357101395116,-0.04864262079565793,0.004002117790560021,0.017913694291917612,0.016650322055817936,0.0015449366383402407,0.08475984518377191,0.00545684190546404,0.008906217865881845,-0.021598510462269002
192.10560607910156,1.55859375,-0.020086903968398837,0.0838383063704213,0.02694917967220105,0.012070928120462704,0.02197108103544434,0.06292555795878464,-0.015545218819099456,0.03494920299017528,-0.04925167753272459,-0.007728717554206765,-0.02260107663823284,-0.08194411879167189,-0.05480183090110917,-0.07795593027485498,0.006696799051833596,0.03136946306960609,0.00300266219552506,0.016170049598988226,-0.017095679983732032,-0.032174887479456835,0.03108745411674539,-0.03558796224018709,0.03535166918056641,0.010173847833308122,-0.04554875173194474,-0.012023405377829047,0.020235821728723007,-0.10214012467260841,0.017643694620267675,0.19995097248514618,0.007482398293004011,-0.11568568651462591,-0.13234020304269722,-0.0665645924998784,-0.05950326956747978,-0.12667024441805372,0.10508717422532617,0.10211171051627706,0.204631143546243,-0.23021243117528126,-0.13927807488647764,-0.05717771506279433,0.023561273547085593,-0.03068522833680175,-0.18770490445719598,-0.37160826822202137,-0.2523983271416683,-0.4207701262122771,0.16005765442313943,-0.16304446934329542,-0.09863779982747406,-0.2981790995677863,0.601547079569308,-0.34007739168609274,-0.15739011641611522,-0.020090424732251966,0.08944785476278064,0.022290494030469937,-0.018548599669060577,-0.052449099114629444,-0.02086429241041292,0.012135449282673145,-0.035899258606335034,-0.006063168919581203,-0.051295116268288324,-0.03567616025630315,0.03556900207756015,-0.05300647443626586,0.018993922216757105,-0.011156140487397239,0.021693538177050435,-0.07888564219306327,0.0020624463903976932,-0.03033381953410158,0.04840753096298822,-0.005244638808235628,-0.004407763709473116,-0.006054268298661134,-0.06410363569824126,-0.02187164117431213,-0.058224131685796265,0.004515437604080033,0.003880353855093371,0.006179587695760657,-0.028169973172357865,-0.012709361921165787,0.005344063884814646,0.025447949399461912,0.020980861923858823,0.03880019543470041,-0.059528594899618474,0.039324986578477585,0.1253717939050683,-0.09678112437071801,0.0009303281238328554,0.005403619829885981,-0.00678332917672752,0.060676857508386466,-0.013282547113524959,0.07179362298984361
198.87789916992188,1.5977020263671875,-0.021869908674195596,0.030847024182025153,-0.01861065315102802,-0.0032189750114151807,-0.026568061015310812,0.04486034596876721,0.025968577629094713,-0.04074444751303644,0.0247862660774802,-0.006290224579277852,-0.018273543993350367,0.03729372007736529,0.04941101129590785,0.07692657664203419,-0.005669583651726455,0.015441139949024628,-0.014088947349046615,-0.011924249854890401,-0.031193356343450877,0.04669911046315099,-0.0026683626400872493,0.06933088327289373,-0.011524075691490583,0.07174454410909398,0.12737386839085704,0.08751420961249369,0.22419623690310747,0.14051850781694267,0.033485397101127114,-0.10469659051260964,-0.2086989005678581,-0.11184811043234683,0.047146337070509914,0.06296983124871781,0.6761057093977441,0.059431631078293364,0.14343858396994444,-0.23462070022876352,0.15455619753493613,-0.09829590186483059,-0.45994062191659835,0.10040110246929401,-0.26197224575813804,-0.18291174711351366,0.3998346118098367,0.2878772749992508,0.08992437769838772,0.2703186033508946,0.05324118729420984,0.4738943161183623,-0.23543824294636978,0.10287331297464114,0.2335626620340443,0.7682618263884087,0.17962673137444268,-0.031118875014117094,-0.08039235977262513,0.022144386787784485,0.30667223853154,0.08763044287522473,0.03896234149137369,0.09661838839005109,-0.17817983786719993,0.05032990837379979,-0.020042202046755914,0.007665882217192353,-0.01791493812116495,-0.012953959781655677,0.06548111152881615,-0.05851706452205624,-0.010066039059760036,0.0014818636505820916,-0.018721889385071265,-0.023486326991147277,-0.008651071942484441,0.0021062996855466115,-0.026981651993400135,3.5174723728095003e-05,0.01549369164097141,-0.0381599126703805,0.018599327782374234,-0.05004547074510522,0.019913461304466862,0.08903234317990068,0.078661819675458,-0.019838006791426117,0.0010492676213428025,-4.577407651678531e-05,0.0047209509476311895,0.030170587343404914,-0.0365737238868551,-0.0043317301504245224,-0.07615102836897036,0.001977619744943551,-0.034346293370555406,0.0012343668658891143,0.008926072284513926,-0.03974158713804766,0.07015444038030273,-0.05485633734072608
200.47560119628906,1.598602294921875,-0.05738774226924169,-0.0026143738660160233,-0.07002995967918375,-0.021846088212734885,0.03796169525068524,0.04646227538721621,0.014818012379091154,-0.00012134479287151303,-0.05170224485463768,-0.039154190839004004,-0.046838418026999604,-0.18524971067453302,-0.053319905910841486,-0.015521550674931885,-0.06376873726926131,-0.045813275239279506,0.0791746199539364,-0.021697278840395857,0.11880167144691262,-0.01209678978305275,-0.02347066545886718,-0.005498112333835382,0.046709236274369466,-0.008573817608171216,0.07200993683920306,0.08200866966441966,-0.02388619423940041,0.040616166391982594,0.04170456958038021,-0.10303395345725538,-0.005723626520213424,0.01863242408015567,0.009677672387515438,0.13485518112107522,0.11998641276980385,0.18082649990377592,-0.16823369360655258,-0.2104150336970438,-0.0641015645465223,-0.5805513981197589,0.04913683865536204,0.17211944805738424,-0.0933453190713816,0.042650124150384335,0.1486049208181052,0.45991285173683055,-0.005414418708150459,-0.2667206944961226,0.35917341055785934,0.4241644047793702,0.09561628843964191,-0.14910440507896358,-0.165575418686864,-0.051579619038126294,0.036101297797658534,0.20331938883010303,0.04898026906173837,0.03137463191829194,-0.06859032538432791,-0.0008817275600084538,-0.009529095672962631,0.01736135412053453,0.08730840266570306,-0.04379180604295468,0.05996394146256406,0.012173697951461254,-0.02773531733500967,0.004591292873415157,0.0026725627416928086,-0.038176548046517926,-0.026472079042929992,-0.039020864321267695,0.03301642574536549,0.016899527060010265,0.054292376495976076,-0.02349171731441414,0.040949131664627936,0.059356781804094524,0.0364679357067298,0.004830102142622661,-0.023426676309132352,-0.002274821175651796,0.031249789622134316,0.12164647038826401,0.01812635637591963,-0.0029725734285041207,0.07235302965358427,-0.0004666747000893753,0.03964042880760416,0.03356996626604329,0.04448831351027511,-0.05446979143270766,-0.012440562953872414,0.004649824841788747,-0.0031554094106969613,-0.10118063673746841,-0.0343994257648465,0.0025482661994010985,0.00033103091125038467,-0.003335571753167033
202.07420349121094,1.558197021484375,-0.003294285084735317,-0.027721194107436183,-0.004480843385943299,-0.0056003877217017635,-0.06135873527844763,-0.10115913775597986,0.038511009823575186,-0.053107475930275275,-0.037907346240086445,-0.007600693485081065,-0.07062486506928119,-0.04560349337905401,0.06008186030566455,0.22613141357029895,0.013095599404602563,-0.04355774644664853,0.06704161643868758,0.007915435030721535,0.015281518694848412,0.007750197359992282,0.0209136254611237,0.05831299078541857,-0.008095699819098493,0.055286568010994366,0.031104758203449823,0.14588999435082695,0.04076658871501916,-0.26794713548964855,0.1217801000348881,0.18573714612792375,0.3303707111403952,0.09990648366589132,-0.030086210977553127,0.06916055722921285,-0.004103574854655671,-0.15218074784630692,-0.0708021043203345,-0.10186156009777825,0.024032368583789328,0.123973507983244,-0.13457117677955419,0.016146387083445853,-0.2127434205813517,-0.6858168115743153,-0.14726535830713455,-0.1496709920327423,-0.39034770641869593,0.048470366523380826,0.12526865283571526,-0.7071591483655361,0.3839522153626058,-0.55424568699928,-0.8319531487239696,-0.2623116041753204,-0.10160324658981225,-0.33602829405118984,-0.20733531726722612,0.15075929431432808,-0.023217802342266728,-0.011365564707181405,0.014442727572172645,-0.004542905449715383,-0.00692822941152226,-0.01997158704619139,0.010211729032629874,-0.041488658488240515,0.01567423410914057,-0.05890969680969765,0.035698327665609715,0.013480550750960487,-0.004965291859168287,0.051973722898622066,0.0042152638315419285,0.0020256330702044406,0.000622636866526499,0.005613570004469402,-0.0013235761957047976,-0.006381610598552484,-0.014171865197932426,0.003928755944051027,0.08620143299718576,-0.015187832116230777,0.04415980855237805,0.02413990696540084,-0.011206820052324082,0.07233623903715784,-0.003804251723713253,-0.026268065459089114,0.004316779425774354,0.001500115041125237,0.015363551534830997,-0.03698597339543275,0.050407520993627504,0.07221149459659752,-0.01974668211310801,0.005551765970390258,0.02663414196723371,0.023946301748130866,-0.13274726654101524,-0.009441847594149838
203.6324005126953,1.5482940673828125,0.13370386282772673,-0.00018296517829786933,0.002045065233236058,0.02144871321614292,-0.03162869231900194,0.10286945926850695,0.0417752709716963,0.0016798598765216655,-0.03278028909381542,0.028362103330669894,0.0395554283181322,-0.035374358717135124,-0.09781459726861781,0.025844862563010225,0.10396340711057211,-0.007127363881520746,0.03640645498771057,0.05534796707327963,0.024263043561565382,0.1364401990150513,-0.030241586838468726,0.15785901205282082,0.107638292068685,0.026199203935972706,0.07668834279514405,0.13499061956931346,-0.08666793365732411,-0.03718323515857953,-0.021846259081389634,-0.028404063019979726,0.3234514822056628,0.08764727548505753,-0.019694336050717687,0.03973214575236919,0.05828406308671628,0.06423596767960724,-0.07700010376304459,0.07516375113765017,-0.19099524673939394,-0.4924744282614147,-0.016681666418857932,0.12889117435257416,-0.13914870371233962,-0.019610201748115424,-0.37490921958614765,-0.1949117463751824,0.20942602718537034,-0.04976058045003932,0.06232627690202481,0.2619476567400854,0.18030164588884603,-0.03772383049629649,-0.41273491168749626,-0.19318672837403725,-0.11684805833904764,-0.03787240985031815,-0.017033819809154523,-0.0015325031552014365,0.04982250973782845,-0.0048319119408378915,-0.01921307329169255,-0.020312079183322777,0.020636065053201032,0.0066146366480098525,-0.019510854029971103,0.021492606076330592,-0.055720256142565996,0.001113315884131578,0.006257641465872793,0.014271979850356813,-0.005969390206527186,0.07274496556439525,0.02062791930499603,0.008289795704262604,0.026383609735539524,-0.034380411117450924,-0.002474656025185203,-0.0541773440734745,0.06087924825550062,0.0034997034575362834,-0.006087376870847955,-0.02122489002074988,-0.00477789387636891,-0.06107980182214162,-0.008650935374152988,0.006206715782101121,-0.0026816441233506617,0.02379398918797447,-0.0008454661211236382,-0.009451365279206972,0.023286740763201596,0.007661562114126358,0.0023304757090540267,-0.002431263727014535,0.060998680800447104,0.016345057101193383,-0.017055527879030877,-0.04252993148655092,-0.02472082095840994,-0.003712558828542014
205.18069458007812,1.588104248046875,0.13963783768341334,-0.018346878287285904,0.004369829550728359,0.07180998819476483,0.10836197764565353,0.03449537447120187,-0.023069355052993044,-0.10031111182613427,0.005916293432368727,0.0043561050025939935,-0.0675693688312116,-0.05367106809587657,0.02325897183502707,0.08510345045452575,0.15499605495503654,0.020890804713652025,0.02829999021289119,0.10267859208257614,0.04502096145146039,0.1009362397518573,0.11399494778137054,0.03250262412509637,0.050102519600408006,-0.04336810434475819,0.004704582145293211,0.11231278616116627,0.0067798289002254375,-0.01128568646095179,0.01918670919355306,-0.049475503732266016,-0.07628915527456062,-0.013890745162212254,-0.22333889571333268,-0.0570258996850813,0.05301446831274288,0.042361511516905884,0.10852690272940031,0.11110060519170496,-0.09545101098987938,-0.004862425753617602,0.20074352490525105,0.1209789417832415,-0.014155998254010376,0.12466983966301962,0.014864086041265712,0.014155347617854683,-0.47360617110687847,-0.32438585435066375,-0.18493226488832853,0.22183268570120893,0.029842827389391216,-0.16706311603943935,-0.15387581615012264,0.3090028027123315,0.038374686074253615,-0.006278831034651772,-0.08277030554343831,-0.12565888332833844,-0.030743224769315094,-0.041912596855178806,-0.3785228496853897,-0.06960560735352353,-0.03591089872920372,0.0002586422551767137,-0.009209093384379736,-0.05021473391260227,0.02182764937299748,0.057368580683688025,0.02923041340064016,-0.0385191483741607,0.0008408246569718758,0.011490108305238658,-0.02448363617757367,-0.025238055515861512,-0.033202352014876604,-0.016421814179647817,-0.041821890808729945,0.03166322509765122,0.024890413548106144,-0.0016318461063965439,0.06581172080904814,0.0008806139598879863,-0.0029284020747517925,-0.002359307362869563,0.027539241627325958,0.01657009397610611,-0.008169609995761749,-0.0024952303515115093,-0.0004881523147916001,0.004142948728262683,-0.04539026216739658,-0.00904213888342547,-0.0034594104043783225,0.038991409641106006,-0.04817879410857783,-0.013537248782640532,0.014823124028619829,-0.0013789981446102443,0.014346387878566293,0.03500089729358803
206.768798828125,2.0370941162109375,0.03588154166280975,-0.003381540875718323,-0.014121829406655604,-0.05288062424514248,0.07079381552656155,0.07094423891751589,-0.031860954671777006,-0.008872646407225586,0.006542525382751491,-0.16974575176772252,-0.03574906032818358,-0.028009192906250348,-0.08111312892588282,-0.04836414217501564,0.14422579284486053,-0.0691241313327034,-0.018239964323351038,0.023724750893041283,-0.031579074202916224,0.0260245916319522,0.21096990612988803,0.12012080258418595,-0.09437843552633218,0.11889275273060798,0.07935898792871617,-0.18140215349998623,0.16464107603467465,0.29368080520783424,0.39787713519916096,0.07883052154363335,0.10037755579159502,0.13452427724437344,0.13796743483061769,0.21824294288484752,-0.9336420597567611,0.5343755727617527,0.21255276205925114,0.18810276862139538,-0.12127128727155621,-0.1951229581022319,0.12497449165262989,0.5282026280321657,0.08437370828342605,-0.11031915026000047,0.021370095657287203,-0.2278056940686835,-0.347785974199715,0.3262665801945877,-0.14059875687003315,0.3994760355321072,0.017662009805192544,0.17572845702674994,0.06944091876997326,0.2024028078229143,0.10616575516300213,0.11001062399707148,-0.007094027689780152,-0.08570593673565872,-0.007849383455064668,0.0885811138982334,0.00014438058578293556,-0.056963941817004024,-0.013433545449316783,-0.02147068686600465,0.039161994065518534,0.03328726909635359,0.002559498849592654,0.032882565662088026,-0.021183927426173324,0.004649513004087928,0.019420957412267802,0.05295236301696679,-0.05983263530026023,-0.004024890500418402,-0.04714290159482634,-0.005524037973452439,-0.01288184202108159,0.018577711435275972,0.0049229209583690325,0.026892327451883916,0.06717531836412736,0.010644534903650225,-0.1038686574126636,0.0974310526927918,0.11083244083741739,0.007483337683468755,0.012599060794142714,0.10010328485515678,0.005364665253744811,0.01932171019289703,0.0021890272022331006,-0.0042265540102599305,-0.1034486648206313,0.048519022301311554,0.007004282221998299,-0.03059282437648472,0.13110872563222067,0.011406729678327633,0.008718935762216676,0.09764528965682485
211.99200439453125,1.638702392578125,0.10451858669242169,-0.0020137461194106665,-0.020263496173919905,0.007444111664694009,-0.06007000508609748,-0.010201254576044252,-0.02140380644969977,0.0686662757812424,0.012925003517606172,-0.0023747668783937153,-0.04559340907429077,0.029036366664060457,-0.06352796458650094,-0.01925480253750045,0.06941312304918595,0.023869752118100353,0.09906913225232072,-0.057831975948335494,-0.027042910572007542,0.04491709191511061,0.021797952482121234,0.015882441022573163,-0.06207720715324682,0.00802480869777749,-0.007357713913780318,0.0016084747442915671,0.05531543823040584,0.08682454796374434,-0.010468680973684448,0.03113203494087235,0.3176463854610906,-0.03630608514304037,-0.100951896475271,-0.18608993436298438,-0.08263542277412624,0.12977611662788432,0.016667515787013573,-0.08913691276772841,0.04137897687836817,-0.12336994969452252,-0.10092855522610304,0.029790579127802502,-0.32133016003174675,0.03495412072962827,0.035373619743175724,0.027159812305591127,-0.4602568677888786,0.2308402558835751,-0.5046054691724825,-0.3165787187785132,-0.23930468998673193,0.2568845761124209,0.1363687977880089,-0.04314151217217219,-0.06536471052876443,0.10853224840082559,0.05131979522479538,0.03298737397925522,0.0787509121665064,-0.3235288333919855,0.013396877575972875,-0.012557461956955882,0.08950233123997198,0.03168986297731126,0.03252869437821939,-0.019730322675439848,-0.015558641973155981,0.000372321937133953,-0.030571687702120057,-0.033181686989466073,0.0025560881842750568,0.022325696069824055,-0.02755614659080544,0.0012147194626753947,0.013786287056749606,-0.018637002108119645,-0.09893236864783579,-0.0012316022179824932,-0.0855323980202034,0.020914494833160158,0.08819669912606373,-0.01394201096729565,0.0032884505654098167,-0.07508991858787156,0.0897739331269013,0.0023210481544809628,-0.07540797400211749,0.08432471534723301,-0.03945242631623002,-0.0046460800903686105,-0.005862105012191084,-0.0024893827456140467,0.002744496932882829,0.003628045482589049,-0.004154728691796201,-0.01464574455194502,0.007189157785145466,-0.040273996630272604,-0.009183813217008611,-0.02347319489351142
213.63070678710938,1.6079864501953125,-0.022258710629765942,-0.034936205227366006,-0.018966969696025387,0.11852380658493764,0.00025635526771789196,-0.030201140786535238,-0.030059261089467583,-0.011214044904180953,-0.04190206004047558,0.05303536904297858,0.03882533068580475,-0.1447207191958587,-0.0644101404996613,0.039246197679251076,0.0006352856727741903,-0.006061414314010007,-0.0027097025728728763,-0.040371992934309445,0.04008691342709138,-0.009505644445467238,0.00818100392134824,0.09802545992782068,-0.039286814767705396,-0.014904936344712554,-0.00382880195332251,-0.02140253542187518,-0.13727661253336962,0.03502549243147195,-0.005986681068317859,0.015117304213613115,-0.00914220049455452,-0.16729009003093026,0.08024242571266435,0.05176168641969133,-0.05936830440821221,-0.0316989195178108,0.12994711914755191,-0.11627742072808846,-0.11279993008298228,0.218811079449434,0.13341775485127333,0.050352248059860924,0.2575602790298467,0.108303822596157,-0.4653483447484069,-0.523414680976653,0.05162016188336202,-0.20985808599885433,-0.3831303861231562,-0.36001534128579815,0.005967349690273297,0.02437711846270322,0.7244004164699198,-0.5955669926960173,0.05194625595235742,0.011786958364189894,-0.029144737773644513,-0.18557204426249194,-0.16099444450920825,-0.004687326948638258,0.039759657070389774,0.0674676294575449,-0.009465878666928069,-0.041019117197731214,-0.001173879345306463,0.011824589526669125,-0.01836775986159945,-0.11004961243811537,-0.0031519394861922842,0.08405668294669746,-0.0028177009014729018,0.005100905503167025,-0.048172192092189585,0.009167520992103198,-0.05389661395321217,-0.05778551922157408,0.04186168877611028,0.006663381086362354,0.05419281081536968,0.0031462079464154614,0.012055419809698015,-0.007664789413635853,-0.005307458371822076,-0.13075565353212146,-0.004174627065408969,-0.0025978328949006766,0.013741627500402757,-0.05758529256927564,-0.002086660931579797,-0.000775858888419848,0.008904182893013183,-0.0960895463525793,-0.03448416196245552,-0.009543505063510314,-0.001116347341895483,0.0452625855482402,-0.01641819370730041,0.016755915940774517,0.037243945918728615,0.020680401287256994
215.2386932373047,1.5477142333984375,0.018984162179734247,-0.00801119074397616,0.0128536982805573,-0.015350382859345152,-0.06154540310004406,-0.03203719327930425,-0.022597917731917785,-0.016538177260877026,-0.06164912073282277,-0.06706953837261943,-0.014166234806531064,-0.0002172594210713014,-0.0020246073454418907,-0.0043660218621135415,-0.025878751557855937,0.04377269398608339,0.04631563328902631,-0.06220229782045266,-0.013237974905592649,-0.0041388928064903935,0.0010420463253175984,-0.00395716521476758,0.05838690901100914,-0.1017058562500827,0.02931847310677576,-0.002747278937984978,-0.0043381164870950764,0.005002678341073767,0.013796819227883157,-0.0740455156991233,-0.0712151479700143,-0.0486464393299852,-0.028087888241520143,0.07936362481925069,-0.04203991466884699,0.1483950191654258,-0.1470953811355568,0.011153147966956427,-0.3513462833627909,0.05788885125501987,0.12162789118751369,0.12744800753771862,0.14007877263231877,0.40240204560585763,0.11550765028376205,-0.11556993564831938,0.6415794760616129,1.0606683302407627,-0.16518608391210884,-0.1344812381049776,-0.7653300522615858,0.14976357134704532,-0.5038552171058792,0.08892533100440987,-0.31719738345743814,-0.04443466353403911,0.009040096602170125,0.0028659349677048534,-0.004616859258250553,0.14834118601095417,0.0947892292669571,-0.03278234533117744,-0.008999981501559364,-0.021332533161003774,-0.0035027207665294887,0.059015592875029846,0.12543999087929453,0.0685632586667209,0.0014415354323252133,0.0270647499712543,0.05312205176819929,0.009431415033761787,0.021348660073981573,-0.00015280587473073598,-0.013164198400634106,-0.002956289525996786,0.05666303377270228,0.03667802272145777,-0.029628517069681615,0.017154471827488804,-0.0036733821386472723,0.03365004213138015,-0.017690789980835817,-0.0015340720316723904,-0.08034144213493341,0.014507677742270934,0.05866568562968273,0.05565939869311538,-0.04456704030485725,-0.033491784644519504,0.021401716322756698,-0.01780602746789396,0.0022576550269569153,-0.0021283902333074822,-0.10800091837183451,0.09137902370217026,0.0009282196024296346,0.010131948657807147,-0.08505166939252926,0.013594364980586816
216.78640747070312,1.5485992431640625,0.01002086933553789,-0.08100880248582905,0.09335142331715192,0.07155954152165325,0.049543345951107876,0.0428629694808693,-0.049618225800753084,0.00366360814691377,-0.00025949053270983005,-0.07006520534017942,-0.05772642916043675,0.10742585396927452,-0.0012251686430765469,-0.1199182936528942,0.06367186017086401,-0.006401794160015016,-0.05037952981177292,0.03600618621933978,0.022413126534365654,-0.0702931650240687,-0.12349722574810568,-0.006756927575827053,0.03707404855494203,0.014262753984336629,0.010060387980977338,-0.21931907481587093,-0.0910041140984086,0.03297648632879406,-0.09037019333070781,0.08159034459457846,0.0008859212173863949,-0.08697362315480783,0.08732007123988213,-0.08324688094923849,0.23517617215737,-0.07007084469396802,-0.09867943333265766,-0.26565013342821475,-0.19791698870737442,0.22330524115932973,-0.24767953102119997,-0.8985378846596721,-0.025446076641194568,0.32409170706848445,0.1181357869391667,-0.041814262395817814,-0.587891414928173,0.1139136507258934,-0.031300988613736605,-0.2616995616154672,-0.15481270288247473,0.41727284157457994,0.04705396188169001,0.039238407281294366,-0.1246638015743674,-0.048732279975472304,0.07387976230851286,0.06966472168513889,0.19986922675100496,0.0394655991640785,0.011652572528277,0.020286801534828182,-0.08937282498802945,0.039138614059281596,0.07346568892400814,0.057945772282337694,0.03466108944519583,-0.033057812005520486,-0.007682075927943224,-0.033711157140170374,0.04780710376297753,-0.013462510771332332,0.04579811575287606,-0.01589773254301866,0.06951750755248097,0.020119887644921085,-0.04378422756352723,-0.009567013885859038,-0.08143304531050281,-0.05322043033135357,-0.005137144343966153,0.05951024612215741,-0.016410827136025968,-0.00675892112357936,0.037899260360690155,0.00911967179556691,-0.06354357339631475,-0.0211016391170825,-0.011666084245850418,-0.02998251184964491,0.029369357480922145,-0.00805603876961368,-0.000824856429690185,-0.09478986489300578,-0.07983271525884136,-0.020608450379929453,-0.00815597949859548,0.03958161446083804,-0.07658016575626288,0.014895905312018305
218.3350067138672,1.538299560546875,-0.1277013705944099,-0.04095639163373045,-0.05830215019472596,-0.07135378941955016,-0.0933954398979415,-0.11132259742860443,-0.058973055222153,0.06841476552273432,-0.003645787838797882,0.013973571647671504,0.0416905041837232,0.014499557012533939,0.04036096441598569,0.0981578153686127,0.01401941236919814,0.133571175297274,0.01047716290462253,-0.033743642671268836,-0.14505097535460965,0.00853767660337075,0.051631808430998204,0.3072682379091266,0.05481694655978588,-0.2108462349513664,-0.10256018661436027,0.13536304279971478,-0.053202258522873386,0.03065140399083005,0.15323533072977483,0.16760745683856973,0.37729073364095317,0.017605171210982595,0.06414051013759474,0.08310141736312168,0.2015645570146842,-0.01566879075647367,0.3884170051275684,0.45873218997406884,-0.04970827065390257,-0.11079267463992082,-0.25272834990013227,0.13835794076227975,-0.07486889751959881,-0.16246777184385797,-0.26813422560889355,-0.19264325785751907,0.41766480802326555,0.27998806036494395,0.6599431185353978,-0.04014911044303293,0.03214687493053321,0.03469951850666851,-0.027033309792165425,-0.09311067349064321,0.22219442309463977,0.3507945556549392,-0.24120502902024782,-0.07427611032714428,0.002869117841825039,-0.016127654465056675,-0.008844311398939217,0.0063466666185542685,0.053053172190563644,-0.0025594294268410644,-0.07841787428676306,0.002771771225326066,0.05868081547949177,0.0029193520879851366,0.03157384661173122,-0.0036714499064005148,0.06453577019871565,-0.011463788988952303,-0.08484236505854556,-0.03623087359450376,-0.01601487503463966,0.04697716754798306,-0.025469952473043074,-0.0032025949091002374,-0.0071902465800661175,-0.034701977891426435,-0.06258947168808643,0.032478566600048074,-0.0008816596827223946,0.0063194260580799865,0.02106995467143498,0.06402855456458639,0.0334564373282195,0.00782920073700485,-0.0018808569061709484,0.03313575882272273,0.0808395279890549,0.0032956504227607524,-0.0029304258728897145,-0.004389617542278274,-0.0002062165957224907,-0.09978468391958376,-0.03279764489128022,-0.005465485300376491,0.0002972309763940394,0.031351211766552436
219.87330627441406,2.7765960693359375,0.03226045230529056,-0.0014158825816355401,0.009838555527405368,0.002520100070031882,0.08369548576887603,0.06019345182782014,0.008538365566513214,-0.025794045696391238,0.04653634253938156,0.04270542126489298,0.11074007993841964,0.02749840280182643,0.0221988975664984,-0.03565678387304495,0.05276200376609927,0.005455160393289316,0.025903546027387307,0.052518254966600675,0.06560854085611796,0.03538107051281706,0.13503899496561608,0.13212357768042013,0.011056899691243334,-0.06385510462207475,-0.1388585667360145,-0.08869729703322217,-0.11485712010692435,-0.2812237515243048,0.12516461430013878,0.11992434544622697,-0.37008130448132237,0.39494215333857724,-0.18605855219126965,-0.01880172551090037,0.037582356699760615,-0.018379168150459466,-0.021898867328833223,-0.05136352370976202,-0.32953940563527934,0.044392964144124664,-0.09493385649794077,-0.12312910342926443,0.19279833338462474,0.1919005916663862,0.044818258306566855,0.1353718536258499,0.49889072848269556,-0.04420686892728423,0.08645029235617319,0.05694204909816992,-0.0028157400643025604,0.3890629969937834,-0.11690351921704906,-0.44595047751372313,0.07296823552946838,0.0681273782744114,0.017862574199471414,0.029514198106516173,0.0005225092260964813,0.03492530780496189,-0.035274391867246103,0.17955087512079082,-0.029912171849712062,-0.024291851976660526,-0.03462043024883175,0.08403164126798268,-0.027427067212910414,-0.008776708945411625,0.04025194391532612,0.007577075178770662,-0.011666148799196578,-0.01481133824486229,-0.027129302680031213,-0.0063528510218245635,-0.01012415035245899,0.009723048276411697,-0.02205787689559489,0.031859924589011476,0.057166695329280696,-0.014579348243575202,-0.018709006472202302,-0.08299543145222475,-0.012842313176324447,0.002500988953121521,-0.0855868122951803,0.002003721343331805,-0.025834824116154054,0.0371119545692472,0.042427492529080395,0.002414206016038232,-0.019527931904853607,-0.002097377554721645,-0.0033708721961136223,0.013957138626923537,-0.09716987518797994,-0.04302105983439641,-0.07482555058081343,-0.029554974522476646,0.03282805589394212,0.015068909067294727
225.57650756835938,1.5181884765625,0.07253307283447204,0.11535009273755689,-0.013822721770494343,0.04864261472964583,0.01849822393286805,0.02006530586354594,0.015189619402988297,-0.027201855288084154,-0.0005847343818526059,0.04806429587610608,-0.13859368268810943,-0.047055369213998846,0.05556770719034644,0.04822273975254111,-0.06366162646270512,0.01922386462757121,-0.10342153778019582,0.0015591092020216378,0.00966656852618511,-0.009395756393291271,-0.07684887912521729,0.006824403309697772,0.009174651622220836,0.043903636073392066,-0.07538663768538303,-0.06502792695440753,-0.006902727876878597,-0.0816734383733126,-0.14509769802794234,0.04866282963757784,0.01228924937668292,0.054756382029128435,-0.13091651068089455,0.053887189526487286,-0.16070238313355126,0.11739764642950545,0.164811610334762,0.17286816582015851,0.0992546501625879,-0.03362433992323903,-0.05144146478414273,0.4997681375105021,0.41411560588777474,0.026806931476971274,-0.1340274460407334,0.4828866320628482,-0.18608478463389905,0.03435919561902614,0.05636021873612479,-0.11548213442716894,-0.1245375465584207,-0.7559290203242142,-0.1658683818780061,-0.002908459430176283,-0.06607430623764042,-0.15186513042749405,0.015081985833221415,0.11487791278215126,-0.6069137867164512,0.07261399820357987,-0.0007463418177615375,0.0033626675806854717,-0.005980496997491328,-0.013883062201773209,0.01374131919928898,0.10739215617668371,0.022667844551612526,0.004501417657240392,0.00639135605827576,0.002632439972988233,-0.025994516625217144,-0.0027614495215152785,-0.10232901034469385,0.029458225332711252,-0.00488995205526033,0.0611968619893403,-0.01596301370851067,0.10700949266527016,0.04266456138694667,0.06398591228213324,-0.10174028803749066,0.04186427664831528,-0.03730345888620243,-0.0024374517957774723,-0.002554064861461585,0.0483900717675166,0.04061450157734701,0.07178428131079316,0.05285200371003321,0.034912075789363825,-0.03679385494916283,-0.06577619642061348,0.11406448974805843,-0.01815669537445978,0.017697317246456873,0.044242227595218654,-0.0226565126599558,-0.02446620608184004,-0.0007825305410812597,-0.0200523602524647
227.09469604492188,1.5579071044921875,-0.020285247136957993,-0.0016658521766742857,-0.0015565468239511905,0.03510979147961027,-0.008370822930379333,0.041264392695134405,-0.07170938676713434,0.017696572726313625,0.06115918140769251,-0.05359280452565289,-0.13151011006104488,0.014101457014781226,0.07538202826524472,-0.1022397727627562,0.043958306702654035,0.046097989216911106,-0.09499765135013682,-0.010988498084180232,0.018514369354391595,0.0036070263678331764,0.01848995055603569,-0.05060411135575239,0.2607330537105201,0.056811000255001895,-0.0041929653648849026,-0.10736826302845742,-0.002288692208921545,-0.006777933724592795,0.014846880960512534,-0.09749352126097818,0.03424392770989418,-0.06810307901525048,-0.013962790647986376,0.2623775102720248,-0.07737730883635972,0.23522867086642713,-0.13152949982799647,-0.2286224696097506,-0.3719904634016737,0.0922978580988886,-0.13068263916104636,0.16019769475768444,-0.14735574151074113,-0.2372805509080275,-0.3839309334339123,-0.45837288007161303,0.12510903999390582,-0.13436167926284065,-0.4344608745221933,-0.4054036074903333,-0.09240515820708226,-0.30494725522047295,-0.7125199717695782,-0.3342812596201939,-0.061502519932870335,-0.08182119548369211,-0.05341054906195099,0.20778914306151683,-0.09330402801499284,0.07033085218650711,-0.03447763796676319,-0.007567066671206003,-0.029830462141339012,0.007260672588938382,-0.009761872081651576,-0.04631468673852002,-0.0473424364421901,0.06829388192831957,0.00043875075186110605,0.038160206586075385,0.10974358302543688,0.021008162125330406,0.0637659168762109,-0.08246832363914137,-0.021887762762759264,0.02235590862782008,-0.018713205247715463,-0.006542365230846851,-0.008710142131168969,-0.02760417597218827,-0.06712667470788905,0.0003353011721265969,0.055548269582173335,-0.012310676290764835,-0.0663343719887342,-0.04252155290689181,-0.004554234155915316,-0.022216971849259734,0.0031279583757110666,-0.0003455961511227089,0.016048786621716424,-0.07809981861489936,0.09222195086617174,2.7925136945013964e-05,0.052661260169037494,-0.038598969793127845,-0.0067510788054480336,0.0026287139646949116,0.04214974715610698,-0.016351300536065677
228.65260314941406,1.548004150390625,-0.01739892119943176,0.03152860864142815,-0.02017734552446944,0.02534450423235465,-0.07187588938938268,0.07886813265366154,0.006490639595057973,0.0975924434336468,0.022183476098137197,0.05647415585117318,0.17502952070192007,-0.014473088591463498,-0.12234365407145116,-0.1288010902465075,-0.06527327160221842,-0.06916073038824692,0.034025764893181966,0.1028840556946905,0.011924453373302779,-0.07310468613554554,0.002193687144903574,-0.004858794169275438,0.005281430358531712,-0.003259333515521271,0.06872834922696264,0.4008998402431098,0.10713844941949441,0.147223804832332,0.042522310456557647,-0.05121375612165535,0.033082321912135705,0.012251546117584368,0.07980119362352592,-0.02304480341077025,-0.19991442485671293,0.08110454493634764,-0.1417538764098939,-0.11229460756317783,-0.0707255009023405,-0.034793015866413896,0.08203470110067973,0.08011776364151132,-0.1987140214676781,-0.20923272494554457,-0.051388653107151544,0.2468201214713286,-0.18191184881467645,-0.11434386937924196,0.09525234041999486,-0.174023083327759,-0.6423899229188585,0.4849332232292544,0.10274413189364336,0.006319825202711999,0.04897138282411047,0.12465917740294377,0.35690297276017446,0.006619324549616459,0.053451458295811015,0.28913652909986354,0.7209813593702808,0.11892286721199197,-0.0016155524549302269,0.0488624377107906,0.014053056689537487,0.17736576886348818,0.021210328167533935,-0.02446560474515544,0.013424775411282407,-0.01275061374122409,0.028783253286195267,-0.031902611641655344,0.0030751618223250777,0.01912414406176042,0.01635066122889764,-0.0005007729863143485,-0.011890905087530781,-0.011897326007462372,-0.009657810140088981,-0.010621824390770678,-0.010242683841699657,0.028240862013099374,-0.023609342970581912,0.02299777062650412,0.008852575823953336,0.07253729751212588,0.024947786041681363,-0.07271732973388217,-0.040465090521021124,0.0893254905768295,0.059696089779586896,0.05030478321671447,-0.006846474976429961,-0.0027768219632656977,0.03976472874553416,-0.061155192726720056,0.01955189006320258,-0.032628426757629864,-0.009819788282585892,-0.019253123837201416
230.2006072998047,1.6085968017578125,-0.019567151112759792,-0.031276794323263454,0.04223245840477668,0.009784664067497131,0.028853851602988367,-0.011777370258281789,0.031251555327806255,-0.004209848430220972,0.024743772450208843,0.08751188913684142,0.006692822212114424,0.04658090167870657,0.08194981474310088,-0.09907099966485276,-0.11569526529723313,0.0888593005827577,0.08746510944997253,0.09561877451764436,-0.04817096877152728,0.006839436277971947,0.00954667939463001,-0.052898274501038955,-0.09634518309219132,-0.04651733618209366,0.00882520219727452,0.1271253284502661,0.007720107431122744,-0.12726623734176207,-0.031890780460596006,0.02742897747962588,0.1784764278394226,0.04591941967064239,0.05886977825804726,0.028036493582498143,0.05416258172062121,0.25594646768499163,0.0057032829459174594,-0.015077129394173465,-0.06919031082080555,0.4179549444285341,0.08408213886838575,0.02643519867767568,0.3296969299019896,0.1317089138157099,-0.02840063554956692,-0.249102067286491,-1.1163386249149667,-0.7615875133694406,-0.4044236958673389,-0.03874713201775812,0.06847668678757451,0.26940135905085594,0.7630975708805863,0.05559527070330714,0.2960424774902278,0.04488188897408499,0.008847508730670299,-0.10402641855583161,-0.12338372062710354,-0.1299734025190719,-0.027272542437976846,0.0053541336888397115,-0.07429957452629349,0.08952624564688648,0.02301371290725427,-0.032259476371725916,-0.010299170326269343,-0.025235479227328796,0.050042227632843064,-0.012769484345182835,-0.04910457826194575,0.011182613181787317,-0.022378468632137452,-0.02874641991639719,0.07979710601470215,-0.03613430812590286,-0.011668681538222562,0.00020909943322397484,-0.0006079887379047237,-0.020033144592455608,-0.008843189882311068,0.101860214135688,-0.05185213194342552,0.08433697457286805,0.007945733733855247,0.014485819480858622,0.011411003386023813,0.010973367703609805,0.01950904072299151,-0.06873205259804795,-0.045319618831417025,-0.02363191416681521,0.09181270026131445,0.09493964077447332,0.12834620417792772,0.002985747733227066,0.010209548766171955,0.10890265190803006,-0.011936882925512409,-0.013747080305768995
231.8092041015625,1.5681915283203125,-0.015191251966484142,-0.03878472215719482,-0.01435170516526502,0.0015294493590551656,0.03026591719743985,0.05068810113704283,0.011187378497677241,0.03053667396685198,0.002237911816621325,-0.1065667434609111,0.0008434942451350064,0.21327039205823553,-0.04208509967793718,-0.01108355218438481,0.007071384837230598,-0.09651120351007514,0.11246996186036154,0.015547384985962937,-0.018987286378044782,-0.03314699625331059,0.05971242113000317,-0.033428637850862766,-0.028679848283381645,0.08000522117998984,0.0867960962789859,-0.2532230215247997,-0.11008490698481736,-0.3452715574691661,-0.09622592770033246,0.32522230524520035,0.02203105346202535,-0.09620009290587378,-0.1972847750854147,0.02724451921046877,0.41749299053248423,0.06959828988231712,-0.10649491698937084,-0.22455486781696118,0.026265352415131272,0.3726130897307965,0.28350636168005344,1.0365482762714693,-0.08353056937823368,0.042602880479070473,0.4042133728785197,0.42695146184338534,-0.14432542478101928,-0.2455081662343302,-0.01872571578731183,-0.22186012851261205,0.11770568138920418,-0.07245449502544754,-0.0561262446325812,-0.24473343289350188,0.3024014570337321,0.13624670144079515,0.20873830387358944,0.013501139000214955,0.011242975572196948,0.0072162582862484006,0.019061847140297895,0.017191305716270838,0.01172113105051778,0.02045041227673856,-0.0004425530494745625,-0.013932873979226601,-0.04786087213420944,0.0719251687528162,-0.00753211176765092,-0.07046206650999463,0.0027921902914906514,0.009618155920449848,0.07199991509531975,0.06458751392243255,-0.042031123425820355,0.027420063323330576,-0.03038266921368425,0.014179534487655392,0.012579193832036041,0.008446652221523302,0.016902651641865083,0.006201354555239491,0.0008001792827541748,0.01876265723296565,0.06975520840551322,0.027483179854839904,-0.056932753454213156,-0.07148737199075969,0.014242146499657327,-0.04032255272340795,-0.003193496945404139,-0.004327843908313825,0.011713736473885277,0.03828645955973023,-0.10403550520921367,0.025838338836229248,-0.03539497227560357,0.01949649231686628,-0.006703349604699231,0.004539575988867209
233.3773956298828,3.06640625,0.004005715817621769,0.04151062697794168,-0.005265892437858559,-0.09047934785155853,-0.02341407002564704,-0.05025257998004662,0.046240850644026,0.09305098736720845,-0.04237946931724742,0.033662932566014776,-0.03255803772786112,0.021427610741726437,-0.002674471205820814,-0.022137042888144835,0.015129065293732894,-0.1187213294972321,-0.048843158487354,0.12443199777687858,-0.07080410276738769,-0.05777340176592922,0.03326845185729736,-0.01859072270673407,0.020635847700584967,0.04345705394444844,-0.08537602484291133,-0.12684748650241573,0.07765002821672289,0.0053248275388039605,-0.009271759857915216,-0.14333368958673653,0.004091922959925375,-0.04265278505796273,0.037528725045924256,0.03272836542880523,0.04001095639677124,0.11399629820294713,0.01817816805896246,0.1094428086780738,0.03401824715983427,0.014623341177071182,0.10892068486950957,0.08003250368178905,-0.13992446845100553,0.18965344568538678,-0.20267614536924863,-0.0950123839459182,-0.09807153323042322,-0.4944445237527923,0.047250359566386846,0.7812792381677071,0.3195300635288589,0.012424432894292547,-0.382239175912966,-0.14639760664106474,0.31307446308202375,-0.05606741442963389,0.13524467797874737,0.03595990053318049,-0.016815897781716334,-0.13850418848942106,-0.20932906910836152,-0.018965299080082865,-0.01987739670167638,-0.01342815121397168,-0.02790894136472001,0.06612405575015315,-0.012324404077159762,0.012833172697842647,0.004181369638392075,0.009739008581738534,-0.06319222930245381,-0.5060338098871563,0.1577956496308507,-0.06632758237564197,-0.010633284415926219,-0.01546229902760643,0.046097435838283025,0.03548043896966777,-0.02873653312637903,0.00627614951919665,0.020960897793327375,-0.04682844072841551,0.00279103465818676,0.01077139060666613,0.002683497657921937,0.022845689160358354,0.004573735959284476,-0.001079786411215857,-0.00148765570276186,0.013048773553504192,-0.001419886880040139,-0.06828252943037239,0.005623203821772615,0.01563677925776587,-0.021330830612628783,-0.0399486963965058,0.039088098887131065,0.11085086216082851,0.0012750254957010708,-0.0033972036077159025
239.81979370117188,1.637908935546875,-0.0168277403207317,-0.013690158961264567,-0.05863431365297738,-0.04959321641371559,-0.02488565273299964,-0.057485525896558386,-0.007740615373058354,-0.022561794605379597,-0.11224754588787594,0.0551981956858183,0.14786520205073883,-0.0003504166020738661,-0.01897908944477708,-0.008072111881954775,-0.016417658842437247,0.016477029362551583,-0.04116379482405821,0.05015892333931131,-0.11789054788815707,-0.03484091357479806,-0.03785510294356186,-0.0785788034202352,-0.009987554556272912,-0.03771581942220352,0.01577849288610774,-0.0018017811870080433,-0.003146603476799525,-0.024890321418106064,-0.09507271301575315,0.0053752528955257756,-0.10889411331823126,-0.15627698600124038,0.07705278247643015,-0.024397431292764633,0.0641614599943055,0.08523019105001683,-0.08644563770432119,-0.016446089117168407,-0.03686972520351764,0.0017665872539631838,-0.0824467157687184,-0.0734468740579473,-0.027338992932827513,0.09950679665456727,0.155458566319082,-0.19503881930699715,-0.22164116489364932,-0.3796123950554273,-0.1968470350057129,0.3946696907927864,-0.20503213312975058,0.21497416149334142,-0.3938437644911518,0.35840539357503043,0.6593411371482224,0.09025509795621925,-0.09923026208929549,0.02135828728328171,-0.14654198673836458,-0.10158847792440322,0.07102026818957478,0.006064864135588206,0.19260701236039923,0.1332891300951432,-0.3007978863847314,0.05974231945291003,-0.04175338489415947,-0.09081228500640073,-0.018937907341839644,-0.014149929235733882,-0.03315807406535372,-0.07896357887541042,-0.10972967326056168,0.016713250191787186,0.046573475987397646,0.04322433154522813,-0.006367480326123141,0.036115565265301804,-0.018987461988332975,0.008107501014481294,0.05904357210998533,-0.051555024313886894,0.009655488182873099,0.02437264274906356,0.244509626815046,0.0064046864310903845,0.009091535884791386,0.0026684475215890133,-0.06436600246929496,-0.0028063012147402423,-0.0006133741082983916,0.044466048230837586,0.1011217691805675,-0.01350941519453275,0.001661915638157584,0.03222408336783772,-0.010774827110464277,-0.0006155960218390821,0.0006350325236311937,-0.05191427465887566
241.45770263671875,1.6183013916015625,-0.05709744823433602,0.06064185535318295,-0.13177312767689095,0.06058896236279633,0.03723305305965416,-0.038346610839085124,-0.16478483763260993,-0.09848183490196785,-0.054371855106730545,0.06811234729317922,-0.06714973799323036,-0.09137298272641145,0.027404834065097805,0.00222871172145753,-0.009219760667224861,0.012878660820607138,0.015204375981205196,0.06553386817781537,-0.11860300274768651,0.019353144168012124,-0.004868499721694844,-0.006788264961364535,0.00042368946148068335,-0.0011978106630624549,-0.016703798079086007,0.017042805357365215,0.024796007202056297,-0.14121217508404865,0.01604323696708364,-0.09247935809411259,-0.052814429409071516,0.03636978793336322,-0.0515178014000197,0.12446385085397604,0.015352287456578835,0.06660659203307649,-0.06112030430737435,-0.08333210269914641,-0.12076046853125899,-0.2772036837240198,-0.06005308349035168,-0.012697016208286987,-0.5869837839092241,0.15101505875262,-0.11474839521485629,-0.5528227561714508,0.012420857309793733,0.19492500762215223,-0.24675634573590874,0.036394043646314,-0.05297334462610022,0.24384187719544967,0.06385607574437697,0.08254138587030894,0.0366339359529166,-0.3927619339319688,-0.09695508260397714,0.41695145134266154,0.0576063429074279,-0.01103445002915392,0.04064802808948526,-0.007088816126322439,-0.1160374134509736,-0.2644550513397723,-0.36594693854651805,-0.020300249619956287,-0.015018133863172344,-0.05903235185440564,0.025085931612789835,-0.010350386705783053,0.0018602576721794399,-0.03097174826563156,-0.007824534289246133,0.086703308094393,-0.057008732810910664,-0.08512442744630624,0.03772617449847333,0.07247478028008732,0.0019699565239054873,-0.046626044544546545,-0.006081473706845664,-0.005134545741777277,-0.04549527811942115,-0.03601397704988043,0.0032350039262615676,0.10657108281749728,0.0023462476944750366,-0.006590599272471367,0.020197761932049224,-0.0694123349412756,-0.027075443140795186,-0.022255005734401777,-0.03687491008412811,0.1176916897162627,0.006081167095656578,0.06561930638116635,0.02148039919436708,0.0723571013925792,-0.031192960346329936,0.10152931619391029
243.0760040283203,1.6476898193359375,-0.04063152986997076,0.003169257057031637,-0.02530954535525698,-0.02278002010156692,-0.05606853743275883,-0.101019523114878,0.012838751158822992,0.08780726900857891,0.00033953576474370545,0.1780741782781191,0.012848366278952878,0.006364426927367092,-0.06866199807145497,0.07416620216544155,0.15833480200686897,-0.25595416067566373,0.14243554673684689,-0.015697240183535858,0.06255845238511142,0.07433533659930894,-0.018384507757020885,0.04005597745803714,-0.033320138917262626,-0.10418711140568396,-0.15192602026861193,0.10447960985887439,0.1979030580276938,0.10733958082866953,0.21912966485656074,0.20432535652082792,-0.01783858919154971,0.036677016794912004,0.07633913688980387,-0.4648715542694716,-0.1285531123221475,-0.006191961686702954,0.05268061544810788,-0.10562738097357079,0.3853761867355135,0.01187922721436465,0.026133345102211856,-0.00325273291464543,-0.4690939036997011,0.4750858045533025,-0.17461569030044666,-0.15368757550352394,-0.4470766849585987,-0.25347809307806707,0.11219133236109857,0.22560159074005137,0.12140001259192681,0.366897068694854,-0.10777036003457549,0.023064536040165815,0.07529056283393105,-0.23546704226550463,-0.12382875979935294,0.0607870128109181,0.1902600425452481,0.07392619045822152,0.022137589393645487,-0.0003615851441295101,0.011624027885723821,-0.007333750223149916,-0.024637146728207788,0.04675874879367972,-0.021880848502411267,-0.04354632433330622,0.002115744455943291,0.018369682485740647,0.0066725287427846875,-0.0016609988444788665,-0.011547571512400774,-0.008921956577757338,0.019519377454006764,0.020992838413184337,-0.019973958817547294,-0.003706483967754754,-0.03742627042868782,-0.02904571235916617,0.016329016120682285,0.01415107895776647,-0.03915903993225905,0.0007262855689301552,0.005728404705281049,-0.028753266147364252,-0.003581252140959939,0.010217158628904117,0.03235849657806878,0.002471723985022924,-0.09031084824916161,0.04525127876763541,-0.021685184336030613,-0.0065430012783888785,-0.1071186230951249,-0.03161502175977708,-0.013704336311146821,0.0007266526714696903,0.008425559930932443,0.01136544009942865
244.72369384765625,1.568206787109375,0.009522291893752076,-0.13891829809146788,-0.038417280907521424,0.0038620889282622375,-0.06493187598074951,-0.07032222514182343,0.024732131325786028,0.0790248598985607,-0.0879369027428563,0.021088488116103758,-0.030998976641582836,0.07825111575378593,0.12394251284361578,0.11360891005012183,-0.32679417792016935,-0.048352644604053766,0.02153653529130217,0.1125661331491189,-0.12126955888268703,0.22149978987704716,-0.1198632710767761,-0.1656196092589907,-0.1451590734333576,-0.20326537729806726,-0.17784245184526742,-0.3467893904669714,0.016174437043529666,-0.15852079128186577,-0.26707036265489675,0.008605246584694859,-0.014238593867756999,0.27920926508210797,0.16124236144023804,0.03967975878674098,-0.22745772389892094,-0.3510960681073217,0.056697878339216065,0.08121527446505558,-0.27223346505211177,-0.3746212184258797,0.1034564663036472,-0.2090194174437436,-0.27998772984045006,-0.0064452591644496154,-0.011895863400704546,0.07148249986306383,0.2451035905980307,-0.269092987584005,-0.2528822499451,0.0816656186150283,-0.05921785430363608,0.23230579646931393,0.24622065283571581,0.4933213625645348,0.05839128737631838,-0.022317828388800236,-0.03533691889130383,-0.09241305614809946,-0.20465808093031096,0.033119536424893264,0.0011755026221235585,-0.05935961907263611,-0.012692848311751763,0.026909937803818382,0.009950557674005215,-0.05910897389592898,0.05072695002887803,0.01382357395769727,-0.06981728943701962,0.01699089256615325,0.08196991246683805,-0.0024947342933179725,-0.015268511755811263,0.00639124755010119,0.11010864695710723,-0.01574603491690621,-0.06093244592494274,-0.0043803155959992665,-0.0873788917631409,-0.005955581951252496,-0.0065601159297891554,-0.017288912839377238,-0.0018539682365989602,-0.07828920490391764,-0.00964495092755832,-0.08961148932893466,-0.01560526381032306,0.07495837221524188,-0.01828778232123645,-0.025338859261755445,-0.019165362789836462,0.0014539152844708187,-0.01088619521149136,0.0072771150697563194,0.004090606001536156,0.03246607036308922,0.024807322071087844,-0.017790820418132892,0.042953677528403345,0.05089660760035077
246.29190063476562,1.5279998779296875,0.055520372022915744,0.06963760047177506,0.004778825211763311,0.05282615009102427,-0.022821597087424057,-0.05921578913675322,0.0714636840419786,-0.022334530091728706,-0.10823376252455798,-0.02930464266608932,-0.0217135262262009,0.07993682490154862,-0.0606753153682045,0.0013076334414954256,-0.055649114665393795,0.0634315409815554,-0.007699591958204299,0.01359359934937185,0.01812312411450951,0.009409926037885385,0.032235087774543064,-0.02327568717702429,-0.09593688711488342,-0.08646660081831746,0.07261005886032759,-0.016549505568043243,0.07129533485511419,-0.13851237222223273,0.04504831039230925,0.016510513838083142,-0.07447327970171361,-0.03644218397444715,0.13235644201021401,-0.1158659899270849,-0.05073220542589087,-0.07749975126833596,0.08450909596493524,0.0776215588974279,-0.02481938340594202,0.017663393379855438,-0.10079031271583591,-0.15045334519738798,0.12645478199046073,0.2582192812145276,0.07376758068758615,-0.3717659980318909,-0.0068846467959461435,-0.11877844990048436,0.6970185067882666,0.30798629667531935,-0.08296223339030792,0.6779533719876958,0.5674314385962929,0.15581680051697164,-0.03988792994746092,0.11213806354778824,-0.0969075306084228,0.10856157363398616,0.0479332767055381,-0.007184440614708288,0.4705429899529933,0.13615279470134878,-0.014039414562259798,-0.0073199933648417015,0.0004724169522887813,0.04056138496660798,0.005790624616583355,-0.024029495472550386,-0.01211796030191075,0.0025905752954201314,-0.005060770825262408,-0.0014121096373167896,0.035909745330607236,-0.011826138362498906,0.0263981082139517,0.005640951128815212,0.03639988022193954,0.023339069813343293,0.03237265044554016,-0.08384799432683443,0.01190783267409917,0.014713790394996647,-0.049455180350542347,-0.0037242879711657383,-0.11479512945785639,-0.008643626585215558,-0.09619220125005554,-0.031003097587887198,0.011423591540995742,0.03595157234012036,-0.07486050832793963,0.05655003889822337,0.02799691170949853,0.008224018157385271,0.0045658820997752985,-0.00011011969019356825,0.06516886987144882,-0.019509479162684466,-0.022335148404489507,-0.0030657468392769646
247.8199005126953,3.0370025634765625,-0.001946411569937047,8.4853044847497e-05,-0.007419110719819642,-0.011308388802137262,0.02307245186650692,-0.03829593209634382,0.03051567678169578,0.03257084863284021,-0.050722890361487465,0.01007168359120708,-0.04445849310140398,0.07774173803222939,-0.06489339007104189,0.006225687637174103,0.08976627560249822,-0.041063748876434256,-0.02554042830834239,0.053498602532314296,-0.09639889107873383,0.026267251325674576,-0.11337642344113691,0.1341863326104918,-0.2166270604468823,-0.019242492621445496,0.2193350646265394,0.07764431800948404,-0.0590995997183872,0.010978029636210402,-0.03635909396993828,-0.3047766782355237,-0.4119898169609743,0.015609617176742181,0.10963206179028798,-0.05465986495344442,0.00318731593231013,-0.171328531562005,-0.4643951891801391,-0.2301281101445508,-0.02626913175370202,0.07358471605246594,0.583453125963532,0.9358583391878494,0.3179731221055226,-0.0530410202034444,-0.5698430366586402,-0.2542433250446993,0.36974708695285585,0.6495954993196628,0.9177625947893036,0.5204859451385158,-0.011476365687570267,0.2626079139093523,-0.17176113370139584,-0.17641104468694246,0.157172608841267,0.047142610904797974,0.33667806507753245,0.04176127785417525,0.10204884429274141,-0.09689857329690066,0.009062737140498635,-0.0007361424807303654,-0.02000816563269702,-0.1034100204143701,-0.06935779914638521,-0.04137865701320422,-0.012688702802452977,0.006308653932904141,0.053991582570387636,0.001294324040117598,-0.001391941431354292,0.0049654663848023904,-0.08540481395582833,-0.0646397613798261,-0.0035754089362117873,-0.0026828879804634423,0.03474631176874737,0.002607568435659732,0.019662676152356208,0.045742618087926915,-0.0015368407030489986,-0.0035648765468990237,-0.007470542301704081,-0.004318750310006745,-0.02571041748566573,-0.02102125875017687,0.05837627920442644,7.682612354517615e-05,-0.05360170815648692,0.0276389445948216,-0.008728199006746226,-0.004860553163595744,-0.0025175529796381945,-0.05051932523258925,-0.003883247590123751,0.06591900415676802,-0.08927190189713508,0.029209014928902814,-0.03174697580106246,0.013085198317801847
254.06280517578125,1.568389892578125,-0.015976725692614453,0.08621055892891966,0.06205235839714593,0.02228576724694009,-0.023534821575690604,-0.0008572014830483002,-0.12400891852860213,-0.09286563910335428,-0.06479492137854001,-0.04788493555146487,0.04463253414848662,0.10442484869056558,-0.06181802499616781,0.04061791727965921,-0.004106973219454606,-0.010519983682114542,-0.04296045587017557,-0.126118813865055,0.013783022773998774,0.06820799955568443,-0.044898857078541715,0.043666199271968596,-0.0017619835203181748,0.00400434181550729,-0.017872282905635768,-0.054942656457417166,0.022155304338497037,0.07920069908347137,0.08711760133244333,-0.0399316667893606,-0.035480692633671096,0.12341011670423156,0.295747904061075,-0.00590522018928431,-0.11660124679748338,0.15751225099881302,-0.17418588140334745,-0.211092590301872,-0.01681457934059968,-0.10303963007754383,0.19355522227981375,0.29629553370106054,-0.25576109502360506,0.0364877875385745,0.014856845802914097,0.1404621791881989,0.30547053199379276,-0.01875479274488938,-0.796213152559097,0.031169658217223718,-0.25490101280785804,-0.2996359691424638,-0.06454412106676607,-0.10080723197919111,0.19470608742122875,-0.08846024993604294,0.056376233882253,0.027011604360585143,0.07525626293059504,0.02381181515762792,0.00781597475058643,-0.003741304830029473,0.10143383717982814,0.016285403394814983,0.055638984458936336,0.04224814902706141,-0.061765180056964235,-0.017116817341581214,0.04052456628104,0.0002943796950651425,-0.10297747077668029,-0.0012229688458892357,-0.004120395647119621,0.013917304258766538,0.04179437543557706,-0.0015385930377036761,0.0002472459217812506,0.0049895530085282734,-0.0160273733258305,0.0025515590478300955,-0.018094136810403026,0.006035835245657524,-0.00919176817469542,-0.0030162323991680673,0.09839680905449008,0.0999794002062004,0.005173079280466515,-0.0016686987365927628,0.01775721766475241,-0.1145934762826171,0.030199944189030964,0.059527155739146506,-0.09147964961906008,0.09652260995150427,-0.014307089667537166,0.0022605147633810957,-0.08624561518625641,-0.0034319519559806297,-0.05049704551215985,-0.006019502087557132
255.63119506835938,1.568206787109375,-0.006107580373684645,0.011644761743644738,-0.024126210439761184,0.014865802075880313,0.06942823424044559,-0.13521628667939983,0.05801367117527357,-0.08355881843662599,0.02712126450600163,-0.025956916124696642,-0.028952433433320626,-0.08428402048915984,-0.04737379290974977,-0.008067899327041023,-0.05246491568254224,-0.039024939731430265,-0.0035485495011636217,-0.04697891604574901,-0.029800282768904226,-0.08272953454458794,0.060054991754799454,0.022564717291895308,0.05684778048500707,-0.07471140421004364,-0.1684734822872971,-0.12752595390971622,-0.04100532927847213,0.5090766030752083,0.05832808257632903,-0.06793998861593366,0.30681011955628634,-0.2142324797913551,-0.13167616382363495,-0.2211204413149468,-0.09393828597228959,0.08462038070969236,0.17469120531710097,0.0026987979305921187,-0.03033414500905157,-0.14745577489470688,-0.0010771233901493218,-0.04549859658970864,-0.06135334380785003,0.15283832343313064,0.007912226051901644,-0.09580084152172533,0.16020095468826612,-0.30053144284218036,0.7026681331492652,0.4239418922901878,0.34702596012540143,0.6788793489743234,-0.062232980028581714,0.300401931287864,-0.4739079624439444,-0.010268479466875806,-0.1345898068322462,-0.3728874589987698,0.07873144977803594,0.0352270573006941,-0.012525534601930456,-0.04165917359600286,-0.012024586321832162,0.016682058010426545,-0.0097634812360742,-0.007020341264728792,0.042756705214983745,0.027951492425579677,-0.02375316396582774,0.023227967310535374,0.012133378700334985,-0.004002433971679556,0.027569178944350625,-0.018340979330755982,-0.04468562734896954,-0.0774471684414521,0.06420085254585121,-0.00521628349174079,0.08263501527348656,0.004582651916959954,-0.061984291353349166,0.031598352465742365,-0.023616112457774896,-0.030119798221311396,0.08013172881580852,-0.013106288336407347,-0.01769302197929508,-0.0940062327256126,0.017600030876388124,-0.10661515946831601,0.045697931437229306,-0.022998513415543757,-0.023841965194483117,-0.008304147578842574,-0.01702257606566203,0.0009221410342993537,0.03490622361734587,-0.020711075368059825,-0.007543236736490342,0.013435173062426984
257.19940185546875,1.577606201171875,0.014744737565204988,-0.004163204858168267,0.019159122269803534,-0.017828656422185174,0.11292005180750193,0.11371374663571553,-0.05397967482315431,-0.037428365617325335,-0.0760132270772822,-0.03894023137411147,-0.08392641428080058,-0.11714327568331422,0.01900307010236492,0.011503984232874225,-0.05751947010193458,0.007408098129262443,0.06444420115964478,0.039159843662042365,-0.2042034140057265,-0.10210896210682427,0.020029390224865714,0.04613505761064446,-0.07304606127580732,-0.015063452261876083,-0.07419331452308157,0.11167289346052664,0.014524584864026607,0.003410627545393782,-0.060346795616066214,-0.003202795517098742,0.2712727762364662,0.018138623604458004,-0.24790955569888742,-0.018526530783717597,-0.013574934825755156,-0.11713698427579392,0.08919191227141748,0.12307158268199053,-0.18300247331644315,-0.1005183707194067,-0.07236947612442801,0.4830813325097639,0.2830256237448431,-0.14930158893087575,-0.12234137077124188,-0.5571071648052388,-0.46058506158621854,-0.34703137362220854,-0.2624304023695482,-0.8874985040742723,-0.20171738244038376,0.06626946427098314,0.12194265714230562,0.13797963719841216,0.06808368717881268,0.07622840795763293,-0.048630818180562155,0.03345218769843978,-0.07941017093903627,-0.02560708224616409,0.00918874096317964,-0.0009614240517942354,0.02652708273630039,0.004641317434695548,0.0011450373191493556,-0.030072412371653257,0.01035012404199738,0.002917173287691937,-0.051721146713940916,-0.0037651367249933246,-0.007178262873654113,0.0031603956718658024,0.0002256801170480915,-0.0055040419201926845,-0.004306460387642938,-0.02132687772583558,-0.001474275530085775,-0.0893226401222571,0.0071210181443035914,-0.09232209181251663,0.006633433201180759,0.006675136965980001,0.023604138363947313,0.004914646992099555,0.02238454153757005,0.02359123768138223,-0.008488483076428533,0.01324645939938697,0.0007719229466214589,-0.000511642220332588,0.0003746256975783378,0.00365387250713726,0.0013183597519804973,0.010363631013857698,0.06178752769631958,-0.01218447099419333,-0.07787552554502944,0.015571973319771578,0.001427343085990261,0.024761845860868686
258.7770080566406,1.658477783203125,0.02412416553848991,0.02630786578353132,0.008642443606545381,-0.0053166405480692585,-0.12190287239457459,-0.009264884794258712,-0.0018031342296280718,0.005444772269605828,-0.03207128102837541,0.038879227085761116,0.20213526340209603,-0.08292399775056475,0.09450330282156114,-0.02453586865950557,-0.06869975352710861,0.010341099880975826,0.0007958495195687702,-0.009079566924238218,0.10804900389116237,-0.01936779235936619,0.08230094105713327,0.06408813358454465,0.08135774636644579,0.1270838955666057,0.22930850731996483,-0.20359888000043752,-0.0918145530750856,-0.1414822652890782,-0.0005823032592653932,0.04407932538961601,-0.2231485356296892,-0.2951062471557144,0.16855486271333764,0.46516208100195033,-0.04407453742536825,-0.15346129716326778,-0.6301133009271099,0.06930040048626332,0.20439512930169276,0.35950209661739335,0.12943698668382725,-0.3046649662864138,0.0494984146934037,0.0035180466966827674,0.05191376951409456,-0.19392713498066613,-0.134783325690228,0.5923913250059324,0.21086072494896538,-0.012179002702980737,0.10669277084968065,-0.018809275315700105,-0.06565000437027821,0.22441251382489638,0.26758251638565067,-0.05173138331493979,0.024864603003757597,0.03811890686034908,0.5985953451774834,-0.11967945558574204,-0.01533298858663949,-0.008305681004373377,0.04284400656490397,0.11125512712673016,0.026249534718755844,0.0038312049655233674,0.022077251300417947,0.0007332670264650989,0.06723282752867651,0.025900800163559026,0.003482299528906656,-0.005086365016376684,-0.023560998213645608,-0.0050882475239108485,0.05476359856772578,-0.057532396803072545,-0.0737513233858803,0.0778080832768501,-0.028872228317309595,0.08336618633593426,-0.0343030911140652,0.0289786159997624,0.030903930390773313,0.026683591336483854,-0.0035502358751306833,-0.003738655403608694,-0.08501413351904255,-0.028733249900154627,-0.04362803902136729,-0.019859767648507103,-0.048138844540931605,-0.02009873911250293,0.003669443768393527,0.05057124311052351,0.11639053980183209,-0.011805504702716563,0.048273330002395795,0.08378672095420718,-0.007884869415518771,-0.007919776796003631
260.43548583984375,1.59820556640625,-0.01097897205124922,0.04251959186769849,0.0015835145777033247,0.06770349617304472,0.1642788927804652,0.060096372269911776,-0.016975896069525716,0.03630835155403696,-0.020749859281939946,0.1460891013207805,-0.062484406167202626,0.08143617307238435,0.023009808680662894,0.07718747593219918,-0.07963890887194926,-0.006823554377493542,-0.031825383512424095,0.017367598451786787,0.051685119195574086,0.02190565883254758,0.054031545045724653,0.0026991600499779466,0.07140764273891109,-0.10975940158652774,-0.03621210409870891,0.002386618632296776,-0.0030201416359725824,-0.013772864980947996,0.08592428696153852,-0.29548110765382496,-0.13815972322325945,0.1545846825597732,0.04493341889467285,-0.08236933823848343,-0.5135117355462476,-0.19825064478290447,0.10633143080425492,-0.03863917203149223,0.0887701737831013,0.24455269390792192,0.1950419073113796,-0.33267243852073825,-0.1395132628951869,-0.01936159333033706,-0.24128441784889174,-0.11069571349693173,-0.14490711650411423,0.15953918231928527,-0.20096785740990453,0.0009947256449524128,0.2818707084105072,-0.1992489287927143,-0.2677998605697865,0.2856091687052024,-0.10542158890595892,-0.22214775881375692,0.004849760630157211,-0.09157336779568619,0.09779949987528387,0.04459205929305761,-0.012010319434826791,0.013458121605987259,0.004153726441297102,0.0732149917995779,-0.048912880525548035,-0.023431289174540376,0.008377561706612524,0.018134739565472117,-0.0053817472998529195,-0.06930644048071145,0.0013141360842833232,-0.006801498392228092,-0.004639721334431926,0.04187494150964266,0.04885558278740924,-0.057554298460545494,-0.004693233182592511,0.012673253698765374,0.033246595869311696,-0.0032379803307772594,0.031079031753238416,-0.009440501474834648,-0.004118943063285871,0.03462431639705739,-0.0006231438557291447,-0.01676363829795628,0.025308965981098948,0.07509025521333251,-0.023152461041439965,-0.0077938903945375705,0.0009633418385854974,0.005924614017720282,0.020700167284546957,-0.0864751405860759,-0.0002449300774587382,-0.012743022839513004,0.023050551646793625,-0.04866702827989956,0.003003175498852345,0.13283027975229453
267.6570129394531,1.598297119140625,0.07865100131462918,0.06778376369847247,0.018463841040278817,0.0815882886619293,-0.02349509114542586,0.05746647813545,0.03550056940724061,0.04459309995534125,-0.06820872103082094,0.08450101375689122,0.10402734511394511,-0.05399872005244083,0.027005717436823437,0.14593540994967324,0.12244818025778033,-0.05621723535125481,0.009858210271834877,0.04655344588999841,0.10743147262416568,-0.0029753275993635343,0.005156198788599214,-0.051234792750187164,-0.117062858045835,0.0836971809320963,-0.033000303905774464,-0.008590270446070383,-0.09549575156835229,-0.06335614461954074,-0.06601477981201428,-0.013100897170992986,-0.01720393130324197,-0.10212308982240231,-0.08441171539834497,-0.11895735090210614,-0.03800521023871349,-0.01914233937172577,0.09676716664537051,-0.1526226363731531,0.07756737900081283,0.012826413330576152,0.08430672598102225,0.032705357227474204,-0.004739920074928025,0.13143662667444567,-0.2374053192030836,-0.1872811373076172,0.006774051444907236,-0.01108395344207841,0.005728129289185049,0.2626055595845467,-0.09983375807480793,0.43182717763106915,-0.33286023180880897,-0.2451798493068071,-0.019649744098832064,-0.2142333520625362,-0.021541114727207433,-0.20172374264399076,0.04072941641987868,-0.14020937636465808,-0.011587981638974905,0.07790971334890319,0.021969457936909034,-0.0065939437828870665,-0.029400322656546234,-0.031190969350212698,0.0950782770009587,-0.03908425148121997,-0.03618811959978543,0.05164933591656634,-0.0048684935154667645,0.05968794346709657,0.0253973293107674,-0.006226033566950732,-0.000930995587811636,0.0034756830904509373,0.03676726260845501,-0.021598375013294403,0.0008143837964376523,0.06463908374349392,-0.0015133096413804405,-0.06315419097070796,0.11378241137838238,0.012216634787096484,0.012885630701808395,-0.04238467613650403,0.0706175408363725,-0.013320150861736461,0.002289923441817124,-0.005905063549282831,-0.00019811920630022993,0.0004259157428790312,0.0007981056175078269,0.009008982990492425,0.054500641187283955,0.019337459012900987,-0.015967670498793572,-0.00028250855342768297,0.02693143638176167,0.04940403560478802
269.25531005859375,1.5679931640625,0.05051209828330255,0.029806646377988744,-0.04990586880153631,-0.03209464715887458,0.005626544703539248,0.09770829688048342,-0.08731985818661378,-0.016583774240303994,0.08949952248145784,0.017560675043461177,-0.009088590564667685,-0.011459101485789908,-0.0776355281545729,0.004067395017151448,0.015318017974030705,0.015530317661171009,0.02352257273030482,0.004107567319376133,-0.016358076266166796,0.0733668380356166,-0.07809003876942679,0.03330154213854892,-0.0030949324684903345,-0.07195297324318867,-0.03669926860886867,0.008824776968533475,-0.09077361930262484,-0.10306772811723283,0.14579505178213684,-0.04042426895138784,0.13434624192757733,0.012146398562878694,-0.13466295776633205,-0.012902935734005161,0.02677951999170499,0.015213683284566598,0.3853207844293694,0.2331467286079404,0.09047912655381939,0.25363528073828445,0.09849097679693085,-0.2909388008215046,-0.08682336615874633,0.19300514638994615,0.28506910536629104,-0.04570248033012101,0.052244516655931,0.03759356771093339,0.07377695959151676,0.2734833212867748,-0.11477851005794498,-0.16890169704014185,0.2593733501808747,-0.24691714536161755,0.0891153043772953,-0.008595500128383582,-0.04813340302521793,-0.006705913104439884,-0.06519463450543801,-0.128096346498122,0.001910911273938229,-0.03780233708968996,0.06793122228026034,0.1052235092268557,-0.034645214932581284,-0.05587723256918915,0.0416370398723093,0.013795711528992107,-0.006422243532949358,0.033806845953182965,0.005878664593399287,-0.0007525590528154618,-0.03896389260107239,0.004732299978351869,-0.04037498895582633,-0.012020404877628102,-0.01749760619632091,-0.0024809686551649957,-0.0673518756972254,0.006260072460063247,0.08954869394732437,-0.02185889615316406,0.00073081542246862,0.011218930945108245,0.03728663007222262,-0.05480169588292015,-0.00018051768541803932,0.011972816948636044,-0.04438059823820173,-0.0527300381747913,-0.031194490012779272,0.06690081341111066,0.056593160488373824,-0.014174394757824296,0.009904846755124078,0.024945212726231833,-0.009030154025212974,0.011034632234890865,0.0006618831554358051,-0.15029618709066447
270.82330322265625,1.5382080078125,-0.005595746523745657,0.09169554357652544,-0.027906721607022372,0.00521824269404622,-0.03425914063154099,-0.06631691103582128,0.014296377092022581,0.004119911740832482,0.052604293280287234,0.024686413049468024,-0.07549724385793492,0.029128528666122214,0.045931703204423836,0.08007779646054367,0.012843803449147623,-0.022503682122556407,0.05036983183130155,0.07848495150173221,0.04937231373361945,0.11636291185472673,0.009456425357934548,-0.03350280367495263,0.054518469741024006,0.07930821974994552,-0.024590924575957462,-0.054429299801479564,0.10476233145942798,0.018409915418414455,-0.04858652259353751,0.016513116019221452,0.10604635783444594,0.19647462905760155,-0.08231583037019453,0.02677768645874689,-0.04754987025030766,0.06273908297104959,0.10408442458209077,0.20060313432450294,-0.10879363295671388,0.013427880502149492,-0.26531787960645203,-0.11932466969415362,0.023155240203269506,0.00959472423231092,0.10400427952020815,-0.08868002831508862,-0.06426915377398926,0.7145695329605499,-0.43683335916998295,-0.1487668059189549,-0.22435890931680705,0.09155547278514911,0.09007470678131928,0.046432385112001394,-0.11744554167884165,0.024019048524750904,-0.09108782643721029,-0.3168237595565393,-0.25177830923081673,-0.12775689269326257,0.03621395563579553,0.013207479733378422,-0.05026492288976782,-0.009445950079377817,0.013815205692899351,0.024353049410897422,0.005779074798907574,0.028524240498337343,0.012317866512717894,0.07362393873649277,-0.0053850094528932494,0.08752093253846657,0.006702355626953278,0.045087818655983554,0.004191955862403824,-0.06325630386593338,-0.04547410511775845,0.0006501709796970803,-0.04892261477079467,0.018934129637989055,0.03905080939096592,0.004211223089851334,-0.01610343916657616,0.0012466410139981925,-0.006122315071369229,-0.001075443066301138,-0.0035846669804021347,-0.003899303655021391,-0.002689339226981569,-0.00041337757229346905,-0.0002719023860087698,0.030079322762953716,-0.004842997509406388,0.004170541618112157,0.009207037346360176,-0.06340812239297242,-0.0004779937148775004,0.017006213834038622,0.03444109343370459,-0.10803721375556775
272.36151123046875,1.547882080078125,-0.10873074188222197,-0.0012937852391312604,-0.0010226063325273714,-0.008181275229699303,0.027310226998573217,0.06383372327951023,0.1635651896928189,-0.13171331354853716,0.09064892358970897,-0.0349662013329517,0.014374274260567506,-0.0030427119639347563,-0.024965852781521997,-0.021832263900000752,-0.012071505113630497,0.05649820209222035,-0.0661528005109285,0.019791857723738093,-0.14351588690722938,-0.05666874335124159,0.024468516662341615,0.04342992424824975,0.05753806335118282,0.000331613747939621,-0.11320932412847594,0.01303607454851595,-0.017592500658934362,0.005202679795501025,-0.20413100285180355,-0.013524767054587494,-0.040250557039196055,0.06835836306216467,0.07149100449785488,-0.07809765969339723,-0.04294234720981666,-0.06392591601099153,0.012978648656494451,0.031690902393602276,0.15902998436994442,0.3602035828459412,-0.06883703240385965,-0.06597710613789315,-0.20754621106171808,0.07224543030485081,-0.44797259992082683,-0.2860132656612968,0.07917065836890336,-0.9127437104291072,-0.7137710310867786,0.160856533394736,1.0424865059130772,-0.279193384235802,0.36507622048152427,0.08926854766047389,0.5391003400862827,-0.5427310877204975,0.9150774407607337,0.004933656717144533,-0.006700613365297606,-0.01618780691018941,0.002178584987989968,0.0823363812262464,-0.06126101557216222,0.03528950309625326,-0.07235944580349885,0.09295315479501048,0.030149661443194368,0.0656364298097385,-0.0034318758921867663,-0.002858147251868154,-0.09676111642835164,-0.005696956422712303,-0.0009822652267951922,0.07763763080038849,0.002027345581199144,0.030735156748480732,0.03642032909754372,0.04928954049942374,-0.020966073434291674,0.10419660764976743,0.09062443449724973,0.0012371819324619162,0.06029361733459059,-0.00728327032714733,-0.006786250619865355,0.01581308826156077,-0.05106639770582532,-0.027625433157084954,-0.0011372160899701539,0.00032012788275694433,0.005364366569679681,0.005741133785579616,0.09191306795713719,0.049670054526051916,0.00015758200313125732,0.0019761239308432313,0.031174746670416732,0.023966956799293372,0.06734257648016642,0.09079163813498019
