start,duration,0,1,2,3,4,5,6,7,8,9,10,11,12,13,14,15,16,17,18,19,20,21,22,23,24,25,26,27,28,29,30,31,32,33,34,35,36,37,38,39,40,41,42,43,44,45,46,47,48,49,50,51,52,53,54,55,56,57,58,59,60,61,62,63,64,65,66,67,68,69,70,71,72,73,74,75,76,77,78,79,80,81,82,83,84,85,86,87,88,89,90,91,92,93,94,95,96,97,98,99
11.798649787902832,1.5082006454467773,0.17605052904284357,0.045056459037361926,0.06826058996938411,0.10043140365784105,0.13667322364790374,-0.0141630574983333,-0.17116174744477014,-0.197099422866763,0.13400386895009672,-0.10153755787405874,0.18759996942096635,0.19010961344911426,0.130675607222585,0.1923147453190461,0.18666641911718151,-0.03970406545386728,-0.20645726531978575,0.022845940183871913,-0.0017904661063948921,0.0292236201826992,-0.23514084314483288,0.028954392951082427,-0.0270373501824968,0.021482266709449277,0.02639257427917086,0.011118905770519676,0.010084690873247596,0.005059229582964847,0.005688535983536469,-0.010075264126937667,-0.015396782057992827,0.055338378847041354,-0.39213528231402917,-0.05646697481888477,0.027686041057121125,-0.0029866281553780133,0.00438660556941382,0.10863112891056667,-0.040791611496132266,0.058908124169112105,-0.15820546322728418,-0.06901773089458266,-0.15625417851970658,-0.01157825944376225,0.003637492666218053,0.08278628740880212,0.0951304007204393,0.20060846635974391,0.4048811824098539,-0.004574938462223911,-0.3863988960915738,-0.27631959885870855,-0.048082012463811837,-0.19868472377773252,-0.35896279667399283,0.06407030261802765,-0.07021576276563081,0.022766500452087366,-0.0478569141251798,0.06557794545862734,-0.03413095551219825,0.09102171633224651,-0.1573751807891871,-0.7132343134400657,-0.0848144046411882,0.019934918691624018,-0.018544601588486573,0.01755492799306929,-0.009994769711252209,0.13934379874976294,-0.023604370268207997,-0.03572247999558893,-0.00020999686658413708,0.016492369160516284,0.024903969097083423,0.07286041713207313,0.016012335339277442,-0.09502901229894914,-0.17299349965844224,-0.3908423890667517,-0.03203903902623654,0.03913632063685294,-0.04918089436423238,0.040070143005485795,-0.022168002582004416,0.020982929441752236,0.06705648504087805,-0.022268753799586923,-0.03410349771253438,-0.026949390857774765,0.03632243107676917,0.05618583995411166,-0.019637700843213108,0.029819908557750237,-0.05351935970187268,0.04061076419158513,0.04035674680512464,-0.012995369407660487,-0.004451047281759675,-0.14183909812212797
13.30685043334961,1.5180997848510742,-0.13308780238612727,-0.059634381621770406,0.03553658786314634,0.0027916523576125944,0.024193375615151336,-0.05128746067996509,0.08971410034084573,-0.04753883748120903,0.09271278580341938,0.1192609969830602,-0.07288255243181291,0.10493123570620122,0.04206890792994966,0.025871067125982323,-0.02228218385642375,0.12740279963961865,0.08848472803129287,-0.006081475498449772,-0.043344996765005146,-0.0151170145703656,-0.05538446343693076,0.058740294287271795,-0.1387932800091329,0.16205551417243186,0.07772379084543123,0.03219470974612575,-0.003903746695751894,0.07236918165707538,0.10490388866041589,-0.03748044475944301,-0.05866621775311704,0.014703927470315764,0.07995773321141468,0.0405462031296558,0.2382319871739061,-0.1007382738595758,-0.04775981430134598,0.43789261944182856,0.01591589527608576,-0.07815895605785268,-0.08045970725924753,-0.09123216128941483,0.01794914180374499,-0.22085454751821976,-0.2039035230938647,-0.22361420565069068,-0.005232494633806185,-0.052599065918173746,-0.3689987297212162,-0.191513063226846,-0.18367676304013306,0.0849605152378452,0.23711268193949364,-0.010783518445823384,-0.165169433595044,0.33743864320564754,0.039601553466600575,0.0056476747150922876,0.008631632498088855,-0.0033392321563332794,0.03329321536983196,0.019845188084591504,-0.06655336460657102,-0.05789347364831152,-0.03878415858812967,0.08682034208370365,0.10530767141753655,0.015815086530155942,0.010212562315695093,0.05506249686880428,0.0740331140059508,0.0947309593982009,-0.0048737431096392905,-0.15116940645584098,-0.03020823941353043,-0.22068828340405097,-0.03103409139870974,-0.08112815653881365,-0.01878972842207194,-0.0460804190760893,-0.058219268070155525,-0.0007889542054885076,-0.031492119273908485,0.014503841336624544,0.007371707931626079,0.034943880189375484,0.025919035580191162,0.09547011588927516,-0.10657913184950783,-0.1032674056486167,-0.004032414892269831,0.04085786061720186,0.026423775530414983,0.08533700606226727,-0.14571940131868216,0.023698921187299785,0.0028537292406425416,0.06742300410116261,0.1082275783885064,0.06568234515676805
14.824950218200684,1.5083990097045898,0.05794088916639016,0.13941546280737585,-0.016639274939514368,-0.07742841794049708,-0.12463465144428115,-0.0874876281500456,0.03757153733231341,0.20059490401323302,0.07369298741655808,-0.04007005570793298,-0.03620905714262222,0.054164979114133045,0.11085859233600892,0.09010533559986535,0.021032516093458298,-0.033022256086341836,0.007944887346782156,0.004633997051506342,0.014556835557797975,0.006210054614735085,-0.011687432113340154,-0.08080705339595347,-0.02330573817835489,0.08089647963673603,0.11694378605642504,0.03623863266980031,-0.057077494841792406,0.010048199608044433,0.1457687537475997,-0.018002785199739496,-0.04881595126973884,-0.16126317148212635,-0.1088106192319267,0.0202770805919035,-0.077278039640059,-0.01170207427218451,-0.013854163381295234,0.14220443824310608,0.2542365797818141,-0.03894329662279038,0.18608194195960756,0.14215054534477697,0.07807145808254382,-0.010711745239516433,-0.29537101093529416,0.018970678093561948,0.009080233145136698,-0.06203680703285347,-0.18736386694174903,0.11623832180986533,0.18769960705711003,0.2188353770516236,0.059168818000083084,0.057980543432151456,-0.1875784739081507,-0.05714382266088602,0.17439959987009485,0.4439002655404826,0.12551409259277296,-0.1470401981555068,-0.1401243207079795,-0.0008232647217292096,0.023917490085359427,0.06615658336459682,0.11759802171276483,-0.007844447505771499,0.07177128146059844,-0.02625174445101739,0.028303767781360734,0.017665567197659212,0.0017407781208661627,0.03530440235483244,0.04161361360999171,-0.03451416137675837,0.06214265421065072,-0.10800343655305258,-0.0588809204971976,-0.030144616224368453,0.11247179621810022,0.0518291722002586,-0.11613463724517137,-0.039390813824113205,-0.060514702214345115,0.01186041555656212,0.06513526090181632,-0.0037364996799198343,0.04310167196258355,0.009972462603521044,-0.05973673347156847,0.013868816695757315,0.04033631694324406,-0.019100716665848613,-0.10948606770993267,0.07228370410294505,-0.028992954380591206,0.03816393631697809,-0.03778901358554401,0.08738775547590105,0.06849708183639036,0.055346567943697855
16.333349227905273,1.438100814819336,0.06307099213072805,-0.15530986347636816,-0.10019751356268095,0.06971209399241596,0.12441279117341927,-0.0970877695915306,-0.03842747377492248,0.1379295132706678,0.12429383520328458,0.15126463583082733,-0.011198595719732739,-0.08406138453311186,0.03667144421082807,-0.05736498765943786,-0.010231847963312434,0.12415154381812336,0.005063687369962998,-0.05866635150932876,-0.0029640329352208575,0.07376469513360082,-0.002308844901267813,-0.05524697215978159,0.19371787359569692,0.1033606610941687,-0.19881235678781845,-0.40854679444477765,-0.031110500067692365,0.06872532967635374,-0.06331978699744183,0.09728289126723265,0.2228976099605878,0.2436372521490462,-0.003511390296108981,0.03276249645568641,-0.012833856393289537,-0.10198700967125765,-0.048923616766440706,0.03447555699956356,-0.19230465400845745,-0.162552281122792,-0.34446443437509183,-0.05435547853174519,-0.011886859839618182,0.161700075002993,0.023794464086234646,-0.10399473308120868,-0.029614606038360462,0.012289255084177608,-0.03986365741712532,-0.24760033986177224,-0.08837106051722414,0.07144258887295442,-0.1669847927276663,-0.06689870117256706,0.10656710257235828,-0.05587805972351459,-0.1359445381406416,0.21754033140995113,0.19334252606571253,0.1052684168881525,0.18155208411708196,0.5878616736569309,0.17032454167334085,0.2207169930603164,0.014144353192863768,0.02233823722619366,-0.058803957874589995,-0.07525210286335875,0.011541300573786968,0.003850280684272217,0.0026152187683440332,0.023129304756801822,0.032661469579975545,-0.022079541177443138,0.13098491386756958,0.17681108696467832,0.11471382253854853,-0.013299660004310033,0.04823593021369676,-0.0008450396705204739,-0.07050152351348156,-0.13958600608808072,0.048421966643880376,-0.00021875154442251948,-0.0406859479189692,0.024276887068866437,0.007486354433502423,-0.02239993545822245,-0.006618221765744329,0.02786383065655994,0.015277460108232763,-0.026056179852382726,-0.06903660792931032,0.07274269201647444,0.012876120529344276,-0.055120867895461265,-0.19044846202239907,0.01536366829644941,0.0990722270355076,0.24930016988368897
17.77145004272461,1.4584999084472656,0.24032938629878428,0.15484810582865938,-0.03727065506508,-0.027174098801177632,-0.1488493716976577,-0.014534375788257057,-0.10889024892877358,-0.12515754461929895,0.003138647921520334,0.05648803820847464,-0.08546034962792455,0.03458287686319426,-0.18238940241392326,0.04026630885439089,-0.19611828119945254,-0.0021439962855822,-0.02746673252340002,0.05305725699830195,0.0025955365630669753,-0.022484831007987503,0.06890551778822174,0.16383540081074244,-0.03951821730112933,-0.041272080078988006,-0.1447264732927764,-0.12335046266419943,-0.13892137623316952,0.12065726716835035,-0.1654914996939117,0.07328790803539983,0.0704462108545789,0.13702355875278563,-0.10899564634785917,-0.028542430254194454,-0.08545835367073006,-0.11196995514836833,-0.4732036833903746,0.014107116097882386,-0.18028439867603704,-0.09121667675245079,-0.08343183504989939,0.05431291491190285,-0.032279256106805654,-0.11874183127401997,0.010000716199305516,0.09103552090119527,-0.17293956670734387,-0.16578122454950855,-0.20612807375564107,0.009146701047118216,-0.16430814358726697,0.016910085275631676,-0.03680090851653289,-0.2952517777865265,-0.07801398008751553,0.19572681054536345,-0.019944081488577327,-0.0243048053720194,0.021135398612379574,-0.3371467678963252,-0.009868410272901956,0.0004059322936134426,-0.053755981131454925,0.019187030128075114,0.04285674018781829,-0.05566690998292936,-0.05818363247437397,0.007132501073474054,0.015275092230299332,-0.006362561382198378,0.08160175161516905,0.012916714252306553,0.11644716853917063,0.04122921990259657,0.09415531662070116,0.037181502396028104,0.0058441537252626324,0.11050399423354476,0.07179041990870928,-0.010471715109886178,0.046625288254608016,-0.04621872129415551,0.05755253147466058,0.06181033680294646,0.0008119733824530301,0.04341669538727755,-0.05541041277453501,-0.005183130787605385,0.05795860210191345,-0.03690598204156632,-0.01708613548841194,0.021771969138864273,0.05943845868253035,0.054392242360917976,-0.09183718704497967,-0.012586810464412014,0.10270184085631273,0.0035013727765723784,0.07552909461949348,0.1415795885654915
19.229949951171875,1.4479007720947266,0.0014505280111279106,-0.11563865696615847,-0.005186340027386854,0.002399340256181479,-0.21150089106617825,-0.07057968665695978,0.1000437986076105,-0.008738404918945992,0.09333978364410918,-0.18115357096541637,0.10507348240022454,0.005944776109771016,-0.016936160347825316,-0.037334255676267365,-0.023326378923079517,0.00028307666743586585,-0.039569600303871244,0.0501341007530926,-0.03336106961871128,-0.027179801970535378,0.008866626775075381,-0.019516909381444018,0.022349582621627975,0.09785033367756675,0.03369866985169616,-0.0018958471724559692,-0.002804588325162565,-0.00872346657173943,0.03822698121679283,0.01785075108426668,0.04691195209727603,0.03012030162055615,-0.09804979300365343,-0.017395773857431327,-0.05573570335441409,-0.04241437400449581,0.013990424289544938,0.008242748810993003,-0.058512546074687415,-0.09908666325458407,-0.19636570179123128,-0.24358965393660525,-0.05985939585281646,0.12319810233628327,0.08149898806524332,-0.2187659208933121,0.05537676248268357,0.6304803214428291,0.4924482802189204,0.48556219201196216,-0.1707003134304263,0.02110348463525059,0.11016428580385995,-0.12070632340976775,-0.08757464303337567,-0.2228082845974139,0.39787780002529083,0.10556217137835901,0.042554701015189315,0.06842225531274435,-0.04759708720170283,-0.39152855551165966,-0.048521329550679865,0.03805424204536317,0.13330513791630152,-0.032387832771891056,0.043732703688839455,0.09025370043353262,0.013998648430805442,0.023016469217548893,0.040865211786487395,-0.09191070500506789,-0.04228979341955229,-0.07101419614609597,0.021969258982837515,-0.027084405545363417,0.12246946533545318,0.2037067775961539,0.015686803167181324,-0.06842929620487138,0.017284533326423546,-0.11393814273880662,0.06377817095742805,0.07749770818746385,0.12262620417165081,0.0034128705488923085,-0.055257890904701325,0.00035911094087173745,0.04421167348290488,-0.13801442812189826,-0.002240305094247552,0.07169717861216893,-0.04850390167864014,0.05851208753856507,-0.1261044643020884,-0.09229268199895829,-0.015006604115453443,0.10425609434774985,-0.043858663775722694,0.11243733513628826
20.6778507232666,3.2666988372802734,0.11179323432617644,0.19140279033022747,-0.02802345021281412,0.1996042718666856,0.1418024041164567,-0.004461269775746455,0.07533218676677864,5.71924626003098e-06,0.0036708801720607125,0.1546782191135053,-0.03486306915796448,0.02196826297191519,0.006584131290540096,-0.09781300866935418,-0.06299162805695657,0.020541507538160114,0.011773847621777675,-0.08355361838462712,0.13946005240852372,-0.01499561628745244,-0.02087127537993314,0.03989209957298889,0.06503510319644454,0.0748314247695546,-0.10186376383806638,-0.13318605043493864,0.09384250967447622,-0.25068280020258993,0.06151247774354239,-0.11066261508004774,-0.03259655804463066,0.021224174049324696,0.04349810211009697,-0.18499377236725992,0.04731662720774725,-0.05563914251676509,0.23306554258520323,0.04493608511448609,-0.2667806516903291,-0.23365768738405973,-0.2731024186541914,-0.2851724862811463,-0.1859264908310792,0.23320790352189316,-0.026914695539653907,0.35723923717119765,0.06361145654023395,-0.32702451455205994,0.14853136432166622,-0.07692350015068294,-0.02415964537940342,-0.06144485781895679,0.02451427169444198,0.0906100897811643,0.07336174798438853,-0.027409198540088088,-0.05909878089152486,-0.08177948171779374,0.11884879055316416,0.09148823294914568,-0.07604434071221193,0.1128756983141871,-0.05532212241730949,-0.07940856268603463,-0.03627308486067706,-0.04452263713685853,0.01064405305640901,0.14833450179183277,0.03332223548914491,-0.004749943868773327,0.01888378568260942,-0.02986614226026702,-0.043835074191031956,0.04741919189996292,-0.038835532789576487,0.04636311372642264,-0.04006124606050657,0.05773507849875048,0.10611542014302408,-0.015204615270884745,0.02497981894692327,0.06780141764634935,0.03412950946608144,0.0065941618456276715,-0.04799459243099667,-0.060281072069565005,0.022183960308982793,0.037887347087221544,0.0861662815733792,-0.0517516425699541,0.12500876490245655,0.06876341527950477,0.052740248814270786,0.03876974493606885,0.026438432799389344,0.02885460839009202,0.05681154795915674,-0.08998361737701087,-0.03419329921585734,0.002498406516305611
27.140850067138672,1.4676990509033203,0.10621781477212887,0.016337751035744096,-0.03741051989555258,0.13237719530912748,0.1522216409111181,-0.07610655201459537,0.2088790694348871,0.08505100643064835,-0.13085711576899495,-0.3773263593550056,-0.30510261053736826,-0.036453184027306566,-0.0336486260016531,-0.12930291925553464,-0.09929709538612284,-0.209024482476592,-0.16479277225461353,-0.35952371757415824,-0.016137893844649122,-0.029750733066912376,-0.006805958319887895,-0.28235586193617374,0.25071526405640315,-0.07478654411852455,-0.024001575453504634,0.06315183141046976,0.04531546343371617,-0.033108207547662485,0.021635273224875722,0.04456277049778439,0.12692341427910592,0.046700449241388574,0.017204962957909357,0.11972733512616213,-0.054933682504787334,0.02852078033378037,0.041617533715547134,7.963673503733645e-05,0.16212347588575143,0.05954331320637367,0.3141212572213965,-0.02982235887548871,-0.10147332206811303,0.12737925250309978,0.12169653396777455,-0.02388302417951978,0.15918870779259828,-0.04593545029212269,-0.1857782323367026,0.4628065572789276,0.15217113258251375,-0.0726701102336448,0.31666200640744635,0.37262307582079646,0.8217325968166866,-0.07155522323072233,-0.26814807121096496,0.11555298844778947,0.25176650743896895,-0.416262244163306,-0.044729223619461134,-0.42408770974207927,-0.13663183487232006,0.12819581496720922,-0.05293988580763326,-0.03319664628970634,0.007688193956840866,0.09882008354772845,0.05160809595756925,0.04124653052122037,0.02284900841024109,-0.0008725584215929089,0.06930876239620852,0.04696264379029773,0.09777848880251341,-0.03330695072859932,0.06330218189934202,-0.08155823049579204,-0.04998062661458402,0.08494509989898961,0.031200380175247826,0.005967347698129691,-0.0782985124751422,0.0004195620611169993,0.005661993924149329,0.10516149349400006,-0.012988749876437687,0.02740575358225171,0.023013340095699875,-0.011796253792832879,0.041261619200632774,0.03848750824960292,0.014025445167859217,0.0740147714017412,0.05115022347863136,-0.009452026993079586,0.0915179857076527,0.20782600114700545,0.04896469898617126,0.10358429495000684
28.608549118041992,1.4686012268066406,-0.03647940456812772,-0.1501440225677859,-0.14800427392281323,0.012495541229630371,-0.10983425079899771,-0.044995625178285786,0.03030117148562628,0.09438637808623336,-0.02722477981705298,0.33728347865379654,0.06464251060680885,0.011605282475256417,-0.054863518893902924,-0.011342285560568193,-0.010389346693173148,0.09841598101637405,-0.1369199170386992,-0.020193516509090875,-0.0037472671000525343,-0.06836469651210664,0.10192930216599644,-0.017046312136289266,-0.12534455060128386,-0.04353250185011037,-0.03485760565160283,0.020768252415177185,0.0871698817343999,0.01736933789270495,0.04561994922814516,-0.08289264095197771,-0.016305494082601568,-0.037721136600588484,0.031796452603491294,0.13019127513809772,-0.05159626732369886,-0.18717705716854074,0.0457927934266503,0.04674665948673758,-0.030553946781648023,0.0455140380908406,-0.190178357590358,-0.017550131799526025,0.31544660354043597,-0.24210494770275473,-0.006100409985474729,0.09776779047992926,0.040632262332592525,0.022625729662427166,-0.11527186828199928,-0.08459588160038528,0.2670040915152095,-0.012741259574391414,0.2682948808507867,0.394346537395033,0.024934910146524145,0.09714198527204099,0.007874534565211172,0.05477269149779726,0.054851858375170516,-0.0004388821021111475,0.43886202655056,0.003016855786786422,-0.19904928806436317,0.01703626285490461,0.30767272926753636,-0.0016540740363322733,0.02523120322638968,0.10858891932926071,0.08213120891423259,0.07141077527862554,0.09683093029539035,0.06172902372136148,0.006187516892343613,-0.06401974617590225,0.03045241736813091,0.0012603312406828972,0.08745426861363835,0.05839888607907231,-0.0008419484935435068,-0.0199259326204643,-0.2236621643794018,-0.007787099942249043,-0.08894481472431026,0.03152870842949919,0.056531682795975036,-0.03448705987187792,-0.06491636508302855,-0.011301159653917842,0.01573045569292241,0.12962288643091285,-0.0346725030340798,-0.033451122104475504,-0.12142475455805253,-0.06625691120795354,-0.18424065206293655,0.038997098382728065,0.14853156628291447,0.082178223977794,0.15008673275869763,0.1396207226519336
30.077150344848633,1.5284004211425781,0.12394595614450293,0.18261368307034193,0.1762027795371479,0.05307074107776537,-0.059968562487492744,0.022218066325647587,0.05986760282715402,-0.04370446419557818,0.03893062917716432,-0.02221941293922381,0.07577182249086424,-0.0325064928351955,-0.0035613232842960996,0.023026491520531402,0.05449493029642091,0.10512744544368949,-0.04120637471329604,-0.08706337395879282,0.017359374900540153,0.09364251647660227,-0.1971094992673267,0.06983062038165744,0.009468548274455854,-0.0632549472695278,0.06792056491460109,-0.21901744166903922,-0.010541839999287081,-0.3617202960924668,-0.06659667230528139,-0.05954112352787395,-0.05139599671148335,-0.33474255144084814,0.12092578364117142,-0.12521902806614515,-0.031382208028588744,0.22203393593935786,0.2581516471219556,-0.11205290862973165,-0.021354543362335547,-0.030703226260273206,0.13742606480778893,0.07501405804964642,-0.06346670465387226,0.08179770098723012,-0.34058398502533926,-0.30919400983785794,0.12857162758115187,0.14347872961220767,-0.1225024936422018,-0.10569196623225784,-0.10579679549612911,0.038316468638212746,0.28993942502710657,-0.029436493428300556,0.2771034675105397,0.04008806841165052,-0.473566670016999,-0.02325377156341254,-0.3841603450627171,-0.1151647939857972,-0.16787963259099725,0.06668485414321607,-0.05155049448655348,-0.04752027092377191,0.06336435714715778,0.17542714783456775,0.04581268213657008,-0.014910032931293511,0.058083762426008795,0.10088611344557641,0.03564641428904031,0.06900621386311917,-0.0779341192384517,-0.01098904707304941,-0.0018279398572907497,-0.21174132828321407,-0.11406491307285316,0.0014358758939549017,-0.006398756642915343,-0.009571361251915373,0.13329721884408774,0.01403750306782702,0.11229604312182773,-0.01826905704230657,-0.05133692797074495,-0.07564243569114575,-0.006889670026381869,-0.09739802755410706,-0.08467218157125404,0.0029171674673667547,-0.05151170906496069,0.04523438696323017,-0.07731065263971557,-0.03637995104425225,0.002116113362632688,-0.07898947011059772,0.004381045198765209,0.0009233246261121635,0.03337658143388783,-0.08462084629960186
31.60555076599121,1.438100814819336,0.03579103321052471,0.11107992737246136,0.034227363911984846,-0.05012423536247227,0.13934250995994257,0.053150682912115235,0.056669630011853066,-0.023292990904990096,0.03886096502200688,-0.11138617228051866,0.16735362870164122,-0.008866757259318533,-0.03114247870211593,-0.02082379746627988,-0.12441728068757721,-0.3213958724858331,0.15259928847887366,0.2886451083500247,-0.03362099063510031,0.02432595490447603,-0.018462105998382057,-0.23459523672914182,0.04045644078591344,-0.02095166265419544,0.006519550890229986,-0.012037065020952281,-0.08111982378758141,-0.003709528180047587,-0.05131600579028499,-0.03300638253717006,0.08089058636144641,-0.011660958662633468,0.0528851356256792,0.1715895195325945,0.055806081697362,0.23670682566362655,-0.060462312889782446,-1.1322774056504945,-0.3049190823802123,0.13401463220324594,0.052650141404744055,0.12964095910364176,0.0924286561768915,0.19697840803385752,0.7806446974152866,0.2366243999944862,0.5633833113273714,0.02553454256991536,0.32044416312986557,0.5584333781940093,0.40409582475803707,0.6886730120366887,0.1093281452461831,-0.025759980702254996,-0.6040576509304767,0.12478532527836127,0.01798068750627005,-0.1229591758692874,0.0237956387018494,0.014489275941672729,-0.220805717326427,-0.08408850819852247,0.039707411345838016,0.006381211710992844,-0.027965637578371574,0.00313332956316697,-0.033769738416589604,-0.028365231133922704,-0.07784284090091842,0.03915883294235262,0.09494236490396502,-0.08705065481546365,-0.030492721171401307,0.04124373158433413,-0.034164845851633915,-0.08041121610874609,-0.1774746290583629,-0.06585283713010322,-0.017832666825538652,0.03362481089445388,-0.07147546141046021,-0.16222171873081725,-0.003832611642193992,-0.04056199725805551,-0.019560580698299405,-0.08635802322784236,-0.0576937940171265,-0.013794975703586407,-0.08439787857745318,-0.04238235431317397,-0.11099486216733427,-0.041527516391199955,-0.032006009967395055,0.11168710874762387,0.022657975546499447,0.03213267901356132,0.04137174056116115,-0.009887487710216799,-0.007525844623090949,-0.023458045216245615
33.04365158081055,1.4785995483398438,-0.03606335579997017,-0.15022868249472712,0.058033686192638725,-0.04483478076024314,-0.13573411153640313,-0.03676342351961827,-0.014905396111313715,-0.15288365396683723,-0.0852855755967469,0.0015216294264296735,0.08732290462578747,-0.07051923310131081,-0.6522174604673255,-0.13587085387442954,-0.19124935487517347,-0.29626582152298864,-1.2534283871327445,-0.2675885839423876,-0.19736375246791152,0.22868460334113072,-0.028848649812238076,-0.07955818558504023,-0.07758535135063817,-0.518415665673799,-0.35825304186461004,-0.5991457409242021,0.14277086499357378,0.25265858967362664,0.22886190455973598,-0.07822318781658366,0.02295072273402607,-0.22308561419799888,0.122671268434327,-0.0916475530304525,0.8577880619232673,-0.13917036380736908,0.42643426967205533,0.10483644280903831,-0.23040189430225777,0.4917288138295531,0.07104788999142578,1.1014994275698147,0.2860561445671743,-0.08108179292844497,-1.7308402093187771,0.11302602555868349,0.17301230689341063,-0.0034511293565992127,-0.07749434284249936,-0.7559498472705991,0.07619459689936181,0.10828518474737577,0.1782050629783766,0.055048185858624546,-0.04335573422559868,0.20164029669249725,0.13938865294813652,0.010048421797508977,0.008293117114268177,0.05337688747308527,-0.060624061663443876,0.0789031046733988,-0.03900991278875686,-0.022130948754504748,0.0428114402035063,0.04054436785570487,-0.07856510459496639,-0.05797366325669903,0.0332603878795804,0.026560628450924797,-0.0214242400245391,-0.10173978944459594,-0.03912917880895038,-0.005276848541692921,0.06778047466414919,-0.0235509016711452,-0.17630450620216997,0.11496548427083766,0.06700964852408797,0.053247644138111436,0.017591320480165273,-0.015134443896924836,-0.017319495149130254,0.10432453474409406,0.11376672388649256,-0.010300016647823184,-0.047985911510186406,0.0028810702635647806,0.07388136964057354,0.015500768301063485,-0.06838887563020335,0.00421734341937458,-0.015807109557200598,0.0464354806365702,-0.06678873805024542,0.026409259977104964,-0.03679319345616483,-0.09731166264292329,-0.1030711388106962,-0.32900358435396226
34.52225112915039,1.4582977294921875,-0.1886519175662321,0.0678691001634307,0.3134648057201125,0.3363131025415948,0.040950303011217284,-0.08151985452920422,-0.02128652064197446,0.0583255446228738,0.09069846230296937,-0.03435849635226774,-0.23727902654439548,-0.10654359137851452,0.012185721215125594,0.00942958805773185,-0.10431057471313597,-0.04808920890564007,0.2698651161083901,0.009094825013779482,-0.012437279463188039,0.018485295785744267,0.11442952206547241,-0.0050118763178228325,-0.09991909759983078,-0.020197735992347116,-0.03677083007591761,-0.08730640287411634,-0.0009422667839097971,0.04196658672236443,-0.029614474535407005,0.013893438054762404,0.08694957868674535,-0.010893581242930028,-0.07802939395882028,-0.10211991858498387,0.029033657377460293,-0.049504002552748685,0.02501659733024289,0.14178260177113083,0.07326575427770149,0.04263572413569532,0.045375076274504794,0.0007658199627514342,-0.20030386754463614,0.04785644651102242,-0.155285938111657,0.08279475627566091,0.15975088780687602,-0.5105669417274273,0.23487376578428998,-0.19435515179734417,-0.24170105875602887,0.1328775823857614,-0.11059567467197187,-0.04687841809136506,0.0949466818442189,0.044592647244116664,0.04353564588769551,0.11554040840621421,-0.04236566072857921,0.02388355551858364,-0.23715989669388568,-0.06224147934664539,-0.2897956683518119,-0.002714775128200989,0.014683638179827747,-0.022323802699493016,0.007654384377978722,-0.01940006227123678,-0.00577489435517694,0.0028895287318426747,-0.15152786393570022,-0.056509674725829184,-0.029243378071863432,-0.012287727168512312,-0.06154581051751251,-0.12347476823519607,0.17703913690270004,0.12773772603564368,-0.02394707031836908,-0.14390369689464994,-0.10830900841190298,-0.03978202964583984,-0.08818757003912364,-0.06203535424934926,-0.09254310216898536,-0.03766297820985327,0.08448839263355355,0.07777756800184601,-0.024366115108899685,0.04575269698369075,0.052581014795932066,0.0998700743896023,-0.03835904240773819,0.043620128169650475,0.023989155875769476,-0.09090328785609325,-0.06781394825718212,-0.04665914128398365,-0.030732158920072444,-0.042734748995035717
35.98054885864258,1.2083015441894531,-0.0732417186697709,-0.12543551076262588,0.024357231076551803,0.09435386587445338,-0.101461161111436,0.12519966692649084,0.053004048140463916,-0.09705942694210842,-0.049052039177200746,-0.02914260377663965,0.14674238257578504,-0.048985244043040325,0.07550584846339597,0.06474734128203465,-0.023255239888084638,-0.030253701279963005,-0.04136014647236127,-0.0969201882293291,0.053222967337124394,-0.12030503582787223,-0.0961427539387201,-0.2726551139518207,0.13316878132838791,-0.014430238278293782,-0.021423752931879005,0.002490014048944427,-0.09284526345451823,0.15386108207385635,-0.2627154393462526,0.12273630096084569,0.10472878817093108,0.08115603818344819,0.09341276827553756,0.09241907538170213,0.13468218416595273,-0.2593879747173827,0.12926582007190082,-0.024281500486829942,-0.038030514090030144,0.03312332341435185,-0.045205572907269634,0.07662651258503868,0.16425453667874107,0.042967169270148875,0.20031417538962998,0.018766739095813487,-0.17369892342354784,0.013009817617176345,0.1996004816162467,0.05959871089187016,-0.01655513482871912,-0.025230243030040206,-0.10400653538507534,0.12069171770063822,-0.21281737233114692,0.13900013985184512,-0.18119127472872912,0.0321165864389361,-0.017713288068681905,-0.07683422499294185,-0.0010729543536967421,-0.005296758584738267,-0.035863118191072706,-0.0774233106318281,-0.06435842250986096,-0.0043069049140426335,0.0754387100197657,0.10190602732065059,0.09061205376288828,-0.029215403614684006,-0.02251674375448568,0.005781466176672093,-0.02845589396166771,0.08175735801479833,0.04962505096384251,0.043777752683562106,-0.012798284012310535,0.15007307996371738,-0.019444859278253512,-0.016745642226917472,-0.059964916236854376,0.042127040837189426,0.12151691223932942,0.01061353228562644,-0.07508789015373399,-0.007606220352188241,-0.09284420405628209,-0.04629002408406027,0.04135933877139936,0.008869761018578677,0.0019999611726652542,0.018606763240137165,-0.15799687947809207,0.030244348422255648,0.047853105653339376,-0.014840869996089783,0.045164598341544855,-0.0038405044019120486,0.004697387105683593,0.0015660899507019543
43.06214904785156,1.478302001953125,0.09735596387977488,0.06247264472178557,0.06682224270106207,-0.1998590455113997,-0.27880797651950834,-0.11046491198836589,0.08780113552905774,-0.1654666551383098,-0.1806056325332626,0.030824833667159542,0.002194969999326238,0.12665732389686615,0.06416665363412365,0.0576009863447098,0.012810010482463708,0.025867622366469986,-0.03412244648707309,-0.11542425528310842,-0.02591096693866117,-0.22593771414142966,-0.13079064043451524,-0.10101983051499089,0.24685678529153765,-0.044708338385628626,0.2169320027008397,0.69888342170082,-0.02397511150651405,0.09848875336764058,-1.5515988393891247,-0.06992954918147168,0.10134897856364047,0.1452570796037074,-0.10244794334932227,0.058701014472524946,-0.1266127156196727,-0.4371925948583705,-0.22790087889720884,0.05690235864791697,-0.024502513508096055,0.06402962814881845,-0.7566680617662999,-0.00027805058819721507,0.3410799066279118,0.06451710506342669,0.1836676440961616,0.17894414481084867,1.3662237556648917,0.37338619063162265,0.13889730891497232,-0.2686717447153496,-0.4461879881464436,0.08774194487218026,-0.04646860768339568,0.018782180979476638,-0.014612614341185924,-0.07900750950782404,0.36795110333013636,0.07804373239950049,-0.23471950903980301,0.44386324792481446,0.4001618448739056,-0.2167257279299259,-0.0232739589215354,0.07197201378192317,0.03549030711380374,0.06962699546987654,-0.030662626858047756,0.06939787230318126,0.01281832798141986,0.0061919592007080755,0.02224153021725348,0.006966298302595255,-0.09671563273802383,-0.2936952750605085,-0.08085054032478882,-0.044342370009786546,-0.032201140732393704,0.0826951915514319,-0.01505759944997189,0.04398260368160899,0.02172867968501064,-0.03305717394498624,0.06853970052242284,-0.047960383939630855,-0.11112187771732768,-0.08889633550994114,-0.0788708753180794,0.029257337197016575,-0.003823749556331901,0.029334776038756148,-0.053016121472541644,0.10043849534509083,0.010406119251838427,0.16016415254883393,0.08384789482370747,0.06531455863294908,0.06176268071867723,-0.07908908539823507,0.09639440929341862,-0.07831683555378183
44.54045104980469,1.4783973693847656,-0.08417755933391821,-0.10651149226678784,-0.05070575923017655,0.025705777835625214,-0.17826644977749412,-0.08288648665546282,0.020153224603138745,0.03528545928729447,0.24290142806274767,0.17155511193778034,0.06292690933406019,-0.200292686060632,-0.01563047128465567,-0.09915658080644646,0.053593863198704836,0.03847266951137476,-0.103304369937717,-0.10835575368823952,0.08379420401600154,0.04091902060839331,0.20906136143256882,1.0356699836577157,0.2953002045378527,0.04458892572344349,-0.22712589941759925,0.01928598548831602,-0.1477661209606671,0.025819951844165835,-0.14364663439226832,-0.21753820329455947,0.06066833863039366,-0.47278814491318494,0.11967137211142564,-0.17372719968150374,0.3632385851502206,-0.08790053662544907,-0.15265054692861202,-0.0895767946991701,-0.04951413124472917,-0.45220037897554466,-0.1316691620456808,-0.04404696896794379,0.004156122856341295,-0.02405505196656781,0.03500866259674183,-0.019001860149736274,-0.16087479413598427,-0.25244264397693394,0.48196130432607687,0.04190565386137987,-0.20491401595602401,-0.057183904605577596,0.23914885528712115,-0.038746232207144515,0.12674347205939673,0.02621578699093179,0.15038545467563869,-0.1817350779341908,0.024432007101527813,0.054323899703701335,0.00033499075827725757,0.03091409735596938,-0.07571672399257548,-0.05332269386983592,-0.02366114875006844,0.00011785358387347844,-0.0024512668519109312,-0.0678005184477058,-0.03815824000454488,-0.032970592508862,-0.07702634269525835,-0.1822310302895777,-0.020412892613015547,0.0834976591865423,-0.010679922798279687,0.037643027203447574,-0.12677464094742324,0.030293994328392766,-0.04809978197824573,-0.019713125221374184,0.11823445114662956,-0.003060669730292639,0.14097405682359962,0.018401894952835854,0.05980194744499684,-0.02603136196817491,-0.034196098927405855,0.06778568943004595,0.015102371991561172,-0.040408198159776976,-0.05300803643183748,-0.046664496682697044,0.034386061684693575,-0.053400435038243696,-0.10452355542234143,-0.00437297637751036,0.006855048342592233,-0.059904755475570746,0.010622648059280052,-0.08156252300927196
46.01884841918945,1.5480003356933594,-0.08599221549545226,0.003636180054556598,0.13191862827115336,0.1908304367653603,0.3599823650918307,-0.013139928859471076,-0.06152098795093908,-0.040126248978230784,-0.04450820145707558,0.03844959957112033,0.07083349010330171,-0.004808852735505218,0.057248971747235526,0.03653684066752513,0.08764467548253022,-0.01918944251583178,0.0015369175463546703,0.008462741404689722,0.029503779817481462,0.07511080525164267,0.026162277278064305,-0.1279964438185157,-0.0005979166604794563,0.07073880759894162,-0.0385304846856686,0.06631548825969781,0.21357877557215654,0.1459542444265033,-0.042045471747624935,0.01902471037128655,0.2065038070610076,-0.018309249932131396,-0.014814886455175523,-0.10314005146028395,0.13578723639621085,-0.19742725680065698,-0.0085402512479259,-0.1830926212413521,-0.14692630104067755,-0.20837375138119835,-0.11819631715846071,0.21773557586534878,0.14308749924151706,-0.12789034036329763,0.07997281228692735,0.047385613989981534,0.1315701726948232,-0.10695383287033523,0.013004393068608639,-0.38862484264536756,0.36007809398325363,-0.28336871487351256,0.038845310095015406,-0.02043088937580802,0.06808546686283981,0.044941481350364444,0.107764476113108,-0.048552126536316215,0.09671585093281156,0.030853366784859906,0.016537651167728203,0.02255811425117725,0.021719329661879866,0.017811898870224243,0.008726587871924159,-0.05639060867473487,-0.04990008830879505,0.05327307312069618,0.010731848348088595,-0.08540669088832661,0.09791910214679486,0.1137485844038781,-0.19725249600473468,-0.1628673868794961,-0.0061282263759164304,0.11404728875757349,0.1418379778016688,0.015699231366207992,-0.06111128133742261,0.1196544799438831,0.048943697167679455,-0.05099208820547647,-0.09473939823078581,0.1702796623657187,0.09087031151867085,-0.007429542395429151,-0.04015972258356423,-0.008818638268817654,-0.0023683203954195965,0.02176960013815694,-0.1235972942524533,-0.07503352839885333,0.010350771341084013,0.047978213518681555,0.1467598275830665,0.09346501416061151,0.02107314054474164,0.09654986650093501,-0.08234602070736605,-0.05994804950879361
47.56684875488281,1.4180030822753906,-0.06816999401016717,0.05315319047787854,-0.018276532013285714,-0.06594625321955118,0.10913085516562084,0.06932130694334387,0.07522527024965338,0.2509874620773203,-0.4014382325346708,-0.12086146586712607,0.01988854939379634,0.13520277237192374,-0.010260500121520456,0.04819841523979394,0.24266651359988597,-0.04772494180134157,0.03354069307963846,0.11434518039569566,0.014794783185392792,-0.08428209494024325,-0.0841383783862626,0.05004518083392507,-0.02914298490392147,0.027606082168709273,-0.08398919796916747,-0.0018949912933247832,-0.08968741752139794,0.014706467413556577,0.04533649338366129,0.04279738332653731,-0.04332832913499389,-0.0062590117818050565,0.05777485387500991,-0.02047437909443664,-0.08281663926379709,-0.2590478818066351,-0.117093873244906,0.008757808889232752,0.12170342672125972,0.08804420261989518,-0.12925755151701346,0.058653512741195166,0.1039307581269204,-0.22934196941791798,-0.010441390774443629,0.040003142732777074,-0.18365480708759027,0.049921601732630654,0.5440105242070326,-0.1919562529706374,0.028971937462782635,-0.3681951812873777,-0.02477542398519572,0.21440662847034214,-0.09361410820753044,-0.33152264773650736,0.6495533091982182,-0.048015732524997086,-0.24257862590947651,-0.07125965705128566,0.082497375320452,0.0003227406561326694,-0.026369536893023512,-0.098343804955473,0.019723220383232626,0.09638445818125266,0.1001817963044785,-0.07545574171836289,-0.00893946521006671,0.033526109533610904,0.031266045220172047,-0.051633479417459646,0.013270109022105325,0.010577290860180263,-0.1758892939361888,-0.03577458843625121,-0.21134780816400395,0.05530577163061385,0.054800369899254464,-0.08560335670994493,0.12637132139242574,0.0017117109384280713,-0.009451741319941316,0.04615420747585552,0.04765834166003079,0.011966941431027247,-0.04080913990471466,-0.06581949950923927,0.05888744399846844,0.10302210973623503,-0.06976517958592221,0.034779440218126526,0.02729992657025329,0.008613695949102225,-0.03359697161430331,-0.027742052939965255,-0.044916419016580465,0.04064394200988709,-0.024120888248712335,0.06492495308728134
48.9848518371582,1.4383964538574219,0.06780190994071092,-0.07867934971569411,-0.045692283735333517,-0.1632629020353893,-0.09889737593912508,-0.27084499753733715,-0.08925265566875555,0.03980193434861273,-0.08634343646902745,0.03621360470058986,-0.005817104806755402,0.033131961416964235,0.12601782601887934,-0.14094987828905922,-0.010483281959951157,0.015696988209072307,0.3185529656825443,0.39345378089997846,0.15943414450627214,-0.022238570478935134,-0.04668835198495828,-0.17774301867385575,-0.03949243568629217,0.34532605844584435,-0.18120036110685966,0.14018204836620712,0.010190068176042812,0.1865938072973889,0.4580123345469419,0.32856246330650307,-0.23646796719618116,-0.09320754065896131,0.020193234583785226,-0.16573729869902593,-0.4236176934084868,0.145596994129733,-0.569171646312673,0.05938612872607561,-0.1941516555673818,-0.39504930481352224,-0.4615248794152504,-0.13086712638629994,-0.22851224820093266,-0.1929930431247323,0.04599009920403907,-0.18670815170345037,-0.15055385966012244,-0.08093899641701993,-0.08065605754945372,-0.4646666759487183,-0.10799619495286798,0.20996511677650984,0.3433653432340744,-0.3036662653237339,-0.2381278870217382,0.019593992550176253,-0.06579514156799143,0.12730521265319783,0.020695228854592657,-0.03873300538557427,-0.06241558631071358,-0.023977523905016875,-0.02368875327677899,0.02906596162923443,-0.030837256828087457,0.09752407119629633,0.07341563703549309,0.08145121680843184,0.04831413729623881,0.03999010666194673,-0.027726272591888538,0.08271276407516173,-0.10622146460946072,0.04650082643328035,0.13924847076521557,0.11384826528957001,0.15681573811646585,-0.005632880869493567,0.20396223837956637,0.12701568672144298,0.08632481040603787,0.014135072635468784,0.03952890209859643,-0.10142714936674466,-0.04230072446797432,-0.002123067913541265,-0.012403228828223091,-0.020708885156962342,-0.007169002831576321,0.026002568381902805,0.05317313534026358,0.01273775419735465,0.067508997210588,0.00110161649582193,0.035221001511323576,-0.03450840625208386,-0.12772306037966716,-0.05911858988345979,0.04412076413776191,0.07061172043258562
50.423248291015625,1.3788032531738281,0.05936680177064889,0.17821447084108927,0.2867478629092213,0.07007346158209259,-0.09458584963588337,-0.22685065860931972,-0.0908978142538075,-0.08680029955793486,-0.03733828569231643,0.045750485594780885,-0.01906476338833306,-0.05969548956703771,-0.05710342292942426,-0.09054234398610808,-0.07653828371719668,0.07162990489021402,-0.08349145839735098,0.2226913075550334,-0.1262017288104839,-0.000815006657990721,-0.01001330205946321,0.11341433684837954,0.18431473696147743,0.015369546068840776,0.02034857945993779,0.0369527170473418,0.0442757684014077,0.2235266603481601,0.07219784102943252,0.08960967394998515,-0.15758765299590036,0.03375892343235552,0.04260009413308545,-0.0008731729516942812,0.03932829580644043,-0.002652818543227256,0.016770034785016433,-0.10648702726270655,0.11553200920411308,0.12115302039090332,0.045657825549592176,0.008813469455702409,-0.28918387054825156,-0.18379847135656102,-0.04081414962898094,-0.15771655849098892,-0.06894638668156017,0.03317929592897652,0.11749517330545173,-0.19406133790316327,-0.24614221714937973,0.20921141584752787,0.20815609348873926,-0.19692106069245005,-0.4701588045037528,0.31612331716704295,-0.15048523443446765,-0.14752010096213167,-0.044072708691366626,-0.047028264516297685,0.006861593861920639,-0.013286463932620942,-0.03893938818058149,-0.10579382069160681,0.06094848377963383,-0.10643925320747759,-0.12862057518526804,-0.1426651349097327,-0.003291920150276976,0.13923507069225544,0.015360641236345477,-0.033223444300925414,0.055250174368471905,-0.046482144491274364,-0.09997324897618554,-0.11524509470683574,-0.17875271489142772,-0.18150770423708096,0.054086252918174524,0.04999919039509551,0.011216246907036542,-0.00788706156720867,0.029600312200478582,-0.08753306221410456,0.03886138222029715,-0.05902426139125949,-0.032446368002727134,-0.016559706229671935,0.03323425679743172,-0.09148401299919555,0.0016109504334420582,-0.08424408904694772,0.0873456956505318,0.004028776616662349,-0.08281022196622007,-0.10474829989534426,0.05119526053616171,0.25087867485925297,-0.06635695347454477,-0.03741621305560455
51.80205154418945,2.057598114013672,-0.017221096269255807,-0.03282013483577846,-0.11750994200327301,-0.06420653474584494,0.15360760620498315,0.08263262414894765,0.00828087035578162,0.03416598177336778,0.03557469509257386,0.0042818201619521205,-0.07461872855335569,-0.03768192759521249,0.0357185334981376,0.05102350902429803,0.139950172850423,-0.017308279810066413,0.01904110942926219,0.04559305984555067,-0.02130679884304841,0.007201823747366998,0.1993913952419879,0.2436816300175199,-0.23121663007326515,-0.4029649175681653,-0.22406198291694185,0.2173793222975523,0.009615005586897646,0.0006621615588951137,-0.05393016118395059,-0.011781281742183208,-0.15928111088292563,-0.13105723982232967,-0.044224979507345843,0.14474012630550195,-0.0225057512935619,0.042450554802251204,0.048393369885913994,0.40968855912128316,-0.5983942778817993,0.23595606625272442,-0.22570496383568914,0.023154408620888415,-0.42363314278452613,-1.4693547750815426,-0.2473040883141473,0.14026075094320734,0.16407540455857061,0.09687002082382346,0.04032672377548377,-0.4360239252765121,0.13590650784921435,0.05873345554112963,-0.09470350521660101,0.1991267310725888,-0.09399097363647275,-0.23176695128906172,-0.016290887323769467,0.05833081077632084,-0.16544767290105106,-0.035765612160957944,0.16638668799730005,0.0570791948338149,0.002591672746417204,-0.05278834362577749,-0.017296924971593915,0.12838616001393152,0.0640682346464749,0.0005660981065291589,0.009471765344033621,0.013775812966250094,0.06893318869798708,0.0519082243986328,-0.13007413722897487,-0.025090520773279938,0.037106256719881055,0.12335956454897022,0.11162617621230579,-0.06926524354834498,-0.013026775620289458,0.1432932238516655,0.08208835824937759,-0.08060502268725502,0.010907661776686521,-0.022885624618950412,-0.009281687476959725,0.10646437988438018,0.013009129333346397,-0.24973224549210798,-0.0995651423494394,-0.07080670482456658,0.008476837086711281,0.03274086644874117,-0.06072499609573931,-0.0410923472157914,-0.008477535080666603,0.06839283814900954,0.1457942226802739,0.12147415347420554,-0.1999597001805287,-0.2387017011293293
53.859649658203125,1.5382003784179688,-0.10645773486207032,-0.023920754830920266,-0.04845558303102652,0.120285071550146,-0.2663474637374227,0.34944580015298515,0.11103498009340072,-0.3660633855562805,0.06581626349106084,-0.0703839224650885,-0.18811711834164818,0.23532576053440277,-0.02637424106345874,-0.4252087822894456,0.41675668632835844,0.28740981697976764,-0.18358802463142235,-1.0111082443385788,0.7375220977002124,0.29110558164140926,0.4493023734667931,-1.0633579714862054,-0.3132237696112156,-0.08411543398033461,0.16932021861492205,-0.8630803664972678,-0.2862990472826219,0.018745366697377086,0.35889668099977706,-0.5537068938311345,0.13872635522520652,0.5752088354331687,0.23037877452164401,-0.08563600941217275,0.28267269249648136,0.5406711163765716,-0.2371605286460798,-0.11644126860961944,0.06663514914138115,-0.15487029994352725,-0.18373080020858265,0.08045529800307309,-0.3897334874441305,-0.15423423170631628,0.2027618638069759,-0.12143339774402684,0.3632816670994037,-0.01889300223103397,-0.15859175067378442,0.009532482926755959,-0.015326713384723658,-0.05213503914742661,0.23376288872221138,0.02349112900450753,-0.012751507375106198,-0.018355563053025575,0.2883708158828612,-0.274469512216541,0.16292173244471805,-0.3370433335705478,-0.6691109179021578,0.3803891882747318,-0.37445063687919533,0.6459957359113578,-0.1801580978119346,0.2551424842255241,-0.5307358800665452,0.01286103584551163,-0.4437925694558238,0.3847472974825542,0.22419071373166116,0.3082553149694004,0.5532387270793535,-0.49956206137305387,-0.1461494182784024,0.09973521449233336,-0.14885307786291133,-0.08992856086324401,0.15442658248735505,-0.14777594870143562,-0.05703451416234462,0.026430546582934998,-0.006765329776183481,-0.03474436828385574,0.04791250218939173,0.018319785976342817,0.05912078694493788,-0.01937421392202454,-0.050536822149566944,-0.015930889351346674,-0.008163468068541941,-0.08784512623318629,0.060529639305396725,0.04341055420886683,0.11851425741629687,-0.07217907207489963,0.05590854487168079,-0.009891222885192591,0.04661251303912582,0.014710027643362496
55.397850036621094,1.498199462890625,0.02939099870117804,-0.002696952794859736,-0.13851645374665203,-0.0047682016151976425,-0.00021231585764384248,0.2363608587755835,-0.027306810657939856,-0.0218872408510303,-0.1427254447501617,0.3422510791622564,0.19192814251261583,0.035612999441139104,-0.011864757536867497,0.012157004491540524,-0.04000508589632877,-0.040789883286114756,-0.219801734424033,-0.18280171054456362,0.044370707872254424,0.3864945249054411,-0.43871513003117835,0.09543847027452103,0.09000177984056557,-0.12645580962222955,-0.16181100970558618,0.0003279283589285145,-0.02989913191386247,-0.35994263183603104,-0.09043681565457062,-0.04723914880598954,0.0028659797728002104,0.19848320935480487,-0.03885850571048382,-0.05732361604953904,-0.2159782156224609,0.022613089383098424,0.036213213602020226,-0.02026092268539796,-0.3851573847095848,-0.03758739780481147,-0.06211580922993167,-0.03473784641506474,-0.08275360385016223,0.047428383762456186,0.10162503848180054,-0.18416704157334146,0.0395670463754516,-0.5007775422695451,0.2925629230175566,0.356334964784169,-0.11487989900005537,-0.21178880786314072,0.08342442595267938,-0.3697769227788151,-0.15515175448204782,-0.268185702633966,0.2640319223915442,0.6018454623140475,0.4496843201850149,0.0001273765946037085,-0.1538345626273225,0.0016446637792231766,-0.037054746605371974,0.021999850941660015,0.04879339267938468,-0.02632341268202175,0.05487909565641484,-0.07746291761106386,-0.07699314247797703,-0.05683768502711678,-0.034010489993015994,-0.0236535119954326,0.006716211755976357,0.06358408711846848,-0.025124151731204504,-0.24586270526771667,-0.19984975765850752,-0.29675005807708527,-0.11494782142164536,0.052963785286969725,-0.04270481423521288,-0.030129208569750085,0.09433959186174784,0.013490014566565671,-0.07591030974120423,0.08831973166866387,0.03487619658073838,-0.06995897415232047,0.05083763003016252,-0.07535677251784288,0.05513924846931256,0.0526258428517657,0.04357095121006168,0.0774336816450798,0.00235875593278819,0.0749825997642083,0.12709637533158866,-0.010074511946644646,0.03870111817573864,0.33522698152004093
56.89604949951172,1.4681015014648438,0.34315880653555614,0.10241230784889177,-0.00792009852133492,0.014729819611861393,-0.17054405143032972,-0.08938647754817625,-0.03604337629186856,0.11355013810163078,-0.10080057652816848,0.09392159005094576,0.1277968409078931,-0.004866335641543774,0.10929341380727306,-0.0016963579570225679,-0.09637602748331595,0.013254207970463276,-0.6596521315708679,-0.33690105961674566,2.8198953291812257,0.03936176399093594,-0.15594767100443466,-0.48167563971907307,0.2556873748701157,0.617931370683718,-0.4025523928882259,-0.5262923428317635,0.01180213976320147,-0.2539640550897876,-0.2508133749501704,-0.5537811284359585,0.4837009096384844,0.035608017078079174,0.12933297204123353,0.5966749676326585,-0.44907416133020134,-0.2866936431233421,-0.5531605765649854,-0.4106676247979308,-0.5763435801931835,-0.06516212909470491,0.5895757704815253,0.5758897339832857,-0.5177971519686757,-0.27063580240153307,0.13091568491962546,-0.08247069765244884,0.16050193700258908,-0.18701462685223802,-0.09985273991675528,-0.20816640686932744,0.03650071668724863,0.23160689164108092,-0.021622716586742287,0.0002480343924768768,0.015927048818560163,-0.08949971420861234,-0.022926245976784367,0.12125340070870474,-0.8197955470410431,0.03562296188695836,0.06668647117774996,0.0002705773223187491,0.0945555492376748,-0.05757710896198312,-0.28464686868774147,-0.0735746712365098,-0.23171105692417335,0.032810608921320365,-0.08626954144006134,-0.02399565422395932,0.00048123314691818516,0.04686180799392522,0.09960276889058443,0.047141114933710176,0.10930967045796068,0.060959476612557476,0.060782725964594914,-0.2730281177250706,0.0011076829692960029,0.03310993490836195,0.03122472558892676,0.08058629001713301,-0.004328896642365616,-0.02601465943871329,0.0375038660657682,-0.0842559507159955,-0.06394435739195416,-0.09008811996218971,0.080462864988899,-0.09497700077038702,0.15286688523183367,-0.02096280412201712,0.06554656490490204,-0.03161680337548603,0.07449010083095145,0.1037780412446184,-0.0826823489454724,0.02851463258701202,0.004179971445227734,0.009248018518207612
58.36415100097656,1.4085006713867188,0.003297428093867641,-0.0907341065957088,0.12911340537044713,0.23654599805831938,0.12524699011875787,-0.013320463916325022,0.1421414061281717,0.0001440609262773982,-0.0818018111525124,-0.22536174101047557,-0.056359507673083245,-0.21085381317670016,-0.007658048734238858,0.028086829508428213,-0.06992676997115671,0.05574870482833163,-0.0343147974519784,0.003112119099527931,0.09435733055714145,-0.018730691234404906,-0.0253170592793831,0.22974379620231308,0.037482356931672525,-0.0780657764187527,0.0647054520223076,-0.06555699054685626,-0.18748877083674753,0.05384736170981455,-0.3390186840885409,-0.060474564166377476,-0.07147536812791977,-0.04077103896791402,0.15098242114819707,-0.053551409850361324,0.2707945784151363,0.020723549773171493,-0.06906004792001401,-0.11499245775216026,-0.2794117581503764,0.11742064391122647,-0.0014765588360867998,0.07245679327868652,-0.04148624706633045,-0.3985995228450032,0.08346979842926278,-0.25857552746473406,-0.03411478436227858,-0.12986293145847172,0.08951542825854275,0.13080610515467894,-0.05001027268674913,0.3662711069542826,0.2447712156391012,0.03972249787008952,-0.11401774853067839,0.2646050680445677,-0.4501385602663709,-0.22314233567387734,-0.41802264658090715,0.2204557055161082,0.07122263720700926,0.057755847902642474,0.01303968076724588,0.0032309994079391495,-0.030282160977494983,0.0597512076552139,-0.019926022159269155,0.052850692363332105,-0.10018483181557487,0.03844604391445544,-0.041969011943571506,-0.008180679121566578,-0.032070559914047475,-0.02959195200388882,0.21618596578899535,-0.08143592291955636,-0.14255938719132075,-0.03445190406092437,-0.18062341318828157,-0.03898030038256488,0.057551087726232054,0.18144745871966125,-0.04439157497510891,0.06605207889021668,0.0681970899601324,-0.0825764978787352,-0.06496655187148886,0.029449745328754474,-0.001329061264241655,-0.00978702121528305,0.07432232607244414,-0.09143401274141015,-0.12712526126583415,0.013590372044957114,0.010295454983608482,0.011123952066114046,-0.043069034630003916,-0.053148269207266605,0.03464265598018521,0.2799759251013128
59.77265167236328,1.4484977722167969,0.24255609838924042,0.005626616335748054,-0.27394097088004965,-0.2697482467725348,-0.22418529685105062,0.01464504783157361,0.03514262414777693,-0.0014741950252418683,0.10265022313314227,0.15194013729609757,0.05892659209057591,-0.008761456116011973,0.10825366191607427,0.021412736267389466,0.019917136444072364,0.08507421884163212,0.015743523380940663,-0.10660116456178052,-0.017449445035261954,-0.021284579633156102,0.008454301935366122,-0.12021757485258586,0.0950163907406832,0.15217603216868938,-0.08206558220293762,0.17740049514408326,0.04627488650289568,-0.22751346154641122,0.11870659990329217,-0.012678815741451136,-0.04791393103946606,-0.04052993729682875,-0.8974577997311239,0.017508167254231603,0.34767914279915735,1.5341554711226262,1.4751140293126381,0.11112738889563396,-0.2475226053444484,0.12198165860789331,0.6330309008845746,0.19934140648488302,0.3574037360630437,0.22354086684716845,0.08727331871291137,-0.15821124882271564,-0.2320814889810694,0.14203581885086086,0.001979790828336908,0.06147186129922874,-0.16754991142127823,0.16450265438235867,0.3092604806262655,-0.02103960161565717,0.10620998366872385,0.10192862113698453,0.005320505596339989,-0.009776222699865406,0.08017744804873961,0.08036714016249871,0.029938210276734822,0.0020162087960367177,-0.038301503279295185,0.08343335715422687,-0.041726837590664013,-0.00819215466983627,-0.03412838061078988,-0.09026200080593347,0.0011387945895920686,0.0043933474368317085,0.04606654802046021,-0.02258265756884077,-0.06041917965944398,0.015535178696926536,-0.06221694486390414,-0.19224555209372185,-0.05907103289097751,-0.1032399423139321,-0.011592401435324659,-0.040975271263316654,-0.024279752410853964,0.10906031114347546,0.02556415826381403,0.10491492688751179,0.05033495512789676,-0.005731281146130578,-0.009143710198501458,0.08263801065812851,0.13098825057042895,-0.030282420189191035,-0.08002546860419538,-0.03228236696259538,0.03291057929953699,0.01674153339264802,0.0016993835323017258,0.10051017380613639,-0.08496656289240341,0.015799374824757056,0.02792697019409523,0.08565225987685525
61.22114944458008,1.4582023620605469,0.07265770654647159,-0.07624320491062314,-0.17673298834074713,-0.058445721262383434,0.22944187271085556,-0.035577266018303515,0.04724087483869983,-0.05302034935164702,0.027627321276350373,0.1870166491796899,-0.05070439486967465,0.05881790647287763,0.02952095672520015,0.10715945451777782,0.10469983781626246,0.08004420006666785,-0.06929933081903258,-0.07292216615801683,-0.08786168807430204,0.04357910756019234,-0.06917074217259721,-0.019703406807012387,0.010753617458671469,-0.010354381341195984,0.0719599005178252,0.17944675680393457,0.03268259712701879,0.16890774641829143,0.01634398090931425,-0.09793948910726898,0.14199529712963027,-0.25292391967418515,-0.011118842617003119,-0.011180368652573039,-0.2283616447088931,-0.07407007572974036,-0.12278696507837471,-0.04912439334444435,0.13243357226218605,0.03054029760061515,0.008846282237335919,-0.034473363600367984,0.3256418033369212,-0.033625427715359285,-0.0643164211340863,0.30660427901499393,-0.04076034359138825,-0.38556706301167637,0.14672708485017763,0.12398833055025701,0.0745259531645416,0.1949293658041993,0.10684402708623797,0.06253447052385168,-0.22011483036362586,0.09473707550463917,0.28311340344053815,0.3126080838808881,-0.0395215898443243,0.042934299556211405,0.014568073492494601,-0.007510513540801533,-0.07078545746254697,0.00848013802828287,0.05735217434393841,-0.024208841148773055,0.01690090968434434,-0.010783057760231612,-0.07897023782922552,-0.042627119480984084,-0.05659300604185539,0.04512339852554425,0.0427866174673862,-0.08688101574843954,-0.16184433292073322,0.004957344229832515,0.05937219980594017,0.17348045303198228,0.10070566396121766,0.08638634870687885,0.0885628814688543,-0.008855033310101759,-0.1639270065340121,-0.0232343535992416,-0.019409308177475722,-0.018558663846033246,-0.01223144755851984,-0.02421539311712238,-0.05551769687062755,-0.03148600173406299,-0.024621338189175165,0.07087485924172796,0.24750003489724548,-0.0671043728442526,0.02880021195245134,0.04917783720744091,0.03710722396357067,0.07195619971083533,-0.058654418130066575,-0.158601658048383
62.679351806640625,1.4478988647460938,-0.1576479339850684,0.0007778844778903986,0.098898132774452,-0.04448246096264974,0.15948206030045295,-0.12111711159224894,0.16948011067026636,0.022878307657430215,-0.023277770515367162,0.3267401957243832,0.14725685766185578,-0.05844937094132537,0.10018082313406855,0.05588549501186792,0.05784777690910611,0.09806119069175515,-0.000607574552848017,-0.035900841022428485,0.042267590012762195,-0.009512407486986696,0.0071047954956397,-0.009861183765235926,0.1998200491939961,-0.07755640298404205,0.07523603228917985,-0.14429111280671808,0.02859631184301194,-0.1023356142403291,0.03814957584551334,0.10239315855662927,0.09609989600452815,-0.031523847469872475,-0.02686233003964097,0.12604494826176824,0.13292662726333088,-0.06625114818990599,-0.0002593845221718105,0.06780353000652847,0.20462694083886346,0.0516120864896413,0.158098235597488,0.1567420808435446,0.05225341569405259,-0.047350674871184203,-0.4444129645778951,0.15795067876237465,0.1375154523926454,-0.24298524672534264,0.3913179533205725,0.10442794035341303,-0.11417256624529477,-0.17864681964948262,0.4466090941905627,0.09414297767250382,0.015236354403251693,-0.052036286908010834,0.054614738120122644,-0.06900723701665562,-0.07431927509883446,0.07063935236641285,-0.0371958695298167,-0.08107814153516234,0.010960029188067578,0.032561652348246414,0.13774704326041293,0.10072533133302669,0.11567274500997532,0.03221063445721331,-0.0072924735351860715,-0.06883247321272354,0.023396106187145247,0.012901820852681711,0.06185050612804082,-0.04297126980264738,-0.16155308687930597,-0.1391977029756424,0.03986708670179136,0.04974250619569816,0.11561483986084209,-0.06279662468764378,0.04244213024697526,0.026219942550990628,0.006593146194355647,-0.015885796153472576,-0.007510613823146663,0.07131273195168988,-0.017446677273166022,0.09903499581276132,0.0677411648444051,0.03157678462704912,-0.1545631384272262,-0.25803960462593284,-0.11087005492072158,-0.07366687993582316,0.06162292736598069,-0.10222215360755019,-0.13090423957237374,-0.01153352015088275,-0.09052959235007757,-0.04709932842308076
64.12725067138672,1.4385986328125,-0.2065261183795907,-0.13792227981579247,0.0465655789559118,0.12415672609748454,-0.16145660714102641,-0.036293324602993636,-0.1908919108814942,-0.03136888925872968,-0.12452978618059367,-0.3455344977900748,-0.10199848148411898,-0.16643178063560257,0.03830259647232632,0.00974114661837096,0.09546188346790911,-0.02658179493327521,0.2897274426808606,0.0007058431209564101,0.0760503146359955,-0.0031900454181685673,0.0009152432864218324,0.06266222554275676,-0.10419909387797902,0.03429800514921682,0.060524993046023434,-0.08597692619988669,-0.027795842837202815,0.0685236037721778,-0.012116924116109106,-0.0012030162356953707,-0.18573391713995513,0.0006738231022090911,-0.0662611272157962,0.06090500307584094,0.0699815960791381,0.027750009080418737,0.1673408802955904,-0.1947642239806128,0.09331637681011384,-0.013928758197296295,-0.12551056069075858,-0.21268499794479978,0.005968529161301292,0.04001955149287894,0.08565420698156223,0.14378194030613745,0.077611052871119,-0.29202874317829863,-0.21537708049173748,-0.22794711008911875,-0.24192145975737572,-0.18872405185235894,0.18965776956071287,-0.050208259091968896,0.12662210296943405,0.266617661034483,0.06074996284685606,0.05596748940439599,-0.006647686034868642,-0.03192886810272617,-0.012133142803725244,0.06260273754160894,0.022809536469590382,0.018436069770414388,0.04398844463907865,-0.0646522439403341,0.0036927695224036887,0.05870501096972851,-0.005023850248166664,0.025587869565345478,0.02041596523014972,0.062496653456984914,0.07229753201071568,0.1917364254315987,0.0023657663325309247,-0.15406541170452576,-0.023281854595012537,-0.0054099987741177274,0.14832985451452568,-0.04838835280625179,-0.07184844787772693,-0.1355212153050484,0.01744841339182253,0.040735414649329886,-0.011685319149070525,-0.01023906182745635,0.09666771176575342,0.1558507578772493,-0.018254099071024564,-0.0389050947283698,0.036279762421704186,-0.016121231604951988,-0.11671772846070255,-0.011570886932802312,0.20256464976409932,0.05276492878061495,0.0076342369634966175,0.0074303671863638334,-0.07093711006590864,-0.19630243833434977
65.56584930419922,1.648101806640625,-0.06494735857157234,-0.06659494195704488,0.0036255114034971334,-0.04479886230888958,0.050894190411588325,0.016317392454357676,0.042830830853422854,0.028864743985762633,-0.1069962823168506,-0.31019678419583346,0.07523270942896082,0.1485047602267591,0.22009953933670534,-0.07037506409845058,-0.11706517842874327,0.07627785458585398,-0.027937423179605656,-0.12074666871967431,-0.01900135336067556,0.06576651173664838,0.17017833004449445,-0.8236589800957734,-1.7523184723624181,-0.16306587712515289,0.033244030958115504,-0.013031230639230946,-0.1474706935591284,-0.23275675207506438,0.02288588811945349,-0.027896386774117467,-0.06706586120364406,-0.28917784598501506,0.34430916642484505,-0.019744856270034743,-0.07598616188122417,-0.20887952943817983,0.5109536098620812,0.30464841103299645,0.23800325333182262,-0.03122782626016741,-0.13097516427922043,0.10304310149814487,0.08197603830446637,-0.11098375602033532,0.035520489782250475,0.005766921775077007,-0.15089434734161938,-0.017986589134496023,0.12754034110292697,0.004516032323426879,0.07443275710084063,0.09905514606449871,0.06860968146705679,-0.006894477244859636,0.17758542206714123,-0.0989387733026088,-0.03887056750895231,0.06079829888457378,0.05004877638737541,-0.11024058577217387,0.006880532183957799,0.1914444084221876,-0.03627350544526149,-0.025947633444992,0.07564979622794438,-0.002913071939949397,-0.06376504644510335,-0.06755977796553386,-0.006623565148726918,0.03431415179192519,0.021981452014248115,-0.02342136257203443,0.04129747813454976,-0.0214788311458434,0.005658706464612362,0.03303691611763794,-0.13258194906300155,-0.05719438299814419,-0.043844120182287005,-0.20279262546259902,-0.12126825798373327,-0.038496114597648075,0.06871391415141374,0.06139676469856833,0.11106006520263763,-0.059550254611109764,0.0008922506345615049,-0.00873024570428143,-0.006212565841778529,0.10117705644763539,-0.0010824627445016194,-0.176984537124758,-0.10515687527690135,0.02930807936282823,0.029502792946974065,-0.04407812600205243,-0.10674037426795258,0.051429567531231936,0.020459198381841803,-0.012030476719557877
71.94815063476562,1.4285964965820312,-0.026787179526330807,0.1437896810352954,-0.12029661769216532,-0.14647254109735275,-0.10665988437996284,0.072524601081946,0.14425653882081738,0.10067318533685415,0.0877845322938405,-0.027736943297793675,-0.10132573968417621,-0.09825975251041713,0.04938418067940237,0.01439670843808501,0.18481374174639995,-0.02313811500745365,-0.017356650613684896,0.03676141467577733,0.017099798892037082,0.03910721842490846,0.12576241048414397,0.06375274182912545,0.32110644257049537,-0.02018770806892583,-0.12172342906057508,0.061592327658819765,0.12612510695434115,0.020946454411620165,0.0441328474281652,0.004805553234849344,0.0637812901634565,-0.029437232697520813,-0.010177700788020567,0.10332197032838245,-0.13015624397593267,-0.01583329745106769,-0.10259268404351861,-0.07615539317159226,0.08018740269963766,-0.3413457862378118,-0.062477961312495965,-0.04419010579062903,-2.4767972053058463e-05,-0.1138146415066113,0.1613188010972775,0.10647433738737898,0.3040664604839144,-0.4635991501353863,-0.28916878471893576,-0.09153152947989927,-0.13369461543458197,-0.004932717837011352,0.20390785755095797,-0.1283452395696538,0.10324587399866528,0.0034377954620739143,0.14001917186123958,0.5926770818726695,0.05637133050645547,-0.01016947086423009,0.0008519581492572536,-0.037413690729897114,0.023153199638495353,0.07282998915690256,0.025567925430173728,-0.10516359561629719,-0.1461388501820495,0.009167663138090282,-0.023782295092954004,-0.047136686076521016,-0.03555452394107011,0.0376246533889767,-0.01498794625794589,-0.12131357662108233,-0.07806470055143172,-0.10275852797498272,-0.10043421835141493,-0.01769145796684195,0.059707406710967297,-0.1453536239941794,0.027687396015934403,0.08660098951370615,0.1447485139005026,0.06871813550918493,0.09237193097301502,-0.018836929419713495,0.07466089586650553,0.03441657262577295,-0.00596680140256972,-0.007040698628483798,-0.0826020997139596,-0.05049894912280569,-0.04585144415407903,-0.05007163506815327,-0.00854161098429482,-0.017852826966813527,-0.13070258804238888,-0.0288872439093857,-0.14186345564312655,-0.07304756548034197
73.37674713134766,1.3884048461914062,-0.0945787046974188,-0.20734870198843286,0.11271940787821334,0.04371293455716698,0.06168592383830275,0.15642430580562008,-0.019492859556899333,-0.1635875691165981,0.07121556693300594,0.00972957826770196,0.004708062078514616,0.08768951749799364,0.45699769377142674,0.10389755301963255,-0.09985042761945959,-0.09500035879696472,0.06640177023808073,0.08760847703221268,-0.011197243065693785,-0.007098606937008972,-0.057017850036484845,0.08561655235132654,0.08666511990912168,-0.07783397705525932,0.13323028716594731,-0.12601459989091246,-0.03355908546961964,-0.012301533876751434,-0.04642476758382018,-0.1477707626402499,-0.011374900165485759,-0.15661193218393732,-0.032628023614243,-0.055429003850598284,0.12891986489095836,0.07431218439071803,-0.022111688404380984,-0.062473931593614175,-0.09378066184717038,0.07092817091045019,0.0803941339207611,-0.10350295617930139,-0.41291157604650464,-0.06489384217734531,0.06646077655780844,-0.08790526761421497,-0.03052936628389126,-0.5844351710755681,-0.09697162823331879,-0.036847988703711,-0.4483603943057686,-0.08312157028491203,-0.06279401002685644,-0.11403258425527898,-0.03519658743766556,0.08294247639859283,0.1574377174477145,0.28118420638934083,-0.01835371248701899,-0.0019626633297516174,-0.012560808637362716,0.01603816951380442,-0.005515870490804077,-0.05427553050908913,-0.05265102741071616,-0.11376055926971287,0.030748111085752896,0.07082415486603773,-0.02224726125768209,0.1298149095810558,0.02601834358761202,0.01349700276874482,-0.012543841713756708,-0.07482119342740572,-0.16311834367965874,-0.2508028494989607,-0.07947006464867194,0.009300015264819494,0.03159517356643048,0.04189870914667785,0.011227784549593306,0.011792059286477023,0.058095938805810265,-0.05773912578025801,-0.03026281937330768,-0.07576862809937582,0.002668620205526963,-0.03775995538629551,-0.04391748096834673,0.008177605283806143,0.022353643595373524,0.1472038306775223,-0.037385567849053385,-0.10232328022867024,-0.03914832527700508,-0.029301771732256843,-0.0012693024798512767,-0.011981271116631664,-0.08353455044801866,-0.03480626898974486
74.76515197753906,1.4084014892578125,-0.03486130910456601,0.025461170263924686,0.04216007951933784,-0.0903520889612666,-0.35047866096860125,-0.06465279239529648,-0.08881853761103682,-0.025787391440577855,0.1225578378466003,0.10753370068388111,-0.0017443059349934644,-0.31589505785459315,-0.02142032329863737,-0.05875180179054633,-0.12322489646224985,0.009882068592769945,0.041430047421221715,0.06469379760197672,-0.14861692963015066,-0.1371092391151017,-0.08189484498688479,0.07665388317021116,0.06172524226894986,-0.012186909435012229,0.018143908035998312,-0.07234555817012744,-0.006543524435022762,0.129577545838014,-0.1128185541915225,-0.13666707756644575,0.0703460639073123,0.12737461889015284,0.018314992378913684,0.059599486024170485,-0.15485728559940684,-0.048470429422033015,0.13205485261207123,0.1297325386991299,0.04804037906021005,-0.02787476846738038,0.1079115359837287,-0.21195614191077516,-0.23307180154482807,0.04001397718196903,0.2028266350044591,0.014351248707966233,-0.12918367515558402,-0.055128149913284914,-0.2795438772097642,-0.18603519119207673,-0.3645769010665355,-0.30249131605053386,0.10015883208445102,-0.00778649405926193,-0.1191636803365441,-0.0776396129260018,0.04586765078877397,-0.3013279313769459,-0.18175917844818842,0.053831333002821675,-0.022880730224539104,-0.03683779276939765,0.056529073076064834,0.021943924710108576,0.0415141412071979,0.01922136194135472,0.007289149901191156,-0.09814742538194682,-0.023963673564590744,-0.011789354911651558,0.015971424134312,-0.0235142071084049,0.06173477943811268,0.13799913390781268,-0.10508951798027905,-0.14805563268299263,0.06816591148805773,0.04852061284670999,0.07488085386872884,-0.018984225493637777,-0.060522518968218614,0.015170445780258474,0.0415681297400637,-0.1199928664529224,-0.02743902068413396,-0.0985834488488108,-0.00920527629934446,0.05936370471615222,-0.13908634722434662,-0.13472455415493775,-0.030565410460499577,-0.06364207724672245,-0.1029921615399125,-0.07567504282178812,-0.11910456929922571,0.00853074083539948,-0.11291302739410031,0.054707511595812594,0.09486884487135519,0.08002322423543168
76.17355346679688,1.4882965087890625,0.22623681482558688,0.012608029979514976,0.09883850787951441,0.08369397652888212,0.12274347843993269,0.0992251580383947,-0.027754372350848072,-0.00930100281133989,0.016808198181136075,-0.034979669952413334,-0.05979514515356796,-0.026565290928473182,-0.05525271037376271,0.017984836018290214,0.07864059350883666,0.017841818624190132,0.01889521540863949,-0.09600736110743356,-0.0664765376503596,0.011362836456927029,-0.09536735236659183,-0.3396612730201971,-0.09272568246461979,0.02242452701767889,0.18701133540712908,0.16205717325397434,0.14950262320076857,0.0005198721059563732,0.09009665081583071,-0.18203037221514068,-0.2504795057902582,-0.04073995428765228,-0.10968377382769548,-0.009979941488803074,-0.0807426522858985,-0.373392116604083,-0.3849632242056508,0.29105520851768035,-0.22172319086960263,-0.2801523944207243,-0.47658837774368096,0.2310439261272074,0.2049416111419531,-0.09510184327008445,0.13180060110275368,0.09857576030425377,-0.3332890375658427,-0.19106417210776497,0.11734774158730638,-0.03154485836506814,-0.2635092959071841,0.07285393009397041,0.12341031667727947,0.07207405030931127,0.13740910103467008,0.22212996371246985,-0.14027951111161463,-0.08066750963182288,-0.10613452983384726,-0.013742706880904095,0.02260922762581862,0.021384811995572565,-0.03260781302620739,0.054434781506458536,0.17227358762638537,0.06708217482081999,-0.04596087213013059,0.005393685351936598,-0.035426878468048074,-0.012184605845733028,0.038953531448657285,-0.0025396706703780577,-0.08911059556248972,-0.019592915625998634,-0.08839882660370992,-0.12665729256236763,-0.07554099942223996,-0.13554674573998776,-0.04486427406179597,-0.013760534893308096,0.019762519041892985,0.005798331381528797,-0.05863496084686337,0.047969092210013664,0.03971994936747815,0.09245000533243021,-0.013894975841027524,-0.06642979753879619,-0.04646840995673207,-0.09419138790201886,0.03523308349936948,0.03787833737551482,0.041746635655599315,-0.04657583743818309,-0.19972940248353335,-0.07521743640768387,-0.1940632431501187,-0.03565541287231519,0.04547173405826911,0.20807597623478902
77.66184997558594,1.44830322265625,0.21723219468319546,0.004751831912471513,0.0356088017960986,-0.22784469373297528,-0.021909569175133918,-0.13036655809848957,-0.06352868512017851,-0.1169409046148227,-0.11442517393207306,-0.16371983916181512,-0.20072851227284327,-0.23200019966060376,-0.08901463858103024,-0.09208921884791771,0.0867862437029962,0.10891743127128076,-0.11611215241186301,-0.024227629493573058,-0.06668011109247443,-0.001795005303626473,0.0005346473062215434,0.03965419872133645,0.07316708632991888,0.09789220388102779,0.03803566320819923,-0.0030451793201892066,-0.023928033914487695,-0.12018217596401135,-0.079314798129348,-0.15004492550076923,-0.18313428588052919,-0.09653683067820577,-0.11953802936109945,0.03845494749711807,0.06285409144277401,0.07962902202427696,0.14184645559418294,0.12581981504962395,0.1343804422026758,0.062312771461906426,0.10414215537909596,-0.15780064749774148,0.051591336259449824,0.043529200645327365,-0.09362938387198975,-0.28190525431742747,-0.3143030474830509,-0.021206699827059264,-0.1850222176493701,0.10062262145818479,-0.0465349377099266,-0.2699873345062572,-0.17494104401203614,0.003836162961396785,0.032236832170140714,0.1233486494659361,0.07595741600925475,0.10175112632013719,0.35507629330981516,-0.00947219728601644,0.047551435315118955,0.024741411088387046,0.03499435521576515,0.06177811264071941,-0.015657486302724413,0.037645140700668926,-0.09119074156983373,0.01715913611303553,0.008350979042489617,0.061984811234549825,-0.013911444604808735,0.04018624994030397,-0.009585552074506948,-0.0474790577567693,-0.018561661256164534,0.014522702507108423,0.06184881080416458,0.09513699229372909,0.10973148539644512,0.05021079684977756,-0.07618792358463838,0.0418987937495797,0.12049845848142876,0.06766739667442,0.00960203863261172,0.07451650244094499,0.12351521358731722,0.011341611552826546,-0.05573234400094863,-0.08459765007719353,-0.09770453734140343,0.0135766418705267,0.018625126767771217,-0.055212966273516906,-0.04875497374558267,0.026457327792185223,-0.02229462507765218,-0.06893238067722011,-0.02500002490304769,-0.04375945880572379
79.11015319824219,1.4376983642578125,-0.04500327502070599,-0.07294054736542699,-0.1779060026086527,0.11575475905533587,0.07723133297411706,0.10870236475146688,0.018045333148594384,0.09812145473656615,0.0015864559120683823,-0.03852654697463156,-0.05301361732759452,-0.06281713005355602,-0.18000608961127446,0.12386992810463072,0.1460268373660012,-0.0850322951460197,0.10824232619889816,-0.1382055185196716,0.11170813675265118,0.06389479863700591,-0.03172113498659703,-0.08968325763756455,-0.0314920603078986,0.010937465323436816,-0.0673627743346819,-0.08576936037624286,-0.034339064093784726,-0.053621788424993246,0.07158681183474618,0.010960318354015655,0.026144305057715575,0.004457171545214025,-0.021854119095627247,-0.027256362653372508,-0.015413654889062059,-0.0029380698226609825,-0.12398069540950604,-0.3366434404849444,-0.11185786302812156,-0.05037715403813245,0.13409189734178717,0.23481540624978062,0.1465482393097563,-0.004612924550620678,0.0852672081077241,-0.05470912158892257,-0.01714098481456508,0.05031739801890511,-0.16436368278666957,-0.08729717370298787,0.3248960599412362,0.43722526767963815,-0.05035753344950576,-0.1308441289310007,-0.013997679886918725,-0.16452434877780162,0.34677295836818756,-0.047875801488270066,-0.06150164362746288,0.06973415321163506,0.011416460251574079,0.00816327372472131,-0.03982477285052231,0.018112839726922673,0.006473848885010742,0.06435040562012144,-0.05261888776086923,-0.09924070297418873,0.05226159212522394,-0.007445088333722005,-0.008742916708327823,0.02994726282443795,-0.08266731407568403,0.04542086997905184,0.09430807298557409,-0.014926553841971573,-0.035347271834924004,-0.02833311776574795,-0.15499779511269623,-0.09390252962270601,0.022893145551607652,-0.04866059492813019,-0.009633209382251637,-0.05097435893023627,-0.06830136355487171,-0.12463163772474027,-0.06095940823318022,-0.009162644292269064,-0.0012197633726731662,0.07057951383788334,0.13592730083051327,-0.016366073181814437,0.047374806901871305,0.04709382130204593,-0.055369024687086585,-0.026084146909600044,0.03866911599849382,-0.01874840458230887,-0.0740879510462051,-0.12831769425150183
85.36284637451172,1.4482040405273438,-0.14254235286714775,0.022785183410581653,-0.09353708363725538,0.13967747317421336,0.2839218969989896,0.16140463519987172,-0.08622321378757174,-0.0425717918847489,-0.08359319144620705,0.02393573976677789,0.05313203675303024,0.11328791785777055,-0.0008664870149970128,0.04877630287550956,0.10107809687531352,0.04023435716410169,0.034426104957107545,0.051958862074955925,0.12284588164566797,0.2131934778310411,0.18925095226889962,0.08653963282944625,-0.028630219400319207,0.0332029249844844,0.004512048587179691,-0.06971003269321582,0.10044593766153317,0.10893104186681105,0.08753125761639138,0.05144795694885735,-0.07757640132892073,0.07296105214054534,0.023956895496434663,-0.03937737542077635,0.005847146459830935,-0.04086606173825733,0.019198696854260046,0.10538863881110726,0.04652020294182486,0.20697314667117644,-0.06758017411201506,0.04059650244070179,-0.06242979435774308,0.03472821158096342,0.05667412798899099,0.002017111801205322,0.117861311046633,0.008443641036230728,-0.0019043629817449767,-0.3508959912928095,-0.3033289123993703,0.14001627490399443,0.20724768146482336,-0.04901977785718367,-0.1633648237823701,0.08384589364295122,0.2730292858331834,0.04944349912492177,-0.17249017049063203,-0.14568855267202557,-0.03873459195321946,-0.03387187069598188,0.03334288805894849,0.0013772155648044296,-0.07011481670280222,-0.1622185383572141,-0.024789133452113334,0.006195016018627972,-0.05987152462402082,-0.06873679323620531,-0.013873069227799933,0.04522997516778679,0.006361477239140871,-0.03573517729667078,-0.09112384817232506,-0.15072434165992574,0.03228883589838146,-0.05937676562108148,0.02757050463138143,0.06454580120709251,0.047380431406367066,0.035348259471137206,0.027634520543385152,0.03957574619806401,0.06997769484893225,-0.034914023311480816,0.11217057274401337,0.003781123707213076,0.1268331961456448,-0.032987932983189076,0.05851642435615656,0.019600609256437404,0.009978809975211063,0.09743918751984204,-0.012600188705745538,-0.14684710887464048,-0.13687030991129462,-0.04430761393925706,0.2761976337981984,0.13156636734780405
86.81105041503906,1.5377960205078125,0.09630329644116337,0.041749943215718455,-0.02161379237534081,0.11745547380716762,-0.1553299635566026,-0.09560454893107141,-0.16214357849470734,0.01909381592158621,0.01811879125554469,-0.12326594283345119,0.11332275148445357,0.0893001192681576,-0.050696654852782325,-0.024910754915436952,-0.03794621040250017,-0.07374827428654673,-0.04532793895395898,-0.023476825545808204,-0.012948529502264312,0.040429480202991315,-0.02201753062892975,-0.17194174865946338,0.1419506053369322,0.06005432926188354,0.09027282264740909,0.08795190816851521,-0.07388687198657887,-0.04954046012468846,-0.06486109527834891,-0.10001497568667572,-0.11064362828675524,-0.15518394827505733,-0.05559021828416344,0.14018946491744866,0.027488119396839733,-0.10025519822003864,-0.2006168161892941,-0.07231042392932502,0.055983525243538154,0.00587416581707987,0.2521365100947608,0.3224368631573667,0.019367337773213103,-0.1496607880692554,-0.11973409098261303,-0.2760540624480229,-0.1632109691919385,-0.2519056766932548,-0.01262281663701436,0.5304865384877576,0.1696957501225575,0.0426980560951872,0.035944925994946426,0.5855022694652949,0.012479900910610398,-0.15747427498009542,-0.4195511825927825,-0.04953093878565569,0.026436526540114427,0.22735437837993402,0.04388659367160598,0.22264808236387368,0.0023114916427648758,0.04679858807268862,0.01292862033230021,-0.027834305594995584,-0.023861337666941037,0.07629981163169366,-0.06279325080817046,-0.01374038296248849,0.0887175856018167,0.01413379787837161,0.0052697378229540764,0.1315734422417874,0.11540543878439621,0.2182053623903495,0.1001858871509056,0.1155896304483675,0.06694520426961319,0.0052235970010232145,0.009224319193281458,0.04578188899158858,0.025074235869886014,0.04857958574316205,-0.06568261602416561,0.052626789676928486,0.0795318809746209,0.10617236000299592,0.11427386215836624,0.16842640555378846,0.061350533426320866,-0.004685235906004738,0.06992446316524334,0.20694900247725012,0.15288306823050757,0.04436595874290486,0.016424440858776965,-0.0984070410166141,-0.08005415306332975,0.011523218268800893
88.34884643554688,1.45880126953125,-0.13372716364496542,-0.09202900580238253,-0.08636988278675714,-0.04612497863982835,-0.12447153591449239,-0.20111017516335852,-0.0008063435178485921,0.17200529392599329,-0.044764679498116244,0.09513107174173493,0.29300869392582535,0.3597765809509432,0.051931002737381285,-0.022905272467224236,0.02104615973806651,-0.020781669591882154,-0.015517547966217094,0.06641078817180728,0.1887840006998924,0.12549600720375226,0.005004135104238833,0.016559600650520395,0.01787493536299726,0.07971455569662113,-0.050472982916682535,0.018563301178881754,0.040214705857719406,-0.007253975064189959,0.07737195812946164,-0.0765330515717836,0.09615026005424948,-0.12847418282994005,0.0008005118187092428,-0.06557407963543481,0.03513382371854093,0.10586198217745371,-0.05158759424841866,0.02891438784776458,0.06598724882735708,0.021326625597751128,0.22303141558542353,0.05833650052480245,-0.11908051749324336,0.002361967226263459,-0.08373758051411034,-0.26199789250211947,0.04786973126773779,-0.018430031529732438,0.310612505378465,0.46063692415730484,0.09199657172341216,0.6458936039606045,-0.02919789491686984,0.11568240531632108,0.37636970053661944,0.1645823366229661,-0.035931543567410254,-0.10276666773702228,-0.06114581708524737,0.119810178491186,0.15530889801836295,0.14208901273965366,0.005596157873019437,-0.023554138339702314,0.07990722094147078,0.37654252163510304,0.18010293102282696,0.18107155364670796,-0.04974104732490088,0.05950385622841792,-0.04352513045503889,-0.0028312126458189474,0.035756645365178086,-0.013622295674118476,-0.01758512563337522,-0.15050537962731508,-0.023791919357410152,0.14017396235387222,0.06278500679674007,-0.05438591723189045,-0.020454940962312818,0.05334964330203764,0.05768547470569434,0.057530884260103665,-0.07665677157247026,0.05952650497544267,-0.04034508358780058,0.025257036503728576,-0.0022012874998291587,0.0866898529577255,-0.061134062861344,0.00908489229017676,-0.004388659121932258,-0.1243367825712922,0.08115985945302705,0.013653431586365715,0.025078254109066653,-0.062329833132633974,-0.39945220154387123,-0.06811898526218896
89.80764770507812,1.4782028198242188,-0.07395984509523848,0.013294667811210647,-0.03809587911395291,0.058262235039558574,-0.012914589602617772,-0.1641956269976754,-0.03297814923278258,0.0376068034306853,-0.00821613250693131,-0.07606849414575959,-0.1455187578272506,0.10329016437051582,0.15521730412821,-0.009600585617713042,-0.09561602357418436,0.024972369947520712,0.13693171226040418,0.09369368591735026,-0.042590028081939874,-0.02064922445369461,-0.06797509856400534,0.16728058615721664,0.08978459922648838,-0.03314036982669254,0.08669733346864539,-0.08247763609385868,-0.1258471533408861,0.0002997459755723318,0.012358348321015927,-0.006517288713553603,0.035891610249888545,0.04831073311294128,-0.21515131135943863,-0.0500415764136387,-0.05094597884232118,-0.32190723732311294,-0.1800433644718217,-0.11696783596432957,0.13301103217310092,0.05944238912446375,-0.06343654534232393,-0.1665596078772785,-0.13577810995236506,-0.043341915491214855,0.0008724696409590366,-0.10738614721014893,-0.10451896506028537,0.24700371879558597,0.14722725264129055,0.11668546870340228,-0.13303647794532494,0.2810087958858242,-0.23060595806802406,0.09558385851626196,0.08036140364127235,-0.14574903292593933,0.3077263510917695,0.25728643676467533,0.022837911443556992,0.010881346993049698,0.009782847732138182,0.046050587635047935,-0.0004613634168904153,0.01228075399762084,0.14108171835059996,-0.06789827975726902,0.024740948060930728,-0.07313756799761718,-0.01120802447473541,0.1183666256032372,-0.0014135135308846285,-0.0034352277773626594,-0.030577412836241477,-0.041233166659702385,0.14322950546134022,-0.06137666272364495,-0.06083315785721309,0.04466757911780175,0.08757867747800009,0.11948125551348115,-0.029326457765786282,-0.03684950468507409,0.05063765852449241,-0.08289565472872551,-0.1654155218275108,-0.1245616129042664,0.152139180222561,0.12085111413668935,-0.03148062335253422,0.14229845994571574,-0.012542799843769672,-0.16599887654457748,0.024911351051445846,-0.05034728335546239,-0.13848695917138903,-0.020476734155044474,0.08053941658498999,-0.040915639303168126,-0.11062272303341893,0.0010584518503463716
91.28585052490234,1.4180984497070312,0.002355265041702269,0.0024619759261624912,0.1267584924683257,0.20125938310574462,0.15069916601672778,0.10642339314359743,-0.08987726843133878,-0.30589081468147095,0.16146478386291932,-0.0009415329560248098,-0.25513247107038495,-0.01767927186036285,-0.06333271331145238,0.09228960766991397,0.010972983684542525,0.07395833286466388,0.1475738962605556,0.050643908984078216,0.05554923195415332,0.007388284480108203,0.02097911942202882,-0.13828605921182505,0.046428006073931286,0.08839447903483227,-0.011741739265011557,-0.13219677874931035,0.05922688365150276,0.128804158225105,-0.06882722713379637,-0.05111008019450101,-0.049970193853341345,-0.1273587062121059,0.021261465418170616,0.009989672385363458,-0.06329230084384742,0.038790537987338544,0.10329383657591691,-0.06355067764621608,0.025022152709659646,-0.010521519602136143,0.16183263739123643,0.04270523014245011,-0.020774724589177476,-0.29374558112812355,0.09415677877330506,0.06380973198405943,0.17946725247492135,0.26742352286908494,0.20064161544680809,-0.009476352928948308,-0.2630019717779545,-0.2514266274608981,0.3460485381555083,0.2720998910583888,-0.2604654040740036,0.03407557591820871,0.21432409973194558,0.07668883580669769,0.017277398732030574,0.18062019446839633,-0.0019519660739283225,0.02203829812437756,0.2751852111893581,0.07955190976012692,0.012353863031104147,-0.01613592687800598,-0.056939643083082844,0.1741225789153248,0.00982633197497669,-0.022699402442105287,-0.002941795429678037,-0.04195621496014216,-0.1165071127563229,-0.20636142075248987,-0.04742034794336264,0.07566729620443981,-0.0018425578763810973,0.015205060119083241,-0.07857706467932479,-0.10291577665002347,0.011750726761126309,0.11048867934060407,-0.011880638758135345,0.004639051768394483,0.015826140745686727,0.05291545119146438,-0.013432576728411945,-0.014869066656708216,-0.0008415219686584569,-0.14981642332527395,-0.0022971877448492227,0.055904975621693734,0.007879969349238396,0.006485959808651171,-0.026204539749278503,-0.016945788935526812,0.00477409351585438,0.07201910860205143,0.1639930189475182,0.23950166383172056
92.70394897460938,1.4185028076171875,0.25387591716653934,0.14465052024329875,-0.06990988769764588,-0.014015558040226373,0.07685044496284599,-0.02705105677822206,-0.07550646624541227,0.02167418417769174,0.1020826961811354,-0.017090914722704603,0.0476018610773383,-0.1812957069659299,-0.01594075226539085,0.01999150503724776,0.00853187720042388,-0.0030047477686548124,-0.013891977961197552,-0.08263191682519466,0.1122579381018774,-0.06213315592312977,0.02559384639570063,0.7211840144934856,0.13719074108190205,-0.051854354815601175,-0.05834456282355056,-0.05008643188929503,0.3040677743602555,-0.04026472846609934,-0.01933607229898389,0.3986522375846336,0.26303727175974384,0.16080272738775905,0.1648594160963029,-0.009543735631418263,-0.2536681973305949,-0.6536936270896261,-0.10762978857260785,-0.3109472634514185,0.19310545602922857,0.37778983961960183,0.502410386768114,1.0070515500438029,0.05337769559874819,0.05485682249745135,-0.17441713499826514,-0.14420035093457434,-0.06002216580363928,-0.054460511879823585,-0.07647989169156832,-0.1280803581345305,-0.13078996616507582,-0.08969329336881102,-0.2028413993347105,-0.024660495540090033,-0.18838747599448455,-0.04395538098587211,0.09146237241365025,0.07994381010314529,-0.043220871473711,0.010157922893907101,-0.03328232618266872,-0.09728579240511427,0.06951288353250545,0.09237888714536631,0.12583319132178228,0.02331589804910397,-0.03763999059279539,-0.01772892081038839,0.006032919785002394,0.05521941257720302,-0.002534198013855046,0.0024896459537256865,-0.04192649148421812,-0.06792501911227412,0.06642352879149693,-0.07463066420341853,0.25451052534400315,0.051438587126643204,0.03680996920772699,-0.11963537506353245,-0.11820542242477589,0.0038944437335330937,-0.04004077021943419,0.14296414365635204,-0.045207227732149205,0.05944510612552583,0.014040770922473049,0.07565004185590343,0.04327235997609857,-0.06460678408608218,-0.18625687863086254,-0.03618805255726733,-0.039848935076124185,0.04117465934925327,-0.0077450604932359,-0.02872812650126549,0.09221866217888855,0.002064070696261045,-0.0953641863545867,0.008325421607584087
94.12245178222656,1.608001708984375,0.01756843232591082,-0.02499325449535941,-0.03570937769241865,-0.1221530258260042,0.10093217426465975,0.03193225492818536,-0.04954574338619282,0.03079602880830197,-0.04656021661641192,0.11776739477475355,-0.030427519363565098,-0.2612919956297022,0.10353482976802775,0.004231245158969263,-0.12169747351848466,-0.0006875134874843522,-0.10971055087295305,-0.05679873500407665,-0.08883979032936945,-0.05975969113238663,-0.12968436143109588,0.014306244342516847,0.06162504639309219,-0.12684583452292156,0.08038831908810123,-0.05346576781251396,0.01073826087602446,-0.17124459160863975,0.0344570368041651,0.06096996337545566,-0.03531513879658939,0.09623424450676318,0.0950800400599535,0.027117202887000903,0.015122591999979238,-0.1646206028668118,-0.04241175560636613,-0.025332682082930123,-0.01921303716175996,-0.20234257032086428,-0.08327550021807675,0.009348991444220666,0.04492209959121028,-0.20620323644757527,-0.18550634925182252,-0.13197673617267003,0.11137548631639548,-0.020435827370903242,0.18399822906892518,-0.05230791601312549,0.0851760170197034,-0.0946586332615015,-0.08353151093815643,-0.16329398541393383,-0.031788295262711846,-0.004987050562351479,-0.041300622654642224,-0.0010218683927047025,-0.4136669867493139,-0.09062393768892098,-0.014773674585620233,-0.011631040409562005,0.012319193988999671,0.05640304825942958,0.005670644953488221,0.07413417803022923,0.017140093924965415,0.13345664739377974,-0.06898831547403832,-0.06613372906539831,0.006549076987860558,0.05197102593227443,0.020773856956369158,-0.001270594862299107,-0.21134946524791232,-0.04780846453343919,0.10999747007885158,-0.2270359229954701,-0.07055751410244383,0.021127248556811057,0.1705967552847371,0.12396159706723779,-0.016211405399224957,0.014785306541273585,-0.003949809031599827,-0.027795230508060976,-0.1081695786307572,-0.03437200732343158,0.03087042117903245,0.038818652465825366,0.11319365140257225,-0.018950998011385934,-0.11057638797729127,-0.07038203858580365,0.032816323330846164,0.003971707456176082,0.09068450883717159,0.05475384734368546,-0.0193478978968793,0.018774275469111396
100.36534881591797,1.5177001953125,0.10758795741577601,0.073115310468996,-0.018623384009614673,-0.12294118064241044,-0.15519680890314538,0.06605545122436325,0.08759382860112698,-0.1615410958200695,-0.010469870436992584,-0.009573776255550325,0.08728261585338909,0.12473885624192425,-0.0905216602682557,0.044287175832947404,-0.03113687239769583,0.010878696537591909,0.1691754691022099,-0.07789524722336195,-0.08688975558644355,-0.27370790994099964,0.0428397304565261,-0.2361975643538443,-0.34130121323845275,0.14982454536957795,0.021663316617916026,-0.04476503293435902,0.2129284802239371,-0.29653676261987644,-0.14243485639489634,0.04554934966478396,0.17014321347413408,0.1820039542343091,-0.1369780818761966,-0.22437672213012977,-0.22176768908380337,0.05867658369939813,-0.06932609153967842,-0.33407324012093964,-0.28846877704542273,-0.4263807819752481,-0.36820110587604876,0.020061547397727673,-0.017440041785949656,-0.0033079144367038887,0.006337708379567274,0.3451514774887228,0.23162830683205254,-0.05474698631328437,-0.014279362569427474,0.005458826312571953,0.23583341081107645,-0.2534967066657619,-0.23136269688858746,-0.4745414917202696,-0.615385863870882,0.005171630526244406,-0.2858467639751053,0.011859199982391058,-0.007539009133702016,0.09357866570755924,-0.7173332184529612,0.12421562958488704,0.21418712828140807,-0.09349306842864151,-0.025154522488348978,-0.0329544420806814,0.03110857196593486,-0.002716174009571432,0.025099074265575623,0.07832254658714803,0.0937133573747003,-0.023906891699355084,0.011474525178776812,0.01388892119458532,-0.06143824219026086,0.019738657329153808,-0.07705114817410269,0.09474496748129364,-0.1920009358968032,-0.09072095628906555,-0.12159336101856892,0.0030227342442497537,-0.14019577956832185,0.010573757524546862,0.05540955639967339,-0.03173316472036367,-0.009012111745077102,-0.13174882729670226,-0.040658576005269516,0.0034169525475308683,0.06245668994505971,0.02628623843155361,0.022236387044542803,-0.023159078248230786,-0.0004805595147512442,-0.03830342397075956,0.18257141412043001,0.1175234492209863,0.03327226716515232,0.062263914848279756
101.88304901123047,1.4687042236328125,-0.07918812919923732,-0.024316031106110084,0.0047666192902090935,0.19563490455675148,0.31826645500325085,-0.01389520244869858,-0.13115853675781614,-0.07043011181019126,-0.015230045470769246,0.077647943848157,-0.08800322921675718,-0.010838849594949256,0.10226547121777828,0.07187600056735452,-0.01850619552755746,0.048032156067895126,0.02661537107955836,0.014187123861790215,-0.08209519040975301,0.05511008917538471,0.040194498766539036,-0.06445294778598336,0.01703996170959301,0.537997772500044,0.1019042449539331,0.8273783157065792,0.2476623447180814,-0.41880180567041386,-0.4016379964753615,-0.5530608823112427,0.10819360810821878,0.5361574678082929,0.34802988412079094,0.04530420435283391,-0.47793962175463245,-0.36411771536703275,0.24951005817906974,-0.009593548457040503,0.0863438809897947,0.3567950386870213,0.07869556983679948,-0.01018113308601563,-0.07713495093243039,-0.03663461227657448,0.2890678757216656,0.17831990210718068,0.1366938495368462,0.424826290880741,0.24195998218091672,-0.09848344300205733,0.15317897956967932,0.09355166015635641,-0.12800136699454945,-0.1017649023289817,0.27235809959544793,0.08242591360172002,0.02718618684649928,-0.03072645100698313,-0.4801732098111909,-0.22325904085393733,0.15605971248829215,-0.8760266779069111,0.058035179956581785,0.06119872401141716,0.019035742831367778,-0.05035598845262825,-0.19858073837038073,-0.10925782423451888,-0.029152528173449623,0.04182649350735364,-0.0013857038509272994,-0.10244314120271121,-0.22112293721435658,-0.07770584367852758,-0.04057326951263669,0.03206954486325125,0.03272739556397975,-0.046423724917166065,-0.009085587785273205,-0.039826734022367236,-0.051148400729756745,-0.0035433926133737045,-0.07456169598503554,0.09286796744998581,-0.02689837621289754,0.036405813019283535,0.022167536421015877,-0.09286107028114247,-0.028509643293190588,0.08132103387102443,0.07774665133246006,-0.007114557687814083,0.018758645368361294,-0.12025396397432213,-0.15295252379573285,0.008186720069915469,0.06633795021721459,0.10658438790846737,0.06628619694043217,-0.21589908763576518
103.35175323486328,1.4682998657226562,-0.21912056877797123,-0.07271427932365823,0.09803243685982477,0.0204310796889858,0.1893283728298985,0.11545689227907564,-0.006758900328067544,0.06277644399416575,-0.037730948799492584,0.05763668221752591,-0.02290774429283847,0.0416439602908211,-0.06666785291105058,-0.02675658309081095,-0.05960619728127831,-0.08007777058181285,-0.15434238014787852,-0.17537217517624307,-0.12540728500527495,-0.1566974520298002,-0.7669037105367683,-0.11757137667928444,-0.13741771384889606,0.21042952375270152,0.08984859341027703,-0.21683453842208364,0.5991465868987803,0.4364155533128822,0.3158561462283868,0.16961269069204254,0.09436833094145779,-0.850792355708444,-0.22613250031101115,-0.04200712352852664,-0.4772388451273971,-1.2867270438429574,0.168723267313852,-0.37423682237557165,0.9690268822800329,0.023600016459232848,0.1351144729244563,0.8632113007491273,0.14872710480674564,0.10630189711425807,1.5737308281616025,-0.29036742053289893,-0.15840808303179885,0.47026777514771007,-0.2506758695706427,-0.14304721532824693,0.9084137229376044,0.22416942495031494,-0.21273057820789576,-0.5963418680442211,-0.8149062968372579,-0.07782917095533501,-0.024912454500108677,0.11123637166374781,-0.057084939898664214,0.15508244327266194,-0.021212521957098135,-0.10302534265428388,0.03908374520267899,-0.03137697740506172,-0.030560696190694667,0.08790878477627649,-0.0273277407619544,0.01087003411671289,-0.16169657093604275,-0.12466210961042948,0.042229682898853864,-0.0448978937706835,0.006253273505933042,0.05008832375342447,0.017861049092040598,-0.00844979621809349,-0.24843873814512746,-0.3165723635508418,-0.0516522420806528,0.025838050091224404,0.0452343642394071,-0.024472467866582713,-0.02992972812313982,-0.02903335478035013,0.06846874880228113,0.0711703652783534,0.03021615620903073,0.08552172057049501,0.01734304459600522,0.05652684921934137,-0.03963445476519051,0.07235140995498132,0.047959661280603416,0.12131226629651992,0.09393302897504606,-0.05086521123914296,-0.05550109237777912,-0.021629825809628904,-0.007992390098411838,0.05830079487820988
104.82005310058594,1.48809814453125,0.19576270948103996,0.11288517503451156,-0.032407422163675634,-0.2625050762965285,0.12416141852844259,0.017266936944802164,0.030843703942600408,-0.092346785510357,-0.03254747235978359,-0.1262097947917008,-0.1283310296894954,0.053545408687913604,-0.006089274719555507,0.07836397955927615,-0.23003218441004925,0.028400995195789872,-0.02564840654432678,-0.042867033033937615,-0.0015225470213775273,-0.15527520227021513,0.1535139015816429,-0.02429206016116389,0.23405944918524949,-0.10109926891784064,0.3258770681854442,0.5001576022268102,0.6163360213515942,-0.14236063525751866,-0.3312691451726584,-0.06592963876944027,0.18050342345721526,0.07033616915369911,0.9716450620737792,0.3600863162717928,0.6397030497512364,0.3246414012518621,-0.21551212725961838,-0.09104163232409755,-0.06581293212466566,0.05396769225293924,0.21993123518493676,-0.2796909538108852,0.04125534487478952,-0.12471548647515053,-0.07808558085289592,0.1291192420534285,0.5360164770656889,-0.32511932475716676,-0.084526001876023,0.2849341475683606,0.07997997907502848,-0.008346566664678562,0.36865512719820237,-0.08011366459389312,-0.07309774072105336,-0.14442065818666283,0.1276589757144118,-0.02620160455622072,-0.08084766120310595,0.0573555812681972,0.052970473907750115,-0.01601647096545742,0.06413634985485678,0.004765593840537384,-0.056741608105438865,0.007037060246658717,0.012480248055889482,0.017228147013256607,0.04762573802425566,-0.0297941937915908,-0.11123081000920981,0.06765389065945358,0.11784386457932607,-0.0077835088213527815,0.16228539741226503,0.2087440850225147,0.025270138858259072,-0.003966505283159984,-0.0679967231676572,0.0843812555912046,-0.03990370254264855,-0.0010181210739726495,0.15543826955434698,0.0868897958457272,-0.01914535483878573,-0.04396449631673832,-0.028719520609447574,0.06459446305249289,0.007669935112293049,-0.07123811665948315,-0.0034905458553300263,0.02167249231033906,-0.023010136055579028,0.09365185093842718,0.2106238377384645,0.057255447669378796,0.056378174528600083,-0.002730699412978453,0.14207577501261143,0.07727772129133582
106.30815124511719,1.4280014038085938,0.07884321130580216,0.17535803602127706,0.1387785175760821,0.11954898472750214,-0.04353458109928423,-0.03667368315292873,0.07156844252225096,-0.04682882756095927,-0.0633464338898692,0.003676581650690588,-0.015856880141949043,-0.10338546393167228,-0.06112111688155003,0.008821152631603862,-0.09004600124499107,-0.14787110031186934,-0.07412522669987892,-0.028700410474926268,-0.044967163386194185,0.0438262436688375,0.09833372486695113,0.03946524737394343,-0.006714099968453799,0.12033859665100204,0.060257468135824416,-0.17318515286502398,-0.00942184812257011,0.030116301452905447,-0.0673658623833232,-0.2422805145249076,-0.131938172190825,-0.06695334066478524,0.19688186668677443,0.028128695182529223,-0.13292466645662548,-0.24675265859973058,-0.07414960586083813,0.09128941388415175,0.02388815933754842,0.25097842857715197,0.11919891432777195,-0.10820869238870956,-0.1856199148964432,-0.18182987029621078,0.08344719371501626,0.08284152986860711,-0.12919840588758688,-0.33333166432986255,-0.27038451835818594,-0.12268506138116245,-0.1594545556949296,0.10520598963165333,0.03962906831544613,0.1590459975876406,-0.04746246077786143,-0.05611169468934088,-0.0313050273021894,-0.12312406984731541,-0.10449378055723246,-0.05181712666989963,0.05459835464263536,-0.12969942668914047,-0.026659074167891136,0.04146864869725299,-0.03454796659015757,0.011283396661610105,-0.035808159900170104,-0.2675272123192035,-0.00201619024062313,0.010703758247928904,-0.10624656264940655,-0.1151494904995133,-0.054605413142557006,-0.0101186826765171,-0.0816137585250047,-0.15389053544085302,-0.18838685093356597,-0.31604195884955544,-0.0671515958987678,-0.02282217963474503,-0.09451649815097729,-0.041334898367689936,0.1478230509600801,0.06222237956388249,0.035546835735902615,0.062229491873019356,0.017609299194539813,-0.14103025497985375,-0.03307942172883509,0.05326062870329616,0.10603863389276272,0.06706420338383802,-0.04003634114821656,0.04773918223693567,0.08313028017867749,0.09776103158018999,0.030306445589881513,0.02717500899792545,0.05065821360768858,-0.07850438413112103
107.73615264892578,1.3585968017578125,0.05771143571497647,-0.11113949465749022,-0.07289369874319077,-0.27276774382740193,-0.1827486204135856,-0.009193670873601918,0.03939233475198292,-0.0019419676609528065,-0.16685868715036045,0.020816291247597197,6.018257842977607e-05,-0.07280049645822428,0.002893627054826046,0.030475490947296693,0.014546893703849734,0.01972040242705945,7.07773903567935e-05,0.2250750794037472,1.4279757629151517,0.12235167893229092,-0.6728607851651939,-0.18236385973513708,0.13439632322428471,0.5380844026871126,-0.16323527770137747,0.31524726151661175,-0.10225876468797214,-0.3347031872997039,0.2911650008889384,0.20339965638975932,-0.21519292128869227,0.07643408413666761,0.10963473236258653,-0.2447926623895136,-0.1065171766489341,-0.5954516200487101,0.2789402427997364,-0.4517302268428902,-0.08246379542884215,0.881021955152879,0.10346566965195657,0.2678458756905506,0.10545740129364087,-1.717135333322545,0.5654214408691361,0.024204550592654417,0.34487439847130047,-0.9810246196887722,-0.3626818643965503,0.17394370381427515,-0.058461065900868164,-0.07357482502017546,-0.10164174243152982,0.0033936737433171923,-0.05076131636304989,-0.045340452284822884,-0.003981180612849251,-0.07429457490241288,-0.018167931180161245,0.004058398640086656,-0.00021771163412123088,0.0001166347974309512,0.02907493667388933,-0.08824046977931424,0.0061303214770555645,0.05270649762514676,0.03659312314701901,0.0024311311453296047,-0.03432469559188976,0.0004650561827040983,-0.0654969675964195,-0.01619033952869007,0.016720958166425538,-0.033080032039890434,0.06317412594894556,-0.010472012948968983,0.061728211158119294,0.1917998793142655,-0.02170202455059863,-0.11435371602529326,-0.08662446365155961,0.02766406665206815,0.03977897565596353,0.06460378793007715,-0.05980656105467237,-0.052393476175195526,0.09624721090172776,-0.0593017522363255,0.10411982909587247,-0.05553204021323828,-0.06571590062690537,-0.027363107295964053,0.007623316769296524,0.11474916799615587,-0.017220805740268016,-0.028994888701581564,0.010940665846939234,0.03230739709531525,-0.008056856622843549,-0.03844360551193185
109.0947494506836,1.5883026123046875,-0.041440157464261905,-0.18747670056841556,0.05993228049425779,0.16826414595125153,-0.009145508196688103,-0.2216799361531505,-0.03205475236263013,0.02676027667677535,0.07025280779936896,0.10652585733211879,-0.07705105531815468,0.03056757191424799,0.06823722740193595,-0.03577982605189456,-0.03103249350046109,-0.029945756657444506,0.0013661217577421295,-0.01782371053799026,-0.34917111482867397,-0.11193634239346778,0.0826961807340301,0.04481491506165456,0.6042346495271137,0.09451926833769375,-0.0971263596610616,-0.08941469002073826,0.027801018434901924,1.083633407758258,0.13346044198332324,0.5760908052519954,-0.10825111005269754,-1.1379602978457697,-0.1457153774590066,-0.2874931483951482,-0.33225912785688017,0.6073799603590646,0.9566235151268672,0.3854603392240191,0.23755299410486355,-0.32529621776459217,0.006393990682157777,-0.13746265857119175,0.1588966290118044,-0.575770396702099,0.38815521371690886,0.20432719319015505,0.7031354910788356,0.6729314525711527,0.37512124029741345,0.5645892765139121,0.15309741955320103,-0.4862864866725152,-0.0717589147015337,0.002992043444570488,-0.10224105724419871,-0.04738841469433082,-0.38651549018552134,0.0652156362378233,0.19455148145567083,0.005855809413653201,0.008499806542243526,-0.06946090527861694,-0.03933831350075995,0.039232135959342954,0.14886221382358575,0.03599723780330499,0.04106994903693515,-0.03955354064692439,0.053503297883330365,0.010933905925356592,-0.001969913584759505,-0.05470159808892306,0.04312602950004099,0.06587369749793849,-0.09923844242095539,-0.022943134849428566,-0.02386516091440232,-0.002155623902617942,-0.061005845415277885,-0.04865620916072007,0.0737112637768465,0.006921892418650726,-0.01171008977941837,-0.016916265976903527,-0.030135584099033236,0.006687115961465278,-0.014844036808398336,0.08926407317809215,0.0824013460893069,0.0067168102354276,0.04609186471248286,-0.012306764268150016,-0.013305062853122787,-0.023321755399569988,-0.022838066953062,-0.03223040045793128,-0.05473482296941398,-0.051567996542252706,-0.14300073580272316,0.021514778898932805
115.1279525756836,1.4579010009765625,0.0709509387832671,0.008518951174187238,-0.05890139881112025,0.11175956094519654,0.06688764704892436,0.03593189724133281,-0.10304486095535102,-0.019279991882958293,0.14611627931978072,-0.09991952715488832,0.016826908433102555,-0.10786369644100252,0.005843105249345268,-0.035781755506891985,-0.041631744788765815,0.021026756572468788,0.05332400140754617,0.0072974798852859235,-0.0832040665110027,0.012517007820231612,0.02436308532260689,0.09829276716416208,0.05244508283949863,0.0512550956631759,0.04810548048024667,0.0351408912723665,0.04068718829859232,-0.04688835134411845,-0.019825149293982915,0.07207963834544254,0.11608158837889379,-0.027791640975800655,-0.000790927809928843,-0.026936197519838626,0.026895021484804597,0.09246491263503001,-0.12167581290898705,0.08632774061686888,-0.04569577577649998,-0.06410876757684052,0.19077282330375095,-0.03832181471053183,-0.20403630728857894,0.13451283494585606,-0.13706852205963505,-0.05255541848173385,-0.05970640131966144,-0.1808089134275694,-0.06007332269481276,0.2613146210520176,-0.08039850504030954,-0.13416230356325048,0.17434896779316633,-0.08295018229929801,0.1720795171243612,-0.48356785559178983,-0.41794560535630443,-0.1405476728120732,-0.052219570138892765,-0.21182682339695857,-0.0036024832545685356,-0.021052922654670524,-0.02539139863470354,-0.05182213730522806,-0.0001173450402361699,0.024484808474223255,-0.048152184722237965,-0.08670866425153903,0.001669946728208277,-0.01104159734435598,0.017069738003409406,-0.0214322196193091,0.08706160957511987,0.03421750565513451,-0.3180083308036963,-0.11448637776135018,-0.06949200598903774,-0.02430407997292658,0.034494494521987454,0.05104066217260802,0.0805406984376953,-0.019773157353311317,0.0974342000197087,-0.06926858207686036,-0.10506229158196083,-0.05977161110179602,0.0018261812034402192,-0.027130878841261127,0.016644280466676976,0.048289934824012094,-0.020594516410091614,0.018257876069915482,0.02240360152946819,0.1512556319901201,-0.006861584716515936,-0.007705809473520939,-0.018187147616512057,-0.02079744207334691,-0.0032381830280764547,0.07916684810131937
116.58585357666016,1.45849609375,0.07210063438811218,0.07743948937098234,0.07473321029693775,-0.041875062925239466,0.013753377877412903,-0.04889736227167007,-0.15175813372745933,-0.04374474028134255,-0.04062480436730319,-0.03179742903300874,-0.044957088532096984,0.015609286218899508,-0.05380260044743238,-0.058863241626466487,-0.008706668909394831,-0.09963196314950067,0.010145843702911127,-0.0429982428527773,0.40380059656351014,-0.3946933671603028,-0.12031576540750051,-0.40802043704701907,0.09598037766467694,0.10878788968500122,0.007931080991928737,-0.02704940960591201,-0.06074432809842116,-0.14194085095097592,0.2628733857922919,0.11881498913186755,0.19232261340043746,0.021335179681783077,0.21619495745232584,0.6410898785833243,0.5543243730127503,-0.14339087658350866,-0.06801103197673594,-1.2632219341912343,0.0544512312451597,-0.00564492243942199,0.1916965313289496,1.120891809898742,-0.2620341336374099,-0.024721710858756216,1.020310628388649,-0.2896452234952994,0.4159017306040696,0.45472790612422187,0.2923707983578727,0.05276456424679818,-0.3259204039085756,0.13654599486850538,0.037441812783018426,0.08973568640989156,0.055070380162095124,0.009138140902963575,0.007059155338550551,0.24697663170431722,0.04659030707052016,-0.2615724614221337,-0.0436716444999158,-0.03561302337890237,-0.06123658205721105,0.03998033114646482,0.06478575849206294,0.08039080687882998,-0.00020637289139333742,-0.04118805077702822,-0.07271537721641291,-0.0014743857917368301,0.022710392039376942,0.008537426526374046,0.037590072409148384,0.10238477413739255,0.0555897421907714,-0.07473709334069509,0.20073144074780291,-0.058922315267696736,-0.12048398971038615,-0.10140924851801478,-0.049627724420199255,0.16994085978183593,0.1980724316362807,-0.04982423320554746,0.02180839370621111,-0.03682185071665719,0.062397657547722064,0.0709866960558715,-0.08104833008118921,-0.055158132914778155,-0.06272447705121817,0.0068890500084639135,0.07900615642286946,-0.09081257909832119,-0.017910920247140256,-0.1555425301584268,-0.09772238847554315,-0.023020491007785027,0.008654256148104472,-0.00832762873024576
118.04434967041016,1.5483016967773438,-0.0165303778957187,0.08290597982660493,0.018198650274491485,0.0832456317358493,0.14013641276561564,0.19487149503982892,0.009841631407627187,-0.030901790051540343,0.007084966552306976,0.031012780107263396,-0.10216396955856454,-0.06771357882231333,-0.08224693956088765,0.0395442823917928,0.026486272966481178,-0.06719274580617804,-0.0028986897311038227,0.009888947557159593,-0.023597813407293153,-0.09207433443138674,0.07749210306030913,-0.10536728951497139,-0.167220846983788,0.0024147520663922364,0.1355453511712521,-0.25857226193263383,-0.12056390380148177,-0.08650945466721245,0.05697463028849296,-0.08320522929749023,0.08609524513508106,-0.019369035953777272,0.03750498767496205,-0.002638796174507291,-0.007492917922104514,-0.13745121128095827,0.0804628665881178,0.038092130090139946,0.02200877955710311,0.04519490318654796,-0.01578159985585323,0.08362135492568273,-0.0229328662829886,-0.17798684535210438,-0.3405935768757498,0.8763443459521248,0.10379103710094473,-0.29819843504140714,0.09072784432881187,0.26669990911359065,0.011732023675198365,0.034783586207569606,-0.06710887316258643,-0.00350586351311284,0.01884797079347427,0.014739280121162674,0.3044669476381559,-0.12417862303643064,0.16524564682142887,0.20061650328841438,0.08569798377818846,-0.04032037155746009,-0.017953121357876627,-0.04708697144099126,-0.01318003254969452,0.0031499865979316526,-0.03283384019064274,0.034825888306359284,0.02372915699272106,0.017186988578699783,-0.0564764535909405,-0.07916798575101416,-0.2325043894280206,0.0017377535002649214,-0.013972957817704463,0.046017016183169134,0.08906974278974553,0.018509876995406568,-0.0254833167907432,-0.012588891009255957,0.08012791969038156,0.05352188340792216,0.11027636913457481,0.04721019356363215,-0.0029202571249195564,0.0030787782774086025,0.03996921777185068,0.0051730239097576335,0.003809204592083985,-0.15749143935530624,0.05992122789137094,0.09891240083018153,0.0357167011236929,0.01918130217262573,0.05518047316122876,-0.019454252437325487,-0.08229867056773513,-0.06406950598778674,0.1062348628413401,0.19627472373685037
119.5926513671875,1.5283966064453125,0.18154936765222307,0.08724207349413904,0.28110492650606195,0.23563749514839818,0.13340590215731438,-0.026197319636814275,-0.042011269495763344,-0.18835190216805986,-0.07834669687055654,0.0340858510587454,-0.12013609428259178,0.0635574229456775,-0.01848886551896938,0.018094437328496006,-0.05209429338313302,-0.018202981442829037,0.0056188410396574105,-0.08150165297557072,-0.06098737607336468,0.034660039020665945,-0.0025759905894959653,-0.0011149144709863132,0.027165108314902195,-0.06490891541778644,-0.09912014380768283,-0.058406828859691895,-0.00253289847165144,-0.00812706257635993,-0.003411043840477534,0.1720976601321332,0.04712841025955737,0.08339077313058157,0.15055737367415165,0.02399868010843148,0.09259895075003907,0.011904582818454532,-0.21469184687207815,-0.03158760364859477,-0.04297205967292427,0.19036236828177555,0.05527541577988152,0.0967715465786139,-0.05061374060914332,-0.06129145683202604,0.00802848969157304,0.06251247118209553,0.1858003565294239,0.41576395884001366,0.3298249206935988,0.3750699485651383,0.15057430496852683,0.2058666422007555,-0.04798485766789561,-0.0918951804334191,-0.004403629933279004,-0.0030123132355453436,-0.09536230981526406,-0.007751047221853856,-0.14685422482574498,-0.008729894758915594,-0.18546957687888108,-0.09931190328233098,0.15304239537179576,-0.060077313109502525,0.023536902209454796,0.05314317952022716,-0.0018769781961793957,0.0789093283804966,-0.04182215004394339,-0.06896708718222447,0.035930824194831616,-0.010338000502544756,-0.033861196614680546,-0.028213351149176585,0.02433483368751861,-0.010524545876253805,0.0399129559523575,0.03708198617232414,0.08117479238757894,0.06463640843938889,0.027270111470990607,-0.012823893740214158,-0.026287407098189736,0.0030489115655576307,-0.01838340932149361,-0.057964775056516676,-0.07188889320968124,0.04001107909182386,0.0037122761829488,-0.027079537819172005,-0.06501318538478705,-0.10523468745737556,0.009514338578442675,0.06146729795371561,0.013360281885940234,0.05552968419903146,0.05240763736739046,0.060334430702257434,-0.03853532366463355,0.11548622787944549
121.12104797363281,1.4879989624023438,0.1073242669798183,-0.03603930398625277,-0.07647850963191186,-0.15389295265378872,-0.20949666799174985,0.08639522880765048,0.06408262243669895,-0.003707489831729322,0.04318395995475057,-0.025947683439531275,-0.043809330027479235,0.060612631643473414,0.00812380556369927,0.021300192343465044,0.14181288432325698,0.1523035138971447,0.00014443077530564181,-0.11796702494015884,-0.13962352208952453,0.08452976007119216,0.1044043914855818,0.20226951360103196,0.12382455691010427,-0.05574673043678315,0.019587316308855712,0.23810800237951582,0.017597376447910432,-0.037642712829161935,-0.02901919824012724,-0.002995436132555887,0.029036054991673166,0.04870128241975212,0.023401554670809427,0.1139811911944257,0.10288052752012716,0.015797239472300335,0.031590585329626004,-0.00966950857368629,0.014010190414032272,-0.06347051025370479,-0.12140611549274187,-0.04180701884232646,0.055599162579341,0.008204661838333863,0.10007608340442027,-0.015682543390698793,0.07144205050703578,-0.035953174350834616,-0.008320926772078428,-0.07101938455831526,0.19216887971717178,0.07599334497976316,0.4673247338650213,0.6331927291284998,0.24080657844201825,-0.15999388692351296,-0.052184563686880965,-0.19123966264674203,0.02073602455707415,0.2041795032203348,0.09263039470543383,0.026646458457364908,-0.021074317092502633,-0.0010345175607138007,0.02146421836339431,0.03422297919018493,0.002625763719070383,-0.10424789722323179,-0.04459325241358312,-0.050370385937970275,-0.028448604388525867,-0.023259965759565415,-0.10190834262559799,-0.034281094249404405,-0.08821755204657675,0.08729859436908777,-0.04233434127762827,-0.008042684033221816,0.043024787457931195,-0.19499429779097555,-0.051899020231448836,-0.12709528821773308,0.04942258811675671,-0.024822128396194028,0.048322140345710314,0.02717162735047947,0.03296869230597353,0.15325656314003153,-0.009951886928200527,-0.033114342378749176,0.06145954104336233,-0.031124003548907656,0.0371488316693328,0.09029340345031292,0.11643619629711398,0.17496990679873042,0.0269236533853136,0.1506857401464545,-0.08613435583417879,0.014693210263895196
122.60904693603516,1.44830322265625,0.022747728633025613,0.13113175209923708,0.005625548739301812,-0.0057365083106606235,-0.11429060529782095,0.026254937381999965,-0.09271908579234414,0.11852683898325671,0.06471760071798148,-0.03698875250263336,-0.033078222617664146,0.14239430998615232,0.1740119331603494,0.04805467632230848,0.017395221876042664,0.13041491165781993,-0.2471838413353283,-0.011662993156176707,-0.10037689357965741,0.01962689482700692,-0.00587827810587702,0.08447705094169482,0.020900966559457803,0.0065577266340598045,0.1095141780382821,0.005330971656838417,0.06714324122273535,-0.10178125953121667,-0.0731476099266892,-0.023422888443960947,-0.15294608677141816,-0.05184263020122807,0.05184534867174543,-0.14086174312891828,0.12628067884824548,0.10898925041437171,-0.1426498706685233,0.0657455659963481,-0.03583891468870057,-0.07050278049381728,0.06085098590807084,0.01426678284809167,-0.1317121069998959,0.07448988931332154,0.07718610587811285,-0.17937091377921427,-0.02985903509176738,0.24509638576221823,-0.0004826726175338513,-0.31425071848802766,-0.18561631389664637,-0.02880015746733474,0.11777537226081494,0.046220737234879634,-0.10172400164673005,-0.11076148988317316,-0.15409861960709223,-0.1650910693692722,0.2070696362141226,0.12999352618490728,0.07551663251935047,0.0641398884649342,-0.013322158260334744,0.015531668353341254,0.06886923714521025,0.03191765699789401,-0.14223871355513823,0.0015700851596893162,0.0676936212449686,0.019888958186461574,0.10785908090710414,0.0843683284110862,0.026920307152412136,-0.13192874505127133,-0.09133682243606864,-0.037015612089171174,-0.07756966742702445,0.060700154678152304,-0.11586462512241982,0.07508527348545008,-0.018354349804143116,-0.047361443891627025,0.005063310269205672,-0.044721058619526105,-0.08535624795533259,0.012530350956456781,-0.0891985837044107,0.09062581605946782,-0.09205538874043433,0.07591919858579835,0.0342287322103344,0.0324406193483471,0.04481119486954439,0.003966467216279035,0.0032141594710200115,-0.0021765719509983204,-0.02252833216717338,-0.01690551215313204,-0.1604952905247318,0.11186591482262753
