start,duration,0,1,2,3,4,5,6,7,8,9,10,11,12,13,14,15,16,17,18,19,20,21,22,23,24,25,26,27,28,29,30,31,32,33,34,35,36,37,38,39,40,41,42,43,44,45,46,47,48,49,50,51,52,53,54,55,56,57,58,59,60,61,62,63,64,65,66,67,68,69,70,71,72,73,74,75,76,77,78,79,80,81,82,83,84,85,86,87,88,89,90,91,92,93,94,95,96,97,98,99
73.8947525024414,1.0286941528320312,-0.24926143718803706,0.2962601915895994,0.9915124569853356,0.03380671875802996,-0.022906716114931586,-0.16394506015317853,0.5236865119172137,-0.4376548108862543,0.0770140836293238,0.07662939522283904,0.2912641178175608,-0.0788052811102319,0.0365504839619059,-0.0401978296468739,0.016558241538531186,-0.010933808454058279,0.01876133219767928,-0.16318161953156546,-0.09921683175689637,-0.07354607602483103,-0.06432172232288134,0.0776822054061787,0.0374354902390916,0.05650239050429193,-0.14162920788759553,-0.07011935623527332,0.0025637995715335204,-0.09576860763424107,-0.024075755666695727,-0.052710772425248895,-0.003017435136944989,-0.04489876977568096,-0.12229021698655886,-0.03000385818881036,0.10993424937404761,0.13424841756056938,0.0021381071802577117,-0.025760701327341578,0.07032622871935848,-0.1461729363310771,0.27150967742659815,0.24222749170609337,-0.050942282391616925,-0.019035696419678984,-0.10040005121749519,-0.012416680949979414,-0.196039274699629,0.07286836399311525,0.0838880575636314,-0.007348538388366999,0.07607397742923552,0.05336887669933374,0.12404802681615817,0.009666250881485693,0.00670258283194528,0.1195356842783448,-0.02177450482718875,-0.019757929581245344,-0.017476684576998275,-0.00279807219956332,0.0004730271902506217,-0.5799035553116053,-0.11342411183204615,-0.17954522645716833,0.1503034489433799,-0.036862433330350844,-0.20285108249734735,0.6216022681998302,-0.07566217914424572,0.7492866524069142,-0.38117227491520483,-0.2765739035137733,-0.1546286254534961,-0.3225630758054359,0.5918804702265839,0.05423047503198704,0.4791221510582912,-0.03297604153276805,0.42382780552254107,-0.1330230590718197,0.18804429047906315,-0.46386752612008664,0.3989068686794457,0.21692736708718519,-0.24836072454972966,0.18520269397269412,-0.017622611455281878,-0.055507018631834805,0.07834864086992373,0.0777004222723576,0.1084699693057979,-0.19674957891447464,0.4483726789574585,0.4449113074125294,0.08208164343480344,0.1932941070112591,-0.06364129642177375,-0.15364935526860632,-0.5639655763820521,0.3620600032103295
74.92344665527344,1.04840087890625,0.37311566988288203,-0.15834433889798727,0.04420304226471088,-0.20034080588720227,-0.36677860272495205,-0.39036581906388235,-0.11320969808479794,-0.5694488355767044,0.14161737767485183,-0.10739325697380828,-0.2022112137606061,0.0811836009478698,-0.03195265492364198,0.06879835446378293,-0.09168758211722122,-0.08910885660499265,0.1622988923769139,-0.3699904022130496,0.23615927156397193,0.07198007506047524,0.3097836936331538,0.029477219215390107,-0.06969654603712529,-0.19593353200527547,-0.014101067156422176,0.0882685703219564,0.14392705795940341,0.06906080385381763,-0.03750896907394985,-0.14041112031171776,0.04900504041615432,-0.08268363826618672,0.0196223075773169,0.059842456304177775,0.04198211769676761,0.03194797128250007,0.10884370914840473,-0.054030657952810965,-0.07433875132247053,0.0015602899777936374,0.0037199107358881303,-0.29511296068406184,-0.08285429654231265,-0.1062716142349971,0.03808917477213368,0.06316068147094471,0.19023193551995424,0.04232167566007513,0.032222099564301075,0.03893304858762041,-0.0320529786245443,-0.06100524337031012,0.008217809775056291,-0.00964942412973735,0.11281668890318018,0.11038300331333642,-0.0006131937272528415,0.016449577192048644,0.027870240547327535,0.13434644822148975,-0.02276368796968667,0.7234217690743906,-0.7200539708432188,0.050342033875530226,0.18983004254453256,0.14959563923035993,0.13780936744320496,-0.19357524189546876,0.24942125580313604,-0.12933772911694308,0.22775659853848407,-0.6942271179149155,0.3138725791559253,0.8563931397956202,-0.42954685500790746,0.07577257519322156,-0.1230161709384253,-0.2823648037927311,-0.49147667605459444,-0.4136369278516023,-0.21510685269775243,0.33232266264373034,0.2277454065674856,-0.5040265743240956,-0.5703284635478335,0.09767293686388528,-0.027788474981033935,0.047236406324179636,0.24222794834228598,-0.11080640000407724,-0.00726116899070819,-0.21764858225937955,-0.021838338551213907,-0.2322131904019461,-0.06545481735952452,-0.16022791294209876,-0.009469868659040799,0.13719017703325537,0.46066327975917526,0.17617456454632552
75.97184753417969,1.0492019653320312,0.7056378523125756,0.8261807926372035,0.016889817059581994,-0.0037389837435445605,-0.038216138423838024,-0.07924092169824883,-0.04017201252512238,-0.27567564293670843,-0.20360341562065565,0.07324806520085139,-0.05543512992932387,-0.04688188061158457,0.03226746329590338,-0.04977529003504431,0.03757577721757082,-0.11230660127510944,0.003105804074258242,-0.1184333338147387,0.027082855634151456,0.0725869127882949,-0.1616385915834801,-0.13222740082759613,0.0013295705639758792,0.10309523248101375,-0.03991670817803344,-0.06936942716700265,0.1001122193639382,0.05080281769336442,-0.03717341606548186,0.07725393602144257,-0.07532099750717934,0.028766271594172547,-0.05901706539049239,-0.02280169737910545,0.1066439464581276,0.1884476292664682,0.2630125484047249,0.22745021988998326,-0.27258835333699466,-0.05805143392118036,0.059387961786149183,0.04095357457204638,0.19723346368635802,0.017080046640152953,-0.041765374738681485,0.17815496168272066,-0.034234390078286325,-0.10081025050248067,-0.06680333672575228,-0.02045174385768317,-0.024760039203368542,-0.018374209700293007,0.04766151270801637,0.008711714240127014,0.004685924711798733,-0.005682930650306613,0.03793147961580803,-0.03683138488922186,-0.17600823240811278,-0.18220182608074245,-0.25056617862732167,-0.209634962722654,-0.04393020584029791,0.180578274060742,0.49180877228152636,-0.0068373767191555945,-0.2898390498540685,0.26666958165681254,-0.5758141913345615,0.2275968625114214,-0.23169783653244225,-0.2906595565615802,-0.3510223452882682,-0.5965456646619121,-0.4653726557013576,1.3672094874257597,0.3055133827004847,0.181658110329454,-0.36966417745281255,0.24701761924558344,0.4309317009113905,0.4827717948411572,0.9523976793555795,-0.11208765513264377,0.056813688849022305,0.025215504860963224,-0.04875263016713429,-0.06163723328992299,0.03527665830320633,-0.24350822590144494,0.03259174396544018,0.3850379080801232,-0.3163382677724127,0.31432341112787976,0.02768504939604403,-0.22668843122852853,-0.2072372541448116,-0.08041704826887741,-0.18041506428419646,-0.5748549325550073
77.02104949951172,0.9590988159179688,-0.13993835709150326,0.10539935285885656,-0.1409133694214937,0.2059086473077656,-0.137279797182714,-0.44806265859173156,0.10251451425284128,-0.30067342937748887,0.6733350214225288,0.05092956617376193,-0.08676580432395903,-0.1471396697878383,-0.0029690053852283998,0.0018938051089130714,-0.07444487483784716,-0.006403094794516164,-0.0977895800112726,-0.1254624438402475,-0.12828891121000213,-0.11081698595671813,-0.0913844158381284,-0.05946767592023557,-0.09954808948773829,0.07418745669060477,-0.06001948012050191,-0.15578839665831834,0.10682376364014537,0.05470659952436218,-0.002355313639014883,0.15423188615677605,0.03412729772229415,-0.12296090288413661,-0.024863469516220475,0.09973152315214606,-0.1197023619515923,-0.16251521688862247,-0.1627809199377774,-0.022235327849757416,-0.14245633532579052,-0.015752797628471916,0.04755317265653938,0.032591505704234,-0.07825167740996211,-0.17766812286655584,-0.17397784527260207,0.08783033308974794,0.22906402812918183,-0.06238079134855815,-0.05882219667890861,-0.13290677607893286,-0.028585605448716005,0.006686649084985322,-0.003869885297589391,-0.04298176348960112,-0.044407485193207114,-0.0033588490529030818,0.0076860967434119075,0.026606966601263368,0.1515149751776415,0.07232107394975502,-0.4400072578955982,0.4121029367851877,-0.355087150572446,-0.04562065695283336,0.00469005757106453,-0.06502220007022938,0.39825691128091834,0.44609827935206636,-0.021037841964685656,-0.12290601521349273,-0.09614759223285459,-0.2342879381030309,-0.12013960835139044,-0.11983025769267777,-0.03262129060154671,0.4435775861612956,0.0032252592426871025,-0.42004046098902587,-0.35659883969896666,-0.2190330224589104,-0.04245271947152927,0.9673699810415647,-0.21828079457071575,-0.2492301893492617,-0.10415795318103005,-0.08125489885594275,-0.045611646508161935,-0.15718820120286953,-0.5501854676048625,-0.013669360926824359,-0.05485074437536755,-0.11863709988033819,-0.620791251842304,0.058982069097136866,0.10186059481050828,0.2836579122588813,-0.09815202492435597,0.12753065764554847,-0.49536341623391783,0.22804806538116884
82.15544891357422,1.0685043334960938,0.16355276973813537,-0.06630497865058702,-0.08834435562835341,-0.0478560869368721,0.3913611872141887,-0.03664237908874698,-0.08271638123749403,-0.09466187183063073,0.25457089144419814,-0.1044435177207163,-0.006193314737175696,-0.02647653146181857,-0.02928313525408165,0.01695385334238711,-0.09028425148551802,0.019970871944860857,0.11941804786372825,-0.006474032361548711,0.132925562865951,0.0030580879656715125,0.010605926943075787,-0.036179834413946385,-0.048980379489475895,0.06968727228579324,0.024578980686204024,-0.011996068227738205,-0.09775702617223656,-0.011477217433829047,-0.008130147833029256,-0.03282989734205381,0.00968763838444766,0.0009245783262705294,0.04188492401402469,-0.1518320600146564,-0.05740545089093336,0.022831593536890342,0.09559781043331696,0.09834593571791657,0.09970828952231583,-0.01621670759372557,-0.04830778756761752,0.09169251895217853,-0.03183756213685979,0.2144776954121394,-0.10830574849762307,-0.20311821337473318,0.1404117080750553,0.055056138399890424,-0.08633207039687568,-0.08952072946633803,0.07317423716191787,0.11625903573870766,-0.030527118269674094,0.08080461413630562,-0.05118174114203852,-0.0615611552182447,0.011346601139338053,0.06588307904743348,-0.004420195776800002,0.03085189921336432,-0.3037774994598769,0.8121636015232228,0.02569252063823016,0.3704700238383292,0.13606467449387555,-0.5156488996086471,0.41983497823158,0.043171765346123166,0.04575296558381381,-0.08755733629665963,0.5357382163681985,-0.2303759596141708,-0.156636037739194,-0.16056248863759856,0.5685857699502102,0.3932691089011815,-0.00479602877021244,-0.17484353009171083,-0.2326418663635637,0.4281288888720526,-0.18124065526458968,-0.1829507463903561,-0.18279557756099493,0.25389015408711446,-0.44076583434928435,-0.09702968125672268,-0.1259660715931897,0.18228647065465087,-0.079299923875911,0.21668868827733723,0.270098017928709,0.9166195756038834,-0.36471336602956034,0.41803812538937885,0.21721280417779665,-0.055302889285022895,0.19758841905462027,-0.18296860823724861,0.15077784161068347,-0.06962013975824666
83.22395324707031,1.0489959716796875,0.04066489772717492,-0.06676762122198462,-0.404088675461848,0.03575853442753521,0.08901503787231081,0.4859118838063096,0.11490659011772615,-0.34598890457612674,-0.20465528823864965,0.033448177427107435,0.014475791491856689,-0.09840825766171454,0.0015395674515806198,0.007876586822181666,0.04976099809656943,0.026867738159680455,-0.13273286706359264,0.018571578012075,0.12119975699937821,-0.013084999625610022,0.07149750775624455,0.1621426581620139,-0.053508106811721697,-0.33095704986698804,0.03254692895419466,0.020786027097092933,0.004547990550685886,0.09130014649763162,0.05697743321760918,0.029376253289372982,-0.06214535785110999,0.11301750238553272,-0.2114455304861832,-0.09108737979813825,-0.07025548885852892,0.05240706947010642,0.012187186383230006,-0.21398119901266138,0.10138505113994636,0.025950626175710464,-0.0065821615947997125,0.22005959821204,-0.03015650752219992,0.050512706676173746,-0.020653601501395443,-0.07704079083069686,0.15649699660189598,-0.023860640086716033,0.15775895645497617,-0.015267131514885993,-0.05851617990661398,0.021980263904770845,-0.034857633492429756,-0.053078998901139,-0.003918493614526488,0.023483631763186276,-0.11516617912240525,0.0015339884121153336,-0.025156758220415538,-0.11855415955406054,0.019343618543078922,-0.3297703716058052,-0.34507658865890256,0.04895648173559866,-0.12150730466046525,0.3819149021552817,0.38946652730456,0.45936501204062374,0.48263237203496856,0.4800989034597675,-0.21997375937835048,-0.06136847051341182,-0.03480812979620369,0.1591257512677193,-0.22787001783567257,-0.2063429257369033,-0.05863114285140275,0.009687452497385812,-0.36591240088213806,0.13610563484624233,-0.4173046219334619,-0.4016691647211295,-0.0010729103827501845,0.23108287490924262,0.16667013977978054,0.34185522390153555,0.05987803219145524,-0.08017173635982079,0.14980998771806484,0.3409939565237668,0.22149402170639101,-0.002090736169638764,0.05476496652505669,-0.13058491416723042,0.14426206441557463,0.05653885308891371,-0.0100274002622881,0.2096287730409483,0.24968190803477677,-0.15012561671266605
84.27294921875,1.0690994262695312,0.02027510567966568,-0.9939606440099533,0.03616253176268665,-0.15622540036356303,0.48876505899306033,-0.1866641023688108,0.2372306768026658,0.2090419685233465,0.07491106591897373,-0.1324848376877542,-0.012615240860018764,0.013304271435759915,0.009296990440007813,-0.0011285307872018883,0.0713808304489587,0.060875803777592635,-0.019332523516194244,-0.023535451545426623,-0.00019310679168443347,-0.06433865162887009,0.00017180327127673534,-0.013457305429349888,-0.053108325222308496,0.02734143869111456,0.09119867616707333,-0.07404109333818057,0.057378713609526996,-0.04797344948293312,0.06439647990087337,0.21156521753006713,-0.08487793582128335,-0.05642067563936037,0.24028569543683173,-0.03432003306332837,-0.28511771768108063,-0.07205267969793563,-0.02403680066022299,0.039009795090831446,0.05305076042099585,-0.1461278319785691,-0.1302855658990026,0.06519517640765043,0.1423252483155015,-0.01636349592236491,-0.08869835309256219,0.158313767786236,-0.02650894083469539,0.009358093383862676,0.07390663192265284,0.011486102727089545,0.07053268875798302,-0.040434372625005016,0.03072776422904442,0.008886223673201873,0.017659259258244187,-0.017871408445269132,-0.06104173694575997,-0.03756653618938941,0.07421286768695047,0.06433507199756944,0.10604922420587795,-0.30263677936897465,-0.42281494166859046,0.6051300124425826,0.13244737715983743,-0.00847719213927508,-0.39046322705900105,0.28591239990936945,0.04683459170363015,0.05728410423080503,-0.06884925900117375,0.16049562858984381,-0.3463604338223145,-0.10910462203200394,-0.17553670979925223,0.1878437992941912,-0.30267402487865114,0.46375141073709564,0.40228000768619243,-0.07408790660758206,-0.3525434760805478,0.062362752589956695,-0.1774320904698463,-0.047570369692157916,-0.41594037993113686,0.08947010933227821,0.21086740147596306,0.038239167253127884,0.07034830433289907,-0.1190781651199962,0.05421579215833091,-0.09227401039197974,-0.29629188909950566,0.11668415354128721,0.12057131991631985,-0.17148427093516977,0.18739585435989262,-0.27469178406315475,0.03931537721675324,0.4005474774371671
85.34204864501953,0.9291000366210938,0.3382185430489627,-0.039615610189475875,-0.4552982043188187,0.23752002263065836,0.053031883152724446,0.14770778226657505,0.08242696640484756,0.1979622495883507,-0.10696679622046569,-0.13227187684358144,0.10258599183777166,0.02244614918045358,-0.00517438220070815,0.002967574319341512,0.0754420463025453,0.02948824852667372,0.03289752762708581,-0.024858628138266683,-0.03185217939412374,0.001423194103648951,0.028042168910811863,0.013097357059536335,-0.012541748151014631,-0.01637821541923699,0.026880576102911096,-0.07170507578937427,0.06363172477624211,-0.05230309595740443,0.10255327817313545,-0.10778518368895414,-0.026311412080305952,0.1499267523299912,0.08465302014695501,-0.055091539442730514,0.15862807154988967,0.0782434410956694,0.06897824669698067,-0.30323405944809717,-0.019339993817648272,-0.0195385130815364,-0.24888866839798068,-0.0627252132778744,0.09320104215250787,-0.1885340619996975,0.06212614367465234,-0.11738327544931984,0.01454759307427729,-0.07642134089875842,-0.003715784003659489,0.10677964989233948,0.11558187406601053,0.12774474996377086,-0.030150676721915775,0.0017359637703475922,0.03668672782161034,0.06151137818855658,0.08822537391340247,-0.026156259186136913,0.006815466421401878,0.2551688885769978,0.14940957197456858,-0.4218789339469229,-0.17576712555155563,-0.216982220000293,0.015484988824846613,-0.0016531482381191287,-0.20736256550452584,0.00045781080177743905,-0.17350532358191167,0.12832360823212594,0.16269944277050832,0.14374277256797485,0.15213365530383996,-0.02657122116298875,-0.19838561264390359,0.9223977249619187,-0.4229611234376577,-0.2823184591490509,-0.23807085998821034,0.03393292371619225,0.30620819455683457,0.5469849970195021,0.0982486121376492,0.1961205933398963,-0.32443738122755106,-0.3309797742030764,0.02280200028081289,0.030525268299192637,-0.024346027505843863,0.1045842649670293,-0.10047531530596272,-0.35088854481254883,0.35027315094377204,0.01723764058123663,-0.05169491076914043,0.16313517773867517,-0.6064574803579749,0.0024882343407869115,0.24514750093847462,-0.045807343425624106
90.44605255126953,1.0392990112304688,0.03798872028393355,0.20677696283873864,-0.05294175895224379,-0.38288403913254865,0.502896904437779,-0.37154462018057494,-0.6457198107109277,0.4744928890035895,0.08499667713460052,-0.23092575843360444,-0.037628190311465866,0.04777093184225243,0.041236807234995176,0.006262403383551095,-0.010588997458444365,0.026170507922029473,0.009897487630556,0.13855946129722554,-0.27215519013235034,-0.341883948007331,0.27283045946156054,-0.0566629970443204,-0.11736567716556091,-0.16393560899329354,-0.14909512036110326,0.3026749698338518,-0.15389519996416118,0.08996827164332702,-0.07962852966176137,-0.08909447514426964,0.03849902063988563,0.03932574913196444,0.044736162681098465,-0.09509249703402732,0.06872746831694637,0.1919993269586735,-0.0033889190081639116,0.0013396124601473293,-0.17534930628020637,0.05647284075016104,-0.07080762913077254,-0.08952343047142951,0.1287559018240032,-0.13565081747107688,-0.08528488852894779,0.036886863528834135,0.004601771480633678,0.1469707540742551,0.06685475342518055,-0.0606659239069959,0.17375709148778062,0.05173251462214004,-0.0033092047527031256,0.05293315827785378,-0.030610600364152248,-0.03003859478287415,-0.009149767082626385,0.019038873931248104,-0.0620656008923899,0.02585074870407217,0.0774262421844293,-0.5747234658468819,-0.1370556883334502,-0.12120086694432014,0.040727185711148375,-0.1037121449309516,0.15726167439424796,-0.22430557570576093,-0.13585204127332454,-0.24393984416235814,0.1912205286356612,0.29358382377104353,-0.4479818877813534,-0.1326234870180751,0.8959807069109293,0.30018254997448635,-0.17807534171952594,-0.08488421374821728,-0.2076769296507474,-0.09572229538416166,0.18877093028430214,0.5218520914023543,-0.20107860737757466,-0.2644181795993632,0.03519273513545136,0.8969297985337817,-0.19133009914000043,-0.39669464037228436,-0.1591238382802424,-0.10339981028422884,0.30411150380301605,-0.3657776033476248,-0.8147350051824327,0.04559995107598802,0.15925367887325328,0.12077916600143346,-0.45833083864819346,0.38336250333222555,0.7969878095885112,0.13960319276111516
91.4853515625,1.0283966064453125,0.1488655462910863,-0.10988468389947423,0.014109551268593812,0.3756609555122114,-0.42638591975201334,0.06535514148276066,0.8568415009001008,-0.17690572171106916,0.0902116720262149,0.25725007495747043,0.08608437931555385,-0.06867566774101752,-0.12574314199655837,0.008227846632028135,-0.019770930735099956,-0.10012415289199882,-0.025657264675271466,-0.07041038645604866,0.07540479941891555,-0.03846325329492114,0.059754275993372144,0.02036970476901748,-0.07730114919168747,0.029881789790932443,-0.0482369089675091,-0.08073584570772123,0.1079568612058538,0.014398594939214313,-0.05372324293232745,0.017467473797638848,0.1379610081450337,-0.031322361652921446,-0.045912940618193676,0.1550489605875665,0.07591559757084196,-0.056111456060503134,0.018253602833852526,0.04132564252735117,0.03785200989945001,-0.05070339782953693,-0.08060884681520877,-0.07350941711734975,-0.22273892540684462,-0.09916227452460068,0.1083632255311092,0.01319391498327993,-0.028901193193783335,0.023056937850414475,-0.05018133549272573,0.03277219653126617,0.027904429045380638,-0.009760011706019247,0.08960873391428179,-0.10732424752445029,-0.08119961154752668,0.042945921442126944,-0.03776261656081877,-0.012611580771551186,-0.02023237988451552,0.0019521681267979773,-0.029962065871082362,0.35765889835073394,0.11811394013335087,-0.17886656395337694,-0.36957563646684705,0.2253289237715729,-0.3746117897077166,-0.2079101487734399,0.2736264277146452,-0.4821555274298565,-0.19745452265560082,0.13773176226935369,0.11940470952679288,-0.13686605618319464,0.1970890641289581,-0.07126685942785761,-0.4083914421515572,0.6413546394857319,-0.05363641241073291,-0.5050467850177277,-0.19618150575588073,0.06235913829530544,-0.19962204872865338,0.036941454682971386,-0.05844640445577111,0.07755375746406767,0.39655109200232375,0.2745821454062221,0.5006050610724415,0.041720735069000474,-0.053369603833631554,0.05533280331768253,0.825206802792137,-0.13510668520289393,-0.1329633483839215,-0.48752712985073926,-0.12314847494638659,0.2281557154410899,0.3357044457210509,0.38160964086799165
92.51374816894531,0.9991989135742188,0.2534978475616613,-0.14723342992103752,-0.14285948007608754,0.4013354224180194,-0.7704718229251288,-0.1245859762682598,0.14011652139667974,0.23590675652074153,-0.11062629310931388,0.03977078982215026,-0.007818375852246817,0.09922088046895663,-0.02967672834643185,-0.09114861101138035,0.014562514788175218,-0.059567161947974866,-0.051523110985947224,0.051116606158832,-0.021376897652708893,-0.05418628492128228,-0.005712048833493355,0.07496776622149981,0.0413693871168924,0.0018727920020625843,0.0029226693721110903,-0.07529321423177346,-0.06528716368438647,-0.058879411046061855,-0.01672943616531196,-0.06862853425879602,0.007690753748736148,-0.0160357252033918,0.02916017997680525,0.08677599129843275,0.175673301790369,-0.13912378961246877,-0.2083626831280799,0.19271568946456008,0.029719063307032348,0.027010605544076655,-0.06777246559517464,0.04191256121419112,-0.09200850380907707,0.15278191163944063,-0.01489939308131892,-0.18799988379738786,0.08555789537852516,-0.04279228974646723,-0.01802266499258726,0.027356560105778336,0.016616660274779087,-0.005977494321156444,0.0008385306028866192,-0.020924571241251202,-0.06646723427335662,0.12842490966876233,-0.081110322553738,-0.0005334410376059277,-0.018206054554805888,0.09146884142094822,0.6356879078120073,0.36115713965997004,0.16515102044227992,-0.08982194148870355,-0.23957494216073738,0.15710877006561955,0.28773270170391185,0.22984551105215695,0.7839176403335987,0.24191368095032312,0.12004946913000351,0.2045199026575148,0.13338357286083996,-0.27667441806728416,0.2177127713377447,-0.5545244699294901,-0.7046048153100171,0.7336223053686457,0.31104774320520334,-0.2502667891237047,0.15573873915445824,0.20647357230320718,-0.13648554813671127,-0.6520283658409088,0.34688875682783965,0.5637124122684001,0.015910194992122175,-0.24217513265104162,0.1826415146928848,-0.08872544855101504,-0.27456969743454274,0.2718430304358435,0.05366165404682217,0.0747659698530076,0.13590093118330004,0.04970386658056333,0.42959480182211923,-0.6460242970849285,0.2533057592603421,-0.8806759845146995
93.51294708251953,1.0489044189453125,-0.874849571561352,-0.5107464286919173,0.06925704897265235,0.506284331256745,0.00029396948586220273,0.544195509347595,0.4489350796747361,-0.14797866623095476,-0.10859521314041269,-0.04342106876237857,0.050138530263698654,0.029606960000856344,0.01641537299536005,-0.09233665497430242,0.07943802394486234,-0.028183216385394744,0.062338272988118726,-0.036955095609806324,0.05958834394111969,-0.06585039580535901,0.06446299312190139,-0.19246785494392754,0.07743415989536859,0.06537092329634629,0.068094650179546,0.0631875318856372,0.0033162509631769325,0.05617628615986534,-0.021220030434231957,-0.0850631684161862,0.03265474903277242,0.06695363117189428,0.2709051758552014,-0.03455932627770387,0.01886586743748052,0.02451954296806283,-0.07073874083195542,0.039011770289312145,0.0427899990537367,0.04495569878589201,-0.10020684313099289,-0.10240819474955366,-0.1473608399926671,0.06404299727313621,0.030516824570448957,0.01359068052761323,0.003170600040535195,-0.011552853349496559,-0.0779595935343988,-0.030509498864971323,0.005712095039357287,0.04123336381460272,-0.0007581740134957999,0.015507669202642392,-0.04294583006239806,0.02789468211459971,0.06729664772845705,0.24790204219791168,-0.16257436545199871,0.5354782330101768,0.203525595317249,-0.5488871179806248,-0.05276643001596061,0.2942858987921215,0.04830860472053273,-0.043012385108124815,0.15856529965525504,-0.22333018284772135,-0.0324880332602146,0.39300875326603724,-0.2334767436374201,0.643913023403325,-0.3828365177690932,-0.14563476812733167,0.22856136524200285,-0.24975174548135837,-0.543700755854801,-0.3658356552677131,-0.22918077156880243,0.0059087018711053985,-0.1601231618410281,-0.05525374110625395,-0.12241829494685312,0.2102686551843406,0.30995568920205796,-0.17815480146615523,0.051950969468108246,-0.14032876954016194,0.042452945860005975,-0.08813270909147816,0.05231865571795727,0.1502917152556446,-0.13193141034313383,-0.08063012077809309,-0.08910417953615908,0.13058717470513803,0.0006862017589873478,0.5341947437092908,0.04041400678453552,0.20254661955925737
97.89814758300781,1.0688018798828125,-0.6356681603003187,-0.04391290242646045,-0.02615677332304006,0.20576162194197417,-0.2662435400614659,0.1329771292454848,-0.3153006474090875,-0.6005547243819774,-0.27478147446644163,0.08964844372947212,-0.02961274231862454,0.01059670369644662,-0.09724727877837458,-0.0023734083769803276,0.006485373665608281,0.014225806117694306,0.03307985205183793,-0.13003599811785227,0.038055241565124076,-0.002210962625665406,-0.10465324787276434,-0.05481628852737925,-0.11641342319610279,0.032859200882917834,0.03296670617379202,0.12925772961365561,0.021568493043450453,0.1258570835197818,0.14859952483234448,0.08754433561764488,0.16177399865263678,-0.03776025777586239,-0.045175382478966,-0.04785526861667284,-0.013520843928802956,-0.09062845393460446,-0.032726710202236754,-0.016413554030956762,-0.181644463805435,-0.12160286017242747,0.13123886344914878,-0.07275552177591721,-0.2653705753290633,0.17772063263833632,0.1803189005541771,0.04552120278313386,0.21070626924539765,-0.11741006187416643,0.088100933449362,-0.01608606085637889,0.028254785549704137,-0.04847265464059343,0.17640900244118118,0.18134969631488032,-0.09441928779430647,0.038557398069849855,-0.029468914777968216,0.016568750959344243,0.008447246495852864,0.1316397936299399,-0.37327299882713516,-0.5618423655690552,0.5778938200802822,0.04101230432077984,0.18166247834282195,0.0812403218279463,-0.6273423638171058,0.2934201549749463,-0.19507634885547082,0.0320280292912826,-0.12434171923448485,-0.07746406055934726,0.06650659389458119,0.15862249029529332,0.3181129622781781,-0.2492083860084867,0.5987675550578201,0.010453086469195433,0.027505232321947334,0.10614825724749616,0.25405861163102217,0.3912358448965194,-0.07043910419592438,0.266654613575789,-0.23008933698381764,0.232934791963461,0.27092025759187777,0.2599394887666692,-0.40538606333419347,-0.2095409762369954,-0.15622825390169828,0.14083803701251416,-0.00875901435133071,-0.3693390574570699,0.027161144803184666,-0.1573523437379463,-0.23729264559915345,-0.4959036393074421,0.13286018054774726,0.44442094982728525
98.96694946289062,1.0587997436523438,0.32111409770296084,-0.044117044082792545,-0.051624868624003194,0.5446311179391272,-0.5730804427114096,0.23818633230963404,0.11393047178127241,0.44942828194414375,0.04823457886876993,0.18844029366483458,-0.20372502517508248,-0.058964366031341434,0.009231727655965485,-0.061304334869001095,0.010150360882919074,0.06093171655577917,-0.019579773023244828,0.0058494085293140236,-0.056668682420815256,0.03089285887632256,0.09043365715684566,0.029002306199165804,0.009183070656976045,0.009328851032869819,0.07123357182656329,0.03934858192477953,-0.026480933593574056,-0.015519481361243538,0.04780139426651296,-0.18404363406666138,-0.14343965604647013,0.13072722728005767,0.16117173039943053,-0.06004800957742401,-0.029650392391972258,-0.057963670111732944,0.1644154150353247,0.02968095418661532,0.02562541496180095,-0.10032783669748696,0.22415982465056006,0.02021920814044035,-0.17640741504767943,-0.11837754087105187,-0.11181381047232027,0.15874549409182528,0.09669559977776807,0.10838028612190018,0.10447208634261809,0.15312332333731676,0.026511829719224615,0.02784742611431723,-0.002520371090787091,-0.039306911968049835,-0.015467704515735278,0.08077167040816308,-0.03178878709219675,-0.02306659113923724,-0.11945442823786598,-0.09290600752710904,-0.362897206026017,-0.11189275309579874,-0.04620215436961189,-0.3780803079959313,-0.09596373932783317,0.2628489668265345,0.10177975300025045,0.12272714191680494,0.08606760121837337,-0.38147992187701996,0.3985494045798234,-0.16736627667360116,-0.13893480858009627,-0.3208950756919669,-0.5096831062726676,-0.04704601184399722,-0.09878621293768096,0.43106933711191153,0.05426759110012372,-0.37390459800383896,0.07295128221173035,-0.16517643989645583,0.2438483134363895,-0.022808315856162765,0.014690016151826253,-0.02896057842949685,0.08787240632903663,-0.2623918272247734,-0.06941307422602955,0.016826805167518527,0.07611697165610115,-0.10973613567951072,0.0019900869735515747,-0.2064906450548566,0.2349002698211427,0.0022826605702070115,0.21137717983281876,0.16652344402402988,0.20404276050900366,-0.34623717673077586
100.02574920654297,1.0188980102539062,-0.4987918298971299,0.10173961390112725,0.030785924493905548,-0.1217266535957266,0.0544537995382601,-0.43863394756507634,0.48415985389781985,-0.47258754665150315,0.12369081779497168,0.03811178273905463,0.09491231208870791,0.04390181294898898,-0.0227862334034116,-0.009278805028727527,0.02393961016465853,0.15763845191347733,-0.03261067857439794,0.08075535499954825,0.028334005299069376,0.20170555648850813,0.10525968278769726,0.08699759794817083,0.07152788341697602,-0.10423157478773475,0.0016194008206970585,-0.10996369264708089,-0.023160598695270963,0.0887602756024586,0.014229675270739301,0.015768302448374353,0.10409917295812884,-0.0684904822992568,0.10632260025382864,0.005490071396452294,0.13597256270784097,0.004924477085154748,-0.05624264096844677,0.007753811827920823,-0.13842705879869036,-0.042405444767462434,0.02638993210139861,0.16371564035662609,0.12846567410727414,-0.2184602984567078,-0.024435359483566288,0.1356113466732217,-0.07861739104000003,0.12780825430160658,0.0002239140931769234,0.060648680893278226,-0.047258744356271934,-0.0617651346815006,-0.06587223247824972,-0.06866485755634802,0.058409416215903336,-0.019858060269284786,-0.006060449562326584,-0.04584813343404025,-0.03599104669401611,-0.04813980937938645,0.14639516685524478,0.31557182848098003,0.46484038422126306,0.05715270833215348,0.44154566176552257,0.16431091487749094,0.03090096843824608,-0.06957542300554044,0.34269703884432906,0.639398045616416,0.10561394758548646,-0.23778999492926117,0.033448610034555994,-0.0706712581739808,-0.04572975044433519,-0.1619401707585741,-0.07437393989444635,-0.1224386341666747,0.527268421908326,1.201247073882392,-0.5154076692071631,0.20750301474033825,0.10909863610442506,-0.11210142278422797,-0.13432624169519036,0.13825527051296993,0.12001657460879177,-0.2323868926702756,0.014724374224359559,0.2181471304346044,-0.5425387734325368,-0.37312346521181655,0.2791431178670727,0.09830982806151244,-0.300651091676556,0.021027368681658873,0.40471794958489493,0.08596470912668315,-0.20781039636338974,0.48730376257522134
101.04464721679688,1.0088043212890625,0.21867979859411263,-0.4187856881794187,0.2910971288976661,0.2679457795986184,-0.28722245398649315,0.07574646498530434,-0.29905775741788604,-0.3087285476750632,-0.007173431376854212,0.020778746807964384,0.10176315703999639,-0.09444094513774635,-0.10510800700547439,-0.11024844928274548,-0.06044932546472881,-0.07164551128558963,0.11241051580912308,0.05229065805327599,-0.09400355782056717,0.010760326816906056,-0.0253397471271214,-0.07602356036789763,0.0745428964365894,-0.02198030575871746,0.22382228570362286,0.050756102768976324,0.06924757071565689,-0.06292752460699859,0.011114658562700446,0.03546887226783111,-0.11739391839288832,-0.017345065545988247,-0.05585385597453491,0.040525544486758186,0.007103066323914381,-0.004493383208949539,-0.04091240733374545,-0.30257493340484015,0.06253142507548329,-0.06063593522620708,0.1211008008757703,-0.05232254789132439,-0.06443154565469832,-0.018195936402498003,0.17182613337445402,-0.004836905403125074,0.02615927702887559,-0.1220499430165322,0.016180538997613673,-0.00046684586739242467,-0.0160678639237893,-0.0028037554345965473,-0.0957322189269054,-0.0024661317515834724,-0.020139657126214273,-0.043154661741305736,0.07196555726784516,-0.07148973845538176,-0.09582554299521072,0.09916442731236427,-0.10486810712955107,0.48961284764265284,0.2568936069342869,0.11291002182171886,-0.820101580679775,0.9342294668188936,-0.08733154994951733,-0.04367838385092533,-0.041830237677365545,0.7905347724365308,0.33270094588215676,0.36040239393264284,-0.35529948374303355,0.009963414138260532,-0.03192706201210886,0.12509716106562946,0.563105750450787,0.6752407314794326,0.018889612232750378,-0.09024890417863551,0.034889907685538,0.10375389418408296,0.12564804734031015,-0.09726360413383638,-0.27140869597849976,0.07519892517905154,0.19014205286257818,0.3674383539400156,0.3147782086906078,-0.2076752459879228,0.31254655473394954,0.059558519436899965,-0.3016033835199173,0.003182052666181377,-0.10875180974691297,0.12336530329264422,-0.04039782156813208,-0.374829589517909,0.08669562369503936,0.025633395744398157
102.05345153808594,0.9787979125976562,0.14136547024138568,-0.47808884367748117,-0.18271954320281414,-0.08337014206009585,0.4040766677473471,-0.1333457237736742,0.23462470919918538,0.16213014732761782,0.02613936785548857,-0.1713196369570888,0.37235588884426724,-0.02694314987061098,0.026608316494458696,-0.004300308521189683,-0.014309632864011282,0.03656235300382529,-0.0036616633900451094,0.07847630654444414,0.006546659376554691,0.059548761824815936,-0.028202050577764638,-0.05371238944959104,-0.04961544461959845,0.06990405966551268,0.005021781421013468,-0.011248803354144368,-0.022717979397184795,-0.1649681243673918,0.10817443157023837,-0.07107953666111155,0.06230082532027837,-0.018888836341126293,-0.023941299905010534,0.02256819494338811,-0.040760826236109084,-0.04035425206067875,0.04124752911837806,0.07579470849433693,-0.049792964312389915,-0.03224500115761498,0.030678710266902845,-0.06791831292844748,0.07651199909116536,0.03128220063408924,0.03685901316539253,0.01512141601007068,-0.015551711782820443,0.03775822741298585,0.02904349344334336,0.14468079672914894,0.030064421638881362,-0.017760169145221046,-0.00484680037475408,0.09352014336699364,-0.026114119480088214,-0.0030853735046046417,-0.02400861940267436,-0.018332715608928806,0.025668562390291052,-0.14860737652863235,0.10559901251054166,0.149250856640078,0.3819781912648873,-0.07840035446057553,0.22170490060499826,-0.041660238542707555,0.2062360650814358,0.16412998020431097,-0.03735329177706846,-0.08387750417277257,0.17478268074178932,-0.3246892787236904,-0.37370875646808266,-0.4302681885409555,-0.1050727873530777,0.0034091287497679257,-0.10618193715413066,0.14771811731915907,0.14336049759641623,-0.03245560398334155,0.44562844608222757,-0.1134924351309151,-0.28189267415717967,0.022619824189632307,0.08988146079839096,-0.10486406036335173,0.018016704209016934,0.07765004200341553,-0.009326935747851785,0.08698840943523016,-0.0020924798734807204,0.09474809694083638,-0.0024172107435761737,0.08331765173508598,-0.014447783761336874,-0.13239937999954177,-0.5003127374710558,-0.057890924385954216,-0.1863642490538125,-0.06086320327935493
106.23844909667969,1.0493011474609375,0.29898630585823815,-0.5044879435858984,0.20873965894246851,-0.1811305009566543,-0.2513254813356974,-0.14120398652087657,0.16353894853348372,-0.46249457336895106,-0.1562616891793133,-0.04348181945634235,0.09233411314374704,0.0028177290937799722,-0.05038545177177407,-0.03370942335897847,-0.0012373346115216832,0.049193456762842064,0.009824025792458972,0.019592017275439466,-0.06764330586336072,-0.033457063670907894,-0.010612691864038681,0.03134208529183337,0.0324952027120867,0.20112840114354685,-0.03577759613591093,0.07595919615426122,0.08101495877946747,0.09223997928213952,0.029940172860578578,0.13342037215528804,0.052881961227176665,0.10851622434810607,0.22736850886965548,0.10305605184910299,-0.04206597286641511,0.016141280490874203,-0.1399459698046884,-0.18997685079970075,-0.15517454018592394,-0.07535782657187122,-0.04835892824171563,-0.0254535081582963,-0.2394459963979124,-0.059689329874832095,0.12712474912018473,-0.04308677610170448,-0.07057948287715474,0.043820644426795084,0.01902273609612566,0.016076981089424302,-0.08212767133655977,-0.002412195102018469,0.03194679801453334,-0.012756863095186137,-0.009977169663618722,-0.003850981506723375,-0.017621148658839597,0.07654976845373127,-0.04317007488045723,-0.027958515684322505,0.06497187805660759,-0.03211049611583722,-0.0011242043893737348,-0.39684773325226314,0.5321431530495957,0.341628218464516,0.16437628832557521,0.3659193077183493,-0.4428047235342229,-0.5674099377063083,0.3359493734512151,0.49293484721514086,0.09543527162703301,-0.04819146058869221,0.29178361116600077,0.5392820881808403,-0.11141556179781249,-0.09936839722083686,0.10498941942191453,1.1349612933262876,-0.03568117690346549,-0.22089292041178638,0.03555320789011915,-0.3998872995951648,-0.2849442069771605,0.016597471578780977,0.06579015185556109,0.28358618003563263,-0.28171119437075065,0.18228356328338302,0.6412959763646605,-0.10500033463117131,0.022908002275864592,0.37796684734202524,0.02819429146693427,-0.13835052080876278,-0.06131562482142415,0.023145866498913703,0.08798353264583046,0.25124410867994074
107.28775024414062,1.0488967895507812,-0.022544699235847315,-0.6309047004375335,-0.06623486184312717,0.4319811569457233,-0.17370546396328398,-0.07363891051636486,0.18548962414256948,0.437934669112227,0.052268008994536375,-0.10034768550241971,-0.1953820522411777,0.1830064614968348,-0.13905006370270168,0.0705105545488535,0.04409510215164432,-0.03430376264689137,-0.06268412212580947,0.08268239939846836,-0.050534450015121725,-0.10681222172510206,-0.07326702087996576,-0.0920535589829524,-0.04097922690583272,0.060884734329079634,0.014264672997732824,-0.052519643070387395,0.06094739241725428,0.013934725639061736,-0.07945613160371444,-0.10026735896912221,-0.06536662363420435,-0.09236251413179654,-0.12077086990577424,0.03065882273128094,-0.0984788285186205,0.048536312797307204,0.03533632206092813,-0.15730311238698164,0.02587505818938453,-0.03313873492043837,-0.006826094932316243,-0.2973960669143342,0.20315894481678834,-0.052144036287948434,0.013657452481838134,0.08596829593484295,-0.08632884874189435,-0.0938194570665296,0.018296245960277617,-0.10879343226461259,-0.0923484913788762,0.03877154315431958,0.03817624240261119,0.026022877592915463,-0.020334880385429004,-0.03197739956287381,0.001986802556319712,-0.009753949571921019,0.01134700879622879,-0.009119803687392472,0.04015452697918958,-0.3054958412393125,0.23573189191520622,0.08722133395498981,-0.41297423554474505,-0.16927628409245346,0.023788772751639597,-0.1203887040843261,0.1860716605456289,-0.06340773786938741,-0.047698938802700305,0.4585916941079115,0.8685990573436411,0.10388951266052168,0.012024829825550976,0.21477470169526153,0.023991255964947424,0.46672429638651003,-0.6596985503391001,-0.7409296294901733,-0.7665419998022036,-0.323258857304457,-1.0186949301640185,-0.012522865644104122,-0.27668541257839974,-0.1947003200338719,0.5046184768473472,-0.04676278242724542,-0.3982172759152818,-0.10959615499862455,0.06753856040794962,0.03343564938288798,-0.05288731148544213,-0.33094415087115264,0.36869649698439,0.22456116465325204,0.250113781200077,-0.4484283436822235,-0.24468841944276007,0.9270448043738948
108.3366470336914,0.9983062744140625,0.8389404871238689,-0.17618776105394082,0.3971343559933567,1.1173664097316987,0.0032877910426202944,0.32192547232511515,0.7953535975085368,-0.045199152528018205,0.1497350567036891,-0.056404349128861914,0.03597456248342659,0.07017531348650989,0.0067839316087801235,0.07380418443272362,-0.017794385262633453,-0.11490192587776343,0.002759991366841482,-0.0815328690247248,-0.026696992348306595,-0.0458332934310648,0.06567292770878963,0.03797718543239972,0.0813140745565532,0.11626601971756015,0.053783457746071184,0.027421257469051507,-0.018242431796621467,-0.006379738422191472,-0.04140551867131946,-0.039511518930917935,-0.05272193300497428,-0.0624472530161383,0.018264717118073617,-0.11758920585142116,0.015542019091744892,-0.09182122669917385,0.066651052546642,-0.05592991034438887,-0.011592233926820818,-0.09309742838161764,-0.25804546054959465,0.02304440990295855,0.010671573247730189,0.06565599673422362,-0.14847602787643774,0.12618855708408405,0.03723152768978876,-0.06931343953940633,0.11677392562059373,-0.2976083159813814,-0.17890679653168623,0.07214009302025949,0.0032583592054118704,-0.09493547939808243,0.13690752253936636,-0.02675026368162796,0.03843870968447938,-0.006729212789380729,0.031604857125411834,-0.03344712711981551,0.04365805691252579,0.20687330086497788,0.5120263418519687,-0.2331395015272904,0.4126306565242664,0.5306188218977562,0.31952311898331254,-0.22733577280073022,0.2418708747377247,0.6916169456766185,-0.25932018460445544,0.15169959625651674,-0.2514019363039554,0.10549844031752063,-0.3533729031459581,-0.3061224600700972,-0.5640360907767019,0.3361467716311559,0.11399200894192207,-0.07206090262779263,0.19646688883593857,0.2813708167953992,-0.14223851376331537,-0.41262979613834,-0.11914698023819803,0.36411684074460526,0.09817860145182833,0.14009847051394292,-0.001640003221539215,-0.32900147275885294,0.1793824864278938,-0.08139495785249952,0.5395444799598353,-0.4086688494029677,0.13879407054674395,0.02662501540089804,-0.11461022192263952,-0.45269115006985505,0.39826177535556206,0.20519121182941144
109.33495330810547,0.9492950439453125,0.4769747331228325,0.16617925942485545,-0.3124775080364129,0.11548657917390817,0.005105666503645566,-0.7012141561545946,-0.33450842538515435,0.0029965306379385326,-0.1348979457362506,0.07084281317270057,0.023633413185027926,0.007666316556327568,0.06245588250373571,0.016247325164314673,0.01615183621914092,0.14640885149189675,0.03746788112919208,-0.1648623607452268,-0.11715468192152245,0.02161856831391039,-0.045260121099493296,0.03197122376576633,-0.09663252982270448,-0.02801058562572167,-0.01786831213666847,0.008201564247618587,0.03052319893608347,-0.05638388971750144,-0.047516898932635554,0.02181188678810721,-0.1326240227432667,-0.013992082406011713,-0.02880352139928949,-0.1049868632384558,-0.05598935353091372,0.041355190110104245,0.1376142617877044,0.05156649843755964,0.03666794283739537,-0.04748821925264675,-0.08530792882749522,0.08103158404205758,0.07086176180967688,0.16907260052038614,0.07984676341428124,0.08541142723409063,-0.07567679125335706,-0.008345083569608006,0.0995272609928695,0.08293735980426384,0.14313545681626522,0.12630460167389668,0.003922743737721113,0.07369500522102644,-0.013025919464003652,-0.016015225312729715,0.02663787206531292,-0.011888504763445846,0.046807038999419986,0.11342815087492654,-0.685991190019238,0.646632219736477,0.37658436287519353,0.04025683367428187,0.0927338668648161,0.01045127175286991,0.03414213856095374,0.24471137464631962,-0.05190706580485682,-0.06636271030589332,0.018238206633688844,0.07509755788767192,0.0015783193156588314,0.06200674040298313,0.09923802097503943,-0.32358215962404047,0.09891345205874537,0.08435066566941124,-0.20799957891338489,-0.06964254825755964,0.20909474063093114,-0.09126800458088767,0.13507866631451473,-0.02284679502829008,0.04203577419677384,0.1854409136976984,0.13156856537548273,-0.07097837294413012,-0.33407117697851996,-0.052992238852630005,0.35272031726977254,0.0482513819448122,0.16411369030686251,0.15631017832142513,-0.17198584247405965,0.03642046878470014,0.27470848718110435,0.18720237949925797,-0.14292370554067474,0.22589077187036022
113.58065032958984,1.0486984252929688,0.12319441225125377,0.3731243972451252,-0.04542573524867136,0.3843557013009767,0.4236200913890131,-0.7131285766669448,-0.6585417380133087,-0.07363686288407736,0.21121446684107148,-0.04427954448167426,-0.1264419323497848,-0.02148589588073955,0.03265304420439353,-0.009057545422514857,-0.010573196679128248,0.02600843581530535,0.03165295832144255,-0.011620075963114427,0.16838120148806943,0.26901826457959105,-0.01512587505970626,0.0004220262153275861,-0.019115016350407917,0.007925310754202261,0.0008250441869979697,-0.028996613803983252,-0.035505648136149884,0.06033459247551012,-0.1266001208744824,-0.04139777130440546,-0.08100700621815712,-0.04251902547256535,-0.08075610356808743,0.05055234914048369,-0.04876692792908931,0.044155939918757624,0.027487456704476436,-0.0597871206680656,-0.1739497315826293,0.06256257058797535,0.07026753227277437,-0.10766724168381248,-0.13101392012867724,-0.015467014001617633,0.0403287023856409,0.2094217919295134,0.02993469246096939,0.1707208065987584,-0.055255140040938,-0.17254692283874568,0.07701717461382619,-0.051166482661957315,-0.03941863321964612,0.05275389875679906,-0.030135566407475722,0.043106236843017655,-0.048875089361356545,-0.014438366634258211,0.021534064821222436,-0.0533511748302606,-0.06089345906321261,0.22958720464631327,0.5101034713133776,-0.09416254460022261,-0.10418832396297631,0.16346901408255296,-0.19484239262857822,-0.3630056009446178,-0.5691078322455838,-0.09471435874722813,0.12957606674757047,0.52896037129726,0.48848155734790516,0.01650850062315623,-0.019657213925853918,-0.1648531932183281,0.48795605277385906,-0.16090268813840372,-0.02376740201143841,-0.4133300428891733,-0.3389195895695196,0.062161167352440205,-0.20306694484771015,-0.027689248529885822,0.34686397930013335,-0.17987088256455697,0.510930796919691,0.10456633384128217,-0.25221747622401913,0.08544977185009112,0.0033592612221858,-0.3737621026478475,-0.13738087881340533,0.2502625611091882,0.07839230243871528,0.30231526525791247,0.1539844084868482,0.10677056356587118,0.07822360760418912,0.06659252919778813
114.62934875488281,1.038604736328125,0.0694669535470466,0.05346853857494993,0.10411644258597846,0.22870935239667234,-0.144066581380197,-0.6177432999665485,0.8511337870501587,0.04297505443032541,0.05177437423196692,0.0018641975208925632,-0.13354713120647368,-0.01721666094943576,-0.02325781633430786,-0.00997053217794997,-0.010332400010031908,0.09842828115834318,0.08430352040490055,0.07385568932251627,0.024925078262236652,-0.12519949721184645,-0.06699556592939218,0.04646525240203862,-0.051153278368038506,-0.07701856225773682,-0.055798823240907326,0.025653416450566253,0.05476889881009776,-0.005132522330666788,-0.02229016246082906,0.14317674375448483,0.10330534095188447,0.0019413770437706243,0.0860925626577428,-0.11135698234385343,-0.06860588087346348,-0.029156646181449822,-0.061798367298349186,-0.06447819624754442,0.302577158445464,-0.17126466102227783,-0.33189958570968303,-0.042340810273810765,0.11473409560190764,0.23722372916432646,-0.17254938656785984,-0.12296949845264905,0.033503364721122156,-0.04311071167183079,-0.01755242469381939,0.16879154388276602,0.04267676668897793,0.06120006677933943,-0.001281951841475357,-0.10556880017576638,-0.04149623560858657,-0.06015904982349668,-0.07136806003975826,0.05640612129150777,0.05872378705134946,-0.19522830756978088,-0.009859595468461012,-0.8228568150462163,0.051094961497112054,0.21547993172539018,0.5852073602432699,0.28247602304775127,0.20611429316339777,0.33152457649124667,0.7974323317733181,-0.06554622050117426,0.3458564419126975,0.12411161162384393,-0.122836605534616,-0.027519071003397816,-0.7778474729879623,-0.47089682178630227,0.35661091945997003,0.2249528778206747,-0.8337952286441982,0.3884399511730351,0.2392643464822879,0.125169108305196,-0.10981959855264833,-0.17305842439515284,0.28434153260704004,0.0688115098671709,-0.3699629802626271,0.033648897867648256,0.33115479394465297,-0.06926641864449136,-0.16742029316873938,0.0022872019639374767,0.3769863154940151,-0.4910859464393772,0.1584476929207083,0.19442096090324543,-0.09008800808099826,0.05816529177246399,0.27231051331178585,-0.2056188708551573
115.66795349121094,1.0293960571289062,0.047559771114575794,-0.42620981055648033,-0.11353465398878967,0.6898016584798143,-0.38614605523318823,-0.3694003718639397,0.05705059684259493,0.2782329475848719,0.06857099950775017,0.02317571380438802,-0.16813610491146483,0.021848170365483244,-0.11155397067814786,-0.06934170981992868,0.03893463756510651,-0.06500896370848783,0.004397158887217895,0.06448080983356919,0.04546107252892603,0.12371413070028986,0.007862209423586364,-0.0971773673865952,-0.11630182724134316,0.0515245153041389,0.09816966776409934,-0.06755010593994581,0.13607250689103148,-0.07328931573132579,-0.11913943371807068,-0.06514899668460623,0.05112863007981324,0.1290032995183774,-0.10091766823503921,-0.011998605652151492,-0.10484992695111921,-0.12159489245344017,-0.1766201289161139,0.018401291710762324,0.09707573228242235,-0.17227291433169528,-0.05609937227136594,0.10125256301019837,-0.01699797577267591,0.05630810606632402,-0.019261302898169772,0.05532512572905443,0.014217557362344285,-0.04484621996628996,0.2140308769572671,0.005761664632096776,0.00875702850853135,-0.13813664686213153,0.01286258358546006,0.17148298619321728,0.01317065979100478,-0.1422705325385848,0.024270394707224544,0.1236237539124016,0.08155359515827802,-0.014069667250473164,0.06476325174408035,0.22897811774278437,-0.5366560067971085,-0.0653323545179578,-0.19470241031641594,0.10063782806693866,0.011299482501384519,-0.23890235912798083,-0.00772992375691533,0.027419942675799877,-0.8421609302834985,-0.20409449497428084,0.7479652492468204,0.049871078968985814,-0.07806716355080187,0.08038308679707942,-0.00808807124909022,-0.2621590930362102,-0.6410222317593444,0.05220349647826434,0.18931905100249488,0.006626965880685481,-0.1387059371889379,0.12639397349970266,0.2581281757192853,0.07614814276227418,0.8257753005761855,-0.13248318611714208,-0.07943042269830614,-0.024426374209344737,-0.006401172293746654,-0.07183035356427943,0.03244148366507614,0.38961572803328826,-0.21434572867978774,-0.3862838886059299,-0.4150417849392909,-0.4465401505304444,0.13303129580750322,-0.12682668252618615
116.69734954833984,1.0283966064453125,0.012925832503982104,-0.21847362897266814,0.20153216639532642,-0.40919299178192525,0.28514818531133584,-0.2063402259107873,-0.7095742381074521,0.15313179219592482,-0.33186864055548726,0.368993340783443,0.09900340321809589,-0.06405621014697432,0.011038606439643205,-0.019962673128490132,-0.07718396385035278,0.041875605617070065,0.03461730416010343,-0.03707965362314415,-0.006172637464346792,0.07020368664508196,0.026149742830131516,0.026979035953327464,-0.06433249546138171,0.010768670246093053,0.0366745396778377,-0.07414094760257592,0.08640259342895198,0.025886159066571074,-0.049263711379055046,0.05297901022171617,-0.06910937057739416,-0.02301261639512195,0.11840341502348514,-0.1634887003954986,-0.12893293874044548,0.10619004689989633,-0.1857661521403567,-0.12785231403278904,0.01561097732530015,-0.020627710931869825,0.048598021113678745,0.04575436875753909,0.05397420326171544,-0.08205243343967683,-0.02288909559866745,0.006592347101573831,0.016837292994590993,0.03228939232923657,-0.13563801023667127,-0.12440808031242759,-0.10438640688828157,-0.0037944656468628063,-0.11028806484122301,-0.03734667851793632,-0.04170106476420371,-0.06531621357560494,-0.0424927915846988,-0.06545318058521349,0.0769283951587522,-0.22947158932500017,-0.09439696611530786,0.3282021273619136,-0.5142477329164598,0.2059860936627186,-0.10729390569434154,0.4323368439573624,0.06080073965502812,0.4423542575233704,0.5156878182125391,-0.5538195184848056,-0.6894127776716937,-0.09678607570096917,-0.3082057526723959,-0.3279949963390921,-0.015127786878184307,-0.30642838397954075,0.00498374828318319,0.05850183549401998,0.2766218169874928,-0.2966365798357176,-0.3091699597507281,0.05139978533089212,0.12052256738688068,-0.13932817481545637,0.044403098036888314,0.2049390646999801,-0.07671425766507489,-0.038159577747350786,0.03704121529415106,-0.09697907000059963,-0.1417986197110006,-0.42695239740723895,0.19805382380885428,-0.07041649839519995,0.27561452541592046,0.1449426323096662,0.1265612270610118,0.11353286691505571,-0.16248362338394978,-0.22890983087093097
121.96115112304688,1.0389022827148438,-0.3315259686370464,0.3050143713722976,0.13470025172216613,-0.10542384794254986,-0.09014985321311242,-0.798641297871231,-0.7103130404404099,-0.18117273798786948,0.08680670145924294,-0.1739258762870264,-0.011008238898379857,-0.03646639808210016,-0.029328401753052284,-0.002458166352368048,0.05883390780096304,0.06836662200191813,-0.061921697353264936,0.2633466085228781,7.798365076093147e-05,-0.18266086927113104,0.12394904233988302,-0.029915790878925735,0.19711061195060453,-0.0316752583268627,-0.02359344873919396,0.022916740525503344,-0.02931833369636822,-0.038752377140564176,-0.03266482787210244,-0.06493557268654024,-0.06402345323436093,-0.08831842133409239,-0.06265863890993491,0.014424454708987997,-0.06251327306223861,0.0776050002632622,0.01650460682627518,-0.056802226420956725,-0.06625033692339084,0.196924368451516,-0.09652525600101046,-0.3170266903573845,-0.1390329528821763,0.09744125557396102,0.06609849878493365,-0.09614221772678276,0.12401852336746476,-0.05584375793256095,0.04514893803466378,-0.042829475751840984,0.049145591834697806,-0.0394297655372309,0.017786640436099965,0.040209499259933716,-0.0038394697415870963,0.04125122207469022,0.0009459612684110105,-0.05115235669633183,-0.044237066333526046,-0.10777602464451448,0.10697069370802541,-0.1920633403448665,0.01095919788974164,-0.04301013847663904,0.05585146807461303,-0.1795240517744917,-0.06449529067805007,0.010821732306405846,-0.2989455627679727,0.2802018402114655,-0.2821384808066726,0.09741285074445127,0.18287354262373365,-0.7482454322743963,0.16615100928817791,0.22212651082134882,0.2836950410806707,0.3166835226670388,-0.45956997396664023,-0.320717076088506,0.22096116770093244,0.3830920380728823,-0.15164784538643272,-0.2182176001188312,0.24992619882609507,0.4211902693449343,0.07957325858388689,0.3395531278555904,-0.08890249331480927,0.0967847967425686,-0.13673624811622961,-0.12446689705745045,-0.43180110911429703,0.22206283403057048,0.30592486383922324,0.16580551403494567,0.09616872715666089,0.022156040151254483,-0.29169606573075796,-0.13731570049114153
123.00005340576172,1.0385971069335938,-0.13943861758072146,0.29341890119694436,0.09028663230271214,0.31591850095373364,0.3703977701669375,-0.5523297063351041,-0.5074383510294805,0.3568506715885668,0.04688779900055537,-0.20119147169968324,-0.07182931929106563,0.013028686721375323,-0.023965940329370505,0.11203144528533573,0.045078025753709526,0.07090646062382817,0.12036070397724177,-0.10992763615474231,-0.04729797405958375,-0.11298398947345106,0.03921585188000448,-0.010239267729914864,0.11428020883359757,-0.12433765454995921,0.04736115970504878,-0.0013460348332024613,0.07315852002557965,0.028667423345198357,-0.04843398011379284,-0.07097447171974013,0.05629056259091808,-0.030324964765303903,0.030282801881945244,0.08596221338533899,-0.10274235246556013,-0.10029022852670286,0.11392660978481979,0.14606962298718795,0.08578785276282083,0.2831009991135413,0.23838796600602988,-0.18928981931731456,-0.10382766850025937,0.13131216026769477,-0.18441430052662544,0.1542224618091505,-0.10284693124177754,-0.14997129114722832,0.03927438615639401,-0.04599673971245585,-0.023314137393930706,-0.03987399828352569,-0.06591969165942475,0.013683989386623128,0.001150112528158554,0.007841972218676966,-0.007077086410300215,0.020191164067308594,-0.0009237106620466993,-0.010649979323958655,-0.10746738186268916,-0.10580876146168397,-0.14256291158744358,0.31442046412638175,-0.1784805161168982,-0.2499512166040823,-0.02901918508340151,0.10947345194791376,0.24339843026479163,0.8048236733101402,0.06212523522656968,-0.1240241714339374,-0.20410178849901278,0.33293260180217615,-0.191795690141472,-0.3135891782808057,-0.05308647764624737,0.21521916187664195,-0.3214238707223704,-0.19881120546616454,-0.5684754236553716,-0.6605635291311782,-0.5720744025678133,-0.1950004098766301,-0.17860087988892195,-0.1384227532601144,-0.03732305860259597,0.18051044976367406,-0.19234658643877267,-0.15287345849945363,-0.5431867118429827,-0.3497795512778915,-0.02889531537323449,0.06714848180142112,-0.006743609344720035,0.20825266981634166,-0.4012886021730057,-0.1355841709036465,0.07020104983160448,0.23238537575091642
124.03865051269531,1.0389022827148438,-0.042689280367950944,0.152215593679836,-0.9082439205431453,-0.41907628038671324,-0.2765782181646148,-0.24224045904592084,0.22767559691564532,0.256191254775454,0.11563520490066848,-0.16584656977630866,-0.009579923315711924,-0.21722745038404573,0.04417424633401644,0.0765278313324514,0.07012162587405212,-0.07676915864219322,-0.028733103935804916,0.013983429034016438,-0.02404750024238417,-0.01308415070737183,0.18137630654973522,-0.05133780145302064,0.0055073528094368475,-0.018676607258860854,0.05916149986724512,-0.03215475178149298,0.016487298010378144,-0.06620662006257458,0.012699390646064387,0.08430159144230626,0.008284760917537956,-0.042039722177542156,-0.16091087826550157,0.07494069332395129,0.0886910980225709,-0.061479410544669606,0.02923147521275193,0.12815174389629283,0.04195206821497284,0.17982191010508383,0.08499659960635798,-0.16493666651863348,-0.03608814090876008,-0.13641845875479613,-0.2892132248916563,0.05968859668595572,0.17483826691150814,0.07585621489857156,0.0791299140100277,0.060206953456275816,0.03571416542581792,-0.006087572223461945,0.10160614167230528,0.017881884540046588,0.14852929538215842,-0.01547841284351342,0.0022913295152601097,-0.01268868198716538,0.05565668446065319,0.02347409716871273,0.04825457854029197,0.00427127668628405,-0.2636061134821367,0.287868619597737,-0.014988996765192265,0.19475446023329734,0.23020413822023877,0.15799225732800412,-0.004295056667529174,-0.025020994428638296,0.26915331960175143,0.21475706775014908,-0.1416448559849765,0.02883727385135927,0.4569869960039304,0.39523309529689765,-0.4450453776623917,0.042362920281600214,0.08481988036097504,0.4123889951143355,1.0504169355058592,-0.20709544578742084,0.478432604107037,-0.03247827941966759,0.14578635842742982,0.111191435943713,-0.05365846982318927,-0.00045844133218592154,-0.38732573983559887,-0.06639844290196814,0.05246941290890146,-0.050269710105152,0.013420215480467176,-0.3345020395814108,0.053529589381299286,-0.12197664283430357,0.0840541448196487,0.12898320942038694,0.14170120395296532,0.5344265606516126
125.07755279541016,1.0890960693359375,0.5164690604729795,0.18450355833611276,-0.06587812213335857,0.20740926413959243,-0.09751293658051875,0.01397031540291044,0.1815257155693574,0.052526047078408356,-0.0902383599680318,-0.10381637291868265,0.057881661299768065,-0.05978050119191028,-0.07964361440787665,-0.07402074936983645,0.05209422250207829,0.0637874980627994,0.02349392231784775,-0.029141727507079513,0.10731048003922686,0.002604433158340238,-0.02465139978692372,-0.05315534794111709,-0.040635413447022005,-0.013099272504576018,0.007481301286804959,-0.07209588935379156,0.04291243120092104,0.03507231934714099,-0.005808484559504307,0.005335800591683282,-0.06589644893814801,-0.039935374565606446,0.006098249077783456,0.056928931644489054,0.019740866147705854,0.013032764170472432,-0.10180355597220046,0.03384536033701511,-0.04232974988478991,0.08813677236825145,0.10954414348782361,-0.05011045119520775,-0.23344575539354534,-0.06227137078820631,0.15794931234530754,0.057114633609969795,0.03500736323519999,0.1468028194531721,0.027967660040964466,0.04461166834513712,0.05799097502841041,0.02464280612706771,-0.0056847931261223925,0.013524835019144137,-0.02125277327961638,0.00027899344968823126,0.013528872205260462,0.10497143126094026,-0.02281316571221541,-0.2111671537705963,-1.070586226448493,-0.07121898342440906,0.17644526417577305,0.2628194330303134,-0.10797351318932487,-0.2614811035342139,-0.4131581390563787,0.0903212384263006,0.03989026963732359,-0.1560977891065848,-0.04729234300004736,0.2939462731181235,0.33255132920762653,0.18488548471147412,-0.16418676537040422,-0.04288555041785097,0.20622488018290278,0.057847946445608006,-0.41269777184932105,0.06349118207285649,0.5206647071202609,-0.18998768451002146,-0.2091958930954299,-0.05332229006210332,0.08604350243351423,-0.19417756922516455,-0.1349852670920093,0.26723029437159834,-0.15467512603515446,-0.07324229982939641,0.0893646206127757,-0.5866717266571387,-0.13994496900287395,-0.1957724209312646,0.055815645916173884,-0.5958287642734358,-0.21586833492342042,0.227181467713095,0.11438256141037746,0.40469015589290336
129.623046875,1.0688018798828125,-0.14916511232478136,-0.08941877706266886,-0.030580124942520645,0.12950012501710734,0.16442423564051056,-0.1822368930502822,-0.12110589300623627,0.717247309062713,-0.4358467352787755,-0.11985549494351265,-0.16408806374088433,0.002968154702017058,0.005169992118159955,0.03655324955614709,0.075403484228079,0.038721260453178696,0.07088897905823413,0.05444817624553286,-0.048192699972047365,-0.0825743075643626,-0.030293136591969264,-0.08913489773362487,0.029465121935677463,0.02111812437435033,0.04562808106338907,-0.041238873351252515,0.012415306206177716,-0.012152057451242383,0.06675126823736427,-0.032439013742660554,-0.16404852210379234,-0.027615732924839483,-0.010311294617655498,0.027492038138604,0.032677920291198,0.11275012436598177,0.04332287927225356,-0.04846574472104574,-0.09220928589740507,0.14480694650887443,0.20748399128718806,-0.09000795753262625,0.05938098891479936,-0.1840602301681043,0.06648751741584023,-0.027483173193755442,-0.0774191720967678,0.07139580058210959,0.25573789523905976,0.036492086643123034,-0.059352038819657046,0.09478957681237932,-0.010137354213751466,-0.006245512936892897,0.008448269547888725,-0.04992933916657502,0.047723345425447455,-0.021482762477564844,0.007529477503839473,0.06439537078344892,-0.464270045221046,-0.2964116311212673,0.2290940365212828,0.06268252358277918,0.0565575898902014,-0.07116797793532317,0.4501763817045283,0.7301303992834676,0.06857217124722245,0.503464612322291,0.019105807180435738,-0.10222133800478198,-0.03256379661445949,0.11723679504009149,-0.5433855774067697,0.5631922587920628,0.28741134612590047,-0.1581046175476371,0.21084616706259124,0.17467478921474994,0.39298414170238943,-0.10807562988487437,-0.6816439845479669,0.16156040148005418,-0.26630474707581664,0.11815346132717827,-0.11999667309844185,0.3004405029740673,0.2767903986140188,0.19564526493789205,-0.14536305274690783,0.3288302064401315,0.4130410216166273,0.3653977869668433,0.3363870151504609,0.3261107931988174,-0.14119933650217814,0.09594950691729119,0.13817544516581262,-0.3311847472473669
130.6918487548828,1.058807373046875,-0.31381148231641043,-0.07853244941719205,0.932708287885436,0.16229611368218685,-0.09736429303749243,-0.10475875263050372,0.022417646860103106,0.31947802685739546,-0.19055123493754159,0.09407275668974704,0.06295814990287811,-0.041568743193251864,-0.010347725035192323,0.003577422455195194,-0.019173656431147622,-0.0043762221321447916,0.058067245285150206,0.010623183002624548,-0.04274053488494121,0.06049181741059874,0.03634005018682354,0.21036906334254213,-0.028276915315752153,-0.003455003444527446,-0.12010741867779219,-0.03348536192021828,0.04008606274994834,-0.03629038655228205,0.10881848807647121,0.021907229149960322,-0.03182470087170336,-0.0764095128340552,-0.188144774372663,0.04746788815028315,-0.03293150228762795,-0.02755813871539083,0.0008882130621042784,0.049769034033886224,-0.06293958559442547,-0.056659675469331816,0.057011221642214144,-0.02819380144037499,-0.08765560737925791,-0.03403051753099572,0.14616980038054106,-0.08098882155777286,0.0037971493211683464,-0.028876321951693557,0.0379575248238119,0.018594996009900666,0.06785187086523259,0.15349041610962894,-0.1606256851955697,0.03243171370362817,0.035080853161649536,-0.09514826318083452,0.03209430880911664,-0.04709220986995122,-0.0474297731766658,0.059524018986377665,-0.1691206048373897,-0.2779737505152123,0.7033488361296635,0.15741109527516123,-0.28501502067662277,0.18904509282225854,0.3387519829719765,-0.03621909424445876,0.5433412087654752,0.0740634110231528,0.3295538959685096,-0.22367576916922388,-0.02466930665041553,-0.6610431233373186,0.08723494281565096,0.010772886174731114,0.10525909413821835,-0.45932242753970276,-0.04113363594597662,-0.1508348294491615,0.16305122871927205,0.10788164361354435,0.12300949057434671,0.21044646936846356,0.13901921519239807,0.048810826136102575,-0.23527467811678404,0.16989530628159139,0.5065278521387823,0.1351526722820608,-0.046456910579620814,0.056419156004415466,0.024199102725346096,0.23273622950768963,0.09786657372679668,0.14881844966486293,0.3010229803686094,0.5074371882039921,0.7224527916273048,-0.1225327198648308
131.7506561279297,1.06878662109375,-0.014670247371665487,0.16406220847171443,0.665496965805988,0.322389501259703,0.2457418366783351,-0.1358710508832548,-0.40285931030701516,0.08872482635346618,-0.009626818496350727,-0.04810366411054872,0.009110192402337142,-0.008631252229722948,0.03397696979366371,0.09328481780800646,-0.016114337045729826,0.04835659753750105,-0.09767766317250894,0.010371303291364055,-0.012879136659509578,0.03575081979010291,-0.08439014391758926,-0.0662609928796585,0.05129114289240147,0.047463172407830566,0.02122090237989248,0.0332122232433138,-0.07593182134429624,0.025473918103885315,-0.12870754024913006,0.05110159087559039,-0.12791812248882814,-0.06334620207631113,0.06428089282228745,-0.039727816972019894,-0.06627598510598304,0.0731482014790431,0.21304813376869028,-0.19410356728108974,-0.08253306469865013,-0.27060336876461,-0.11759040237736647,0.26908348275892013,0.22022570620368523,0.01780458481827186,0.017705579520978645,0.03412581436928584,-0.05933432195242868,-0.061004865188846076,-0.04981000352576036,0.014985366584956208,-0.04294483761742583,-0.040920335480577844,0.003616145624360809,0.02873098835455072,0.0019991645666189834,-0.0387579902893951,-0.06927725061018579,-0.08909592193256571,-0.02939425118816657,-0.05602410796852407,-0.005739808781886541,0.37283218263008927,-0.33394887277247814,0.07480963198960629,0.4009868127927409,0.34335918677262384,0.3824499433685789,-0.15444764894451685,-0.04232999527488354,-0.6271457186539072,-0.08354196059933094,0.35099469122738153,-0.07212111570285702,0.6070017036287838,0.24073551407552202,0.8692665869340207,0.3168292622725411,0.1503050679326701,0.17144953882375252,-0.10372122838717068,0.024625718505742022,-0.22114791934630748,-0.3547409678642656,0.37075000629058014,-0.004096366986818506,-0.03739967535143904,-0.30545224521625547,0.307163323737147,-0.11070150151308919,-0.13361004926843467,0.10255000459396922,-0.18330441515818813,-0.06744184211448119,-0.071786117310917,0.36749905662953464,0.2407130620842452,0.07520589577913127,-0.08467963020908591,0.1155501853320866,0.42191096032894077
132.81944274902344,1.0091094970703125,0.4158977735180774,0.10524854839145717,-0.16705505972778562,0.13582928053749738,-0.016407389770812995,0.2206989948404356,-0.029086069237948434,0.9064305813649829,0.015345013773873345,0.00287500449512652,0.02217403790491445,0.06843502959584312,0.051772576938767405,0.013963708427944813,-0.05946410458469753,-0.12634960219814445,0.0040644546941586285,-0.06103011833955668,-0.008894226233266115,0.05178328335563141,0.052220485958740764,-0.025571906028884567,-0.11353938708351384,0.02249503177480274,0.11405694930504517,-0.02133767097940924,0.08980278718606695,-0.018964040072785526,-0.05488140983956588,0.018930975370000633,-0.04176636617164117,-0.18228164710081368,0.17609673123878947,0.07744730637061112,-0.08986062747982553,-0.14250763292910293,0.0310659853260552,0.023552224627653873,0.018987468625478718,0.0777809564487624,0.15252341262291322,-0.0017698784589840622,-0.17441608190816302,0.018833411236560405,-0.01195139220138952,-0.05800095432449925,-0.09208291236834988,-0.060969631243029614,-0.08212006048914355,-0.011640811700361603,0.0060342551363535965,-0.015030650812140792,-0.1426011492305021,-0.0018570525451721207,-0.008000300137239381,-0.06858038927048231,0.007426867280159656,-0.059852727489074185,0.005325841432227327,0.5387462240280364,0.2619661346686283,-0.6248219759145153,0.24009809961586687,0.05844687130963267,-0.15553048885949503,-0.3676628884334919,0.03221649896858612,0.31870936176553716,-0.1561547159965797,0.14013157346371097,-0.034678022352778545,0.19293628392344614,0.5012573375516342,-0.2098411266761712,0.5538907495946002,-0.11476810720318348,-0.10698091306491968,0.16981588343023735,-0.09604979929346565,0.06424849100213166,0.03969034959826684,0.3007321271032618,0.22249424302477683,0.17308322065373313,-0.28186192677524846,0.12221090747648015,-0.09938331887166682,-0.12295249859146744,-0.016623475009422573,-0.22666910398629642,-0.6496984248484987,-0.036515241468110804,0.13588239225929474,-0.10814910175469752,0.30905254874560173,-0.12733906421661112,-0.6882567750504535,0.08667533204973274,0.20717397266726623,0.22682593334462575
138.09335327148438,1.01910400390625,0.22890452133670955,0.41058399797605394,0.39551842558050365,-0.25781520190983714,-0.22983127725528116,0.14027349727748079,-0.007617850154928753,-0.06405908609193314,-0.4902539998948827,0.13523413230077955,0.0006019068263198969,0.07750981640806073,-0.04416161455711454,-0.113273990843298,-0.04620826168182554,-0.052251011966862465,-0.02964357647725356,0.100825648817962,0.11447652568858781,-0.04768828828394403,-0.09936982490870491,-0.14165656902393836,0.010213633742031129,-0.002347793884148309,0.2447323855817256,-0.02272362566054191,0.05680332638225724,-0.041971740330972826,0.08776874103096087,-0.06381496595930515,0.035686676361140375,0.012290373829369792,-0.008524805840135725,0.2329847163881794,-0.2792185095579627,-0.09002913789212601,-0.04801453495871369,0.11750360256339384,-0.03359863131294343,0.16821955066504307,-0.12066338961072977,0.10384311346073408,0.20910668401796356,0.18041655958456304,0.17019281924753266,-0.0733491731442651,-0.03737045717668773,0.1305849416181076,0.06729689800878254,-0.03609870342723025,0.008272433401648004,-0.11217467045714305,-0.12034937475018277,-0.10826011230904616,0.00963519418400258,-0.010347405931970893,-0.01359820382899661,0.006183717859120022,0.1065252618314413,-0.3251943088788394,-0.222105335564178,0.354999494581141,0.25277068698963345,-0.11795569470297267,0.26170149807291215,0.1555498854965806,0.22538229240800897,-0.16369535476279595,0.2922820117745917,-0.5228562599156994,0.1267789625053763,0.39426894528401857,-0.26817674405703,-0.11526696327577367,-0.10911988507945061,0.0009896424746978182,0.4249507104616572,-0.4288803290680033,0.22937853082633575,-0.05810524879901152,-0.40786557614359,-0.06617060647662422,0.5415333418475893,-0.6608869211984654,0.08180941095441722,-0.17230081621200838,-0.143508192998415,0.04221095569869393,-0.3156977903128685,-0.06133624591125697,-0.3850776132570662,0.23354629842736746,0.1859458483887437,0.3656198326292909,0.3757836393464141,0.5645688895401322,-0.18639767052391998,0.175215892194204,-0.6706462012679983,-0.4003639728616361
139.11245727539062,1.058685302734375,-0.21271198424249393,0.3545501657481879,-0.05573992259801419,-0.14160253064425338,0.11271809711700179,-0.006365657155944065,0.04622931111787402,-1.208787591159378,0.013965352820878942,-0.05474819588630976,-0.13449627593254826,0.052961085982637185,-0.029556487093431633,-0.007514567279077546,0.03620081100622171,0.00929493284768404,-0.1520353109922744,-0.006968430748590869,0.07131396271613057,-0.022829944397821145,-0.06766348795367047,0.07615178649044538,-0.019727167546623042,0.04177663739516951,-0.09843893641858581,-0.15816746802917947,-0.07782800263398723,-0.007088527372229249,0.029275777889194568,0.025990766806039477,0.02205456930935076,0.019217593890820762,-0.09416874453034424,-0.09339852914900625,-0.059524879012308685,-0.002721982005583278,0.0923522935554938,0.10914890117304239,0.10691804859827668,0.011994068249451666,0.20667393976606468,-0.08734929267035406,-0.05063525142379082,0.021430839739844214,0.15945542854973938,-0.009195435793544211,-0.1298893874154123,0.1696779451065495,-0.09576644429301315,0.0673230426449467,0.10218637448310434,-0.012192674106334823,0.07726345382263983,0.021043963856023126,0.006987774507664801,0.10117729622847285,0.0006062201473040992,-0.09478559043427791,-0.002105258872536353,0.0319740043270037,-0.20284753559356922,-0.04551711852241405,0.6373453283357886,-0.2782969528609844,-0.05063762971706931,0.34978604288983,-0.15880257498979852,-0.05567621374972407,0.7172463522500492,-0.3673956394095111,0.25432706255316506,0.6209220405472659,-0.4620191000668774,0.006676541486128507,0.21946197992580888,0.08949657356681738,0.68718920428986,0.2641980988475577,0.453812139753055,-0.15981740052634066,-0.01976561950318803,-0.2604903447842053,0.07176175521270042,0.5055754189669339,0.24946904420573912,-0.11945373886233211,0.09095230939151214,0.3534943755887014,-0.24967403420333645,-0.05425802835010407,0.3019201510698536,-0.17831278633947414,-0.1155192833347539,0.05325024728511497,-0.14556272839559284,-0.34140374056885026,0.35358850647469975,0.23654445327509926,0.18889006798343855,-0.7369538770935858
140.171142578125,1.019012451171875,-0.578188656384627,-0.057689372335441635,0.3652639988804258,-0.1267559528012066,-0.40677794444489973,-0.1696944925879044,-0.35917800842483744,0.3460826956785984,-0.813202610418714,-0.20427202619774004,0.20208380672594767,-0.09875618272986172,0.009467974454257587,-0.030421648741809568,-0.003163852011253225,-0.14554393050644376,-0.17196335546632374,0.25777179166805503,-0.09029743788324074,0.08960564635813678,0.057125925220186426,0.12145271876482519,0.06109696071083056,0.1246931500552333,-0.09837279164573592,0.07992004468294388,-0.15547821911166498,0.005238669566368015,-0.0009419985988044083,0.003389048004980509,-0.03722551478183672,-0.06099811106728678,0.0009426586923998672,-0.12738448631463817,0.00744211283347392,0.0433748355473084,-0.10086717124314941,0.0013932001536033243,-0.09669498319200936,-0.08975469678374065,-0.057889708401960185,0.0744138729504782,-0.12327517137503928,0.08187633659099183,0.209908393947387,-0.0009719000335114835,-0.07782419011939747,0.1757214345582917,0.012183741044522156,0.031451094525550546,0.02175052110394509,0.2757400339675036,0.008128772909018395,0.07040078185888665,-0.06542916907100195,0.07279132449948524,-0.003925519495516806,-0.09626130633636415,-0.014573553785891952,-0.0749967957244999,0.14968292113324802,0.12098776583374529,0.525998497745964,0.42017839886480784,-0.0476093529617951,-0.0001621296974407783,-0.07421845752138846,-0.3003791309553429,-0.021325313786579675,-0.777795421531444,-0.2735148111434052,-0.22590430069580936,-0.08216970356685094,0.47742433688485947,0.005582899796240743,-0.513307886838052,0.8272423113469779,-0.2555952744905838,0.08368716179270243,0.3025761416697612,0.22787159612708613,0.07809467424036687,-0.21473064271402842,-0.13040030704688482,-0.16089779035980625,-0.6904797522305787,-0.06948995328333629,-0.1036324008524926,0.1954975766479729,-0.3590722252295254,-0.11728532466427119,-0.20166309422601406,0.3209709197457189,0.4640230980114881,-0.1175349296897392,-0.0676074439718376,-0.239655135946835,-0.2962530648956946,-0.3206167266066507,0.18588299142289122
141.19015502929688,0.9590911865234375,0.1807745771791628,0.20431548664646162,-0.20582273144834387,-0.14834706532315745,-0.3663741109131429,0.31684641170702166,0.09113095110605107,0.8308143690701584,-0.17721210975073576,-0.005417634992921822,-0.009860825883704754,0.008864566145924551,-0.1092647939998958,-0.06731206495350302,0.059855859708893254,0.07072173307931592,-0.05236525225467029,-0.01666930602183317,-0.02641645458561143,0.11899954945563194,-0.010163149873092317,-0.05588582609410295,-0.002158006348694887,0.02488809370969389,0.02892842974496905,0.11813647102154134,0.09301329528599382,-0.08915526646518698,0.005404997871412284,0.1254165831475591,-0.01721671502138374,0.19420543849199765,-0.033733953435397764,0.22522610355276856,-0.11998429731777463,-0.1075002092067096,-0.07856620320534047,-0.13696224699431497,-0.12674308325135974,0.08549331037943124,-0.13467609052248036,-0.050289591719762786,0.012007055003678027,0.030589822655609757,-0.016208920084767008,-0.010163273702780546,-0.04583485670266402,-0.03233625559863873,-0.03021106038471942,0.12417447129984728,-0.030232415048086506,-0.0033772076311685837,-0.03022339611033205,-0.022244412228614018,-0.05980375091480776,-0.038165031335304106,-0.056939403009917816,-0.002671744800534737,-0.2612541368475486,-0.07286559388344202,-0.048304419703825374,0.07760500571882266,-0.19516215837959353,-0.014205279635967304,-0.3888369387654599,-0.7375457077342522,0.32089821390989004,0.010939816470708526,-0.42931994612501184,0.2420955941572603,0.12102790136771441,0.27618989442564534,-0.24222647660970179,0.41071592066604146,0.7407590906873569,-0.32187240402444467,0.048552262082600856,-0.022729033445402818,0.2088923289610659,0.09936035636636731,-0.4108227363709936,0.3145028105774027,0.12176131691712302,0.1513058919753859,-0.06490712221039943,-0.2710621396992101,0.3062507992516068,-0.11565548465131156,-0.2374454304422209,-0.1565730037009079,0.005431930744914111,-0.05463889037544481,-0.15249750629736034,-0.021598073389390404,0.017877588159800083,-0.22652203824016381,0.027609038783096434,0.12853164191850014,-0.2331607788205041,0.05154128731704605
145.42564392089844,1.0583038330078125,-0.6838029090723169,-0.48987792386447815,0.07960480020105559,0.03673851475573724,-0.029244306157522618,-0.04829820173743363,0.29453112023833883,0.9763291050614129,0.1300513208331282,0.05538928465790778,0.05815391748744771,-0.15926952054266635,-0.009930630037571737,-0.10737680368820923,0.005271588033136335,0.03515360967232648,-0.03666652699475048,-0.03632765703254313,0.03650193812641235,-0.10182455439522854,0.08684476433429766,0.03815079415313388,0.04541509730047706,-0.08091143079072985,-0.09037782791219218,-0.01417048119693646,-0.09510895194167757,-0.06156167285946785,-0.07274273872130864,0.016292990358365175,0.06250898185378942,0.10285199009197127,0.06257716694272525,0.08078132717424932,-0.014504915673192778,0.17364353089298387,0.06084261791099755,-0.09055724925899353,0.11646040390484916,0.10154254230660228,-0.13549700785822932,-0.029944373925176716,0.056983857583948624,-0.08590953610713811,-0.08228767030045994,0.04653946539542875,-0.0252627257432297,-0.027134396984263,0.1819680046879167,0.04584298292427951,-0.110668124805676,0.19420480469310886,0.022386399896033835,0.01835095572818682,-0.03934796530277736,0.005464447480331008,0.16039579822391378,0.04592287432069472,0.05586394128651907,-0.0034575066799055875,0.2735273322228441,-0.250180426270761,-0.057685045513481234,0.08942383025923055,0.21548665443228304,0.1551786240033057,-0.26186087826171867,0.32305998410247655,-0.1817235071949431,0.49281467818728325,0.4588133558415204,-0.12883811336605713,-0.06175706892608069,-0.3008249624509021,-0.17582820981978936,-0.07893388942476713,0.23986647421633497,-0.3791529910788932,-0.519258025133886,0.044861297920493676,0.35591030446729255,-0.2684565643150863,-0.0398272321187471,-0.16055677768992024,-0.5173438115532285,-0.43356237468007414,-0.3103120050438439,0.27895615940815954,0.3260105382145543,-0.009302922795588905,0.11868704950991907,-0.15595507271951686,-0.10369953524505833,0.30673639082645404,0.27968536977548175,-0.024072037403401636,-0.22586996906599965,-0.539316320235833,-0.02034971463162078,-0.5489457804501908
146.48394775390625,1.0493011474609375,-0.5443241409703736,0.32840676961976967,-0.1920403417538789,0.06958659870520034,-0.19410534440731955,-0.39396177638762364,0.6391408988954875,0.5047598123187427,-0.07835492493039081,0.15282319841056433,-0.10460850021251678,-0.04805471531853308,0.02549950168188899,-0.030599021383554217,0.07117008444853132,0.04267840796261353,0.009846770918089779,-0.016653930368908144,0.040734423456276245,0.05329469311902209,-0.004426439654565397,-0.07113971494418496,0.12803799562006718,0.029197711369612512,0.002281769390074182,-0.03511648128508125,-0.05857266923739213,0.09553328781590378,-0.0776908384840825,0.02467609010773044,0.03222062774321191,-0.11031516907775661,0.13095105760566947,-0.04615683827988599,-0.1184286603855124,0.03387775788999789,0.03716372120672598,-0.04435901443932277,-0.018447956242245205,-0.15335357164637503,-0.14509186175102018,0.108949682641649,-0.1317888110248224,0.14392497811936084,-0.008892972733818769,0.19525431372888336,0.08823248190064463,0.02942735841943872,0.2046585212537756,0.013772549033973028,0.08567782042955913,0.14542238079929198,-0.002886953278955862,-0.035702750560308825,0.0008165309315075294,-0.033390242440562705,0.03451777455863356,0.005137914476491764,0.019714035800778296,0.049341412952731006,0.031027635891791413,0.3605416175496128,0.5695065766932081,0.029538823488902702,-0.02303914704509462,-0.3309497843279706,0.19084446197655217,0.5667062579050741,0.05648530935204374,-0.45223677175548743,0.45861702127441595,0.3654335139130929,-0.3870368377026669,0.7943821836484202,0.512680604664438,-0.12086740546901419,-0.2505433430218953,-0.16877718134705844,-0.030122271588192626,0.626327981195545,-0.038858825459826225,0.20515060264979773,-0.3890616550637494,-0.0432629283047136,-0.15601145574656594,-0.055343491012251195,0.29562940860369025,0.02910200501608834,-0.3089446942525344,-0.00015988230463159108,-0.06757886826850781,0.023749938425018158,0.1364197134507322,-0.2021713755373396,-0.09196149431095477,0.04343021565995509,0.16081411193201725,0.2835878629898019,0.47388435158390363,-0.48149730238502053
147.5332489013672,1.0485992431640625,-0.49461395335918107,-0.5513650490084037,-0.07731313204997228,0.14722400777826916,0.326910106547058,0.4206760633682704,-0.2631413721294138,-0.4078018788754121,-0.016778656851364034,-0.21361980293389704,-0.1676841927092574,0.02928904340763208,-0.02257433742537307,0.08303456527942997,0.02171911294865321,0.1271187954857874,0.12674484292119387,0.0353538561684874,0.11502395809095728,0.01701455619218914,0.029902951105327272,0.020438162438425552,-0.010348063665907722,0.017733849356667053,0.10911400249563608,-0.09171894874339441,0.05342682606052611,0.015422240376503058,-0.127029716170857,0.08635611605828475,-0.0726001853248431,0.04660051313916195,-0.005884902509047627,-0.10305415964170286,-0.016970054844317604,-0.013384642553622775,-0.013933516583045012,-0.07069999181695538,0.11801557477717338,0.09038284495572771,0.2756910972794289,0.028830524561275352,-0.03156776551019668,0.24372802118892956,-0.011471410684680432,0.013687789776888101,0.056748761755310795,-0.002284432726465722,0.12956194139159066,0.09827461029506881,0.04142129388530767,0.12605565078593656,-0.08927791390215636,0.019569655186629734,0.05383143332147772,-0.06778072836937013,-0.04422275772126717,-0.0076737456863215075,-0.010016845520193796,-0.1670761357512402,-0.4926692814656153,-0.16074476599937682,-0.09237326875690104,0.035573770498777704,-0.29997515671345915,-0.49748904196611043,0.16448867173090778,-0.09267924275044095,-0.16504514922508898,-0.0928486100690192,-0.2047095719776353,0.08635611848508554,-0.009793694101234249,-0.7746414673618918,-0.0031955424363930424,0.2318593181876677,-0.13392435031366276,-0.17298715103404777,0.6323077665931063,-0.3500933635693075,-0.2097828734121024,0.07996882874293755,-0.4873971266375364,-0.06900614063657953,-0.22375268936427792,-0.047389637508114583,0.02895087873815612,-0.08323670229334523,-0.028854649847351598,0.0942709141602681,-0.13543522504621103,-0.4077170950054745,-0.1629167619498153,-0.009315810641807601,0.24841883136376702,-0.1570703305190861,-0.0554959466834958,0.06214230547094433,0.3082214185166103,0.49233649247476774
148.58184814453125,0.969207763671875,0.47006355196456406,-0.22202984168974138,-0.5497754975983786,0.4726228721332011,0.19786109144447078,-0.27155223360936415,0.13614682736495493,0.13791608384364315,-0.30672824501903817,-0.12367587207974944,0.0414747086236867,0.01820819427686466,0.04442226700199846,0.025920861973211078,0.0004249271076418454,-0.04197318720973989,0.07005088723101967,0.07494334223356408,0.16208663411142388,-0.08723931425480475,-0.016709806399586878,0.04436780276690006,0.05426886759905698,-0.11277857275930026,-0.044868339132659314,0.1199762680051893,-0.013591442780083306,-0.007502570020343285,0.07058217411869215,-0.014739227070199323,0.24251164317399365,-0.060618312063759866,0.005335982424449564,0.1490961796455164,-0.08181177416697183,0.00872505715275423,0.08551605157671205,-0.046300954633784815,0.22136476347519254,0.04968747618718502,-0.03869096680430985,0.09867299236865865,0.017075484469820268,0.005041383417374964,0.07491168807114103,-0.01606170972579156,0.024271303785377545,0.14666944411542734,-0.016598005135146022,-0.0633356819604788,0.05764532074305342,-0.03544425313241233,0.03576463481739727,-0.03336120235891332,-0.005154878735759915,0.0251350916226648,0.014420676600003629,-0.08996397516004485,0.061195211029302976,0.10490188612166743,0.3732913166644059,0.1693228836503553,-0.07187158329855445,-0.16319678172264337,0.2848662977999381,-0.2767142800420191,-0.4566137503786345,0.15817316767061385,0.34500989705726837,-0.28262938087555683,-0.0735848021059455,0.2653868505292878,0.6564458842695937,0.09163642911320592,-0.03005251782727036,-0.2596490808132837,-0.007512557319281993,-0.18446321370199387,0.13855294245595787,0.12375777625710613,0.31781100113493077,-0.1704924884958336,0.042675575704386605,-0.05346987650403884,0.10798075654342675,-0.22901567255403896,0.3488363227990204,-0.02851069183740807,0.11711674912753828,0.21486854338524816,-0.033851327568785075,-0.36558193048435017,-0.11374909734832175,0.041414927318420725,-0.6112313052682871,-0.3635600469540849,0.6903818522765284,-0.4273453194126563,-0.1403043621573144,0.24216140643834172
152.89735412597656,1.0681915283203125,-0.28308580659541255,-0.2085947609229394,-0.17764895466510616,0.423418750599613,-0.19413317686552564,-0.09962811597857929,0.4617103942921726,-0.12170607653031855,0.2171713269011388,-0.35281338874258134,0.06773404708786261,0.057539748523609435,0.0186211271226768,0.02826952252287935,-0.010458633597782438,-0.051473021069232655,0.05001991528919758,0.02690343232506516,-0.07944487441741241,0.03135347617786808,-0.023180829350263554,0.0739883993365837,-0.002044513055525908,-0.033492668479973293,0.1111688971867372,0.000718412749817726,-0.006496740192130666,0.00855155915932258,-0.06495916118601429,0.0073962196854896745,0.00846859575010886,0.1011111993470663,-0.024613230259149976,-0.10114177096019539,-0.03916807718083208,0.01380643306960795,-0.04390779500148949,0.059864897518182275,-0.12974388483688645,-0.01817938984840968,0.0557548750803221,-0.06527014926649465,-0.008614416795530891,-0.1925353374899669,-0.02620039672140367,-0.11442475100112214,-0.14536584669238342,-0.022215572375286777,-0.18181695272140608,-0.2037838188563259,0.06342335595684201,-0.03532590609278499,-0.12778456091240384,-0.0726646892829926,0.08136595978692276,-0.015462243842387452,0.0030089372498855907,-0.12177503711186688,0.0174986587224178,-0.01554976904773998,-0.051171305315236365,0.11503091205398693,0.23605247829446577,1.2241660803645544,0.4220022151256264,0.33167105964848065,0.11356136845781878,-0.4598062127465524,0.11533909593296499,0.14313471870228084,0.24193327813926407,0.12449927642263686,0.2292066190433415,0.2954842701133611,-0.17063365794478488,-0.20644117332721257,0.18938877486069094,0.25163474797178836,-0.11573064017166418,-0.47217685554607336,0.06553744505863526,-0.5064112295012658,0.1885952425661029,0.10818759887394624,0.12980034118051442,-0.059270632671543255,-0.06751739066811818,0.2601095161312754,0.23850983812093018,-0.043241680040373875,-0.04175260635682616,-0.308270773247509,0.04237897647852197,0.2463085729966589,0.22009366048774065,-0.05267492751019928,-0.2002631158431078,-0.2038996749765336,-0.038596199909091106,0.11824579530096568
153.96554565429688,1.049407958984375,0.09910876229379917,-0.20288924430614588,-0.5543604681429553,0.6519937012660113,-0.2353526269765746,-0.4234083268245618,-0.8243519718523487,-0.061905834248306285,-0.16577710419696418,-0.06916534156075686,0.04201093562052042,-0.06435429419685457,-0.20388836192063553,0.05865644037218021,0.09912261245071467,-0.07388851074201722,0.061802987919128506,0.11267243572122607,-0.021281381987552944,0.006950627371832947,0.0572124192776113,0.0003714336898824869,0.09368322994008946,0.10014128515948925,-0.06339376705099337,0.0031123655229164135,0.024239573600638956,0.005856124218151496,0.14821451303144748,-0.033764215915696644,-0.07649466193638707,-0.08067026281468186,0.02444290314752901,0.12030552494763151,0.11982273795616984,-0.0601085534350188,0.023456957269399576,-0.13182935380990557,0.08891316494013679,-0.11335965122550651,-0.023550352122914325,0.06825010189861104,-0.055849041730627665,-0.1813617619398215,0.10478608424115746,-0.05443232492841597,0.12629807272595117,-0.09218256451873824,-0.20283162366393398,-0.006545988767781553,-0.038807210202319614,-0.013749145755009642,0.13573577226551448,-0.17101495131385885,0.004106739525696283,0.05919726207295729,-0.03510104449518432,-0.02030686160034134,0.014640238832984456,0.017203056284474993,0.0466219433597741,0.06231112611191053,-0.8443242441370877,-0.5753265290814054,0.2222104830355761,-0.12853581377553266,-0.007900327349794956,-0.07584133276859567,-0.25675837258646633,0.21252087273664552,0.06913538445292873,-0.17663814154132795,0.01163517971535026,0.07784839605247432,0.5701307771465376,0.5622145831948937,-0.5312906551832692,0.6551478230174821,1.3071739789586394,0.02494010945106223,0.2745624941653279,0.44150319989807285,0.12172728400684066,0.02356875814325085,0.4759167432777655,0.23044747006167962,-0.15126586271648126,-0.32035441447645396,-0.24977643012150103,-0.4150993456136105,-0.04050770871773424,-0.1657700450672931,0.32933162380600356,-0.20807829749266232,-0.05910681307910007,0.4288853637078577,-0.3017645897665065,-0.34972012356580817,-0.20124315717600497,-0.32022381056963284
155.01495361328125,1.0587921142578125,-0.17759092776658422,0.22757790645706294,-0.12812522916845723,0.6076408211494186,-0.24882968587025953,-0.16838101385931054,0.7348758933548054,0.5041028971096766,0.2239661204503383,0.14650502249546943,-0.026490628233075023,-0.011818697918694767,0.11960264809785358,0.08222192120203202,0.09782078734306425,-0.00459156932989946,-0.01879620816907162,-0.06456890947420327,0.01734405475666542,0.001172111565727968,-0.01582836643870094,0.08092853595699365,0.03322204670467152,-0.12871370311842897,-0.00020863227158249064,-0.06029608563513418,0.003984960776264319,0.02240218747756452,0.13960655535780528,0.06619979593392755,-0.11225508554267603,-0.08379817264099723,-0.06991165030015058,0.27214032450669584,-0.11479439156308423,0.060852462383545886,-0.01158925106162118,-0.19491673736238985,-0.03872570287031278,-0.2558723327707945,0.10116028876978589,0.031041932159277814,0.06948374526371523,0.14890278796464884,-0.025879397559065664,0.07461924077178458,0.09176482037159579,-0.18721109909514239,0.04778611620673138,-0.09434103359216392,-0.11990627367221948,-0.013271292023370336,0.03862145750917678,0.03259652580941026,0.07653086018344543,0.06291285480142883,0.04347918963521575,-0.013495572595677656,-0.00874178655069395,0.025083353869113062,0.02582025163315493,0.06215501573936743,-0.019042902363832298,-0.11707489130317492,0.5103257049655454,-0.4372954557233669,-0.27497061053514277,0.2729368813101552,-0.49299698859034347,-0.7954413654440782,-0.5405795430377357,0.0935646959284129,-0.06142442317478645,-0.8282664553294875,0.2711444459130095,0.5751888632296344,0.116044930258828,-0.053969063784780266,-0.16070359076319007,-0.2889001354809149,-0.3315147277997477,-0.3538791186658724,0.09309823204710793,-0.4077396784074377,0.584696170836963,0.4987778792302043,0.7340689907639925,0.022337965159985235,0.006799546187796074,-0.1177498414993852,0.29960493526757215,-0.13468222239087532,-0.016426273647229515,0.12829331788271328,-0.9010693173325708,-0.3756371342454706,0.14669662075967607,0.25933374686282473,-0.051290812541523845,0.8343476023042085
156.07374572753906,0.9788055419921875,0.5565035809220089,0.33000373971464636,-0.21851650047271517,-0.18994742960469244,-0.19834974367175567,0.39941176731637307,0.39242315796831134,0.1480277089359028,-0.35340264389431053,-0.008043266042443042,-0.061431106754951316,-0.06670925265948563,0.0010635198934575295,-0.030227711454867315,-0.09546805086334403,0.03338460255710145,-0.010850134396280879,-0.03299144293871584,-0.04694748958262187,-0.029272079318660583,0.05812479112409036,0.04626082666041821,0.014300960378418603,-0.059101469366809364,0.04307230685491574,-0.030537144109998082,0.009861693410327627,-0.04999703168840397,0.03666641674775807,-0.03308255431443658,0.17195624413739552,0.07816719408482867,-0.0392002835072522,-0.005122894920673228,-0.0177325018551983,-0.014984225008697921,0.14643623747254123,0.010868024043376015,-0.030093141478926798,0.2637567326548884,0.2347565458168803,-0.15938809391809025,0.05515343161706478,0.10109644606221002,0.038158728200927056,-0.04288320598728786,-0.07351095284985378,-0.01472061927346538,-0.16200719290795731,0.0018090260116849222,0.004898041363427794,0.03775147352491681,0.02845936362098432,0.0053264920956078475,-0.05701114888598245,0.018749549148787167,0.03489139528484982,0.04800287588376455,0.012533366215604984,-0.0025424558143058145,0.15260258811692348,-0.3136587007501717,0.3061588256449262,-0.23565280419283635,-0.08234128672061732,0.4113032630201354,-0.4534479093671835,-0.08555142815822639,-0.07388416393667148,0.09110947885662884,0.29102117148976,0.1624569719206397,0.010363769862302911,0.3979773248984458,0.32683879656890724,-0.05530221915028413,0.103734608323819,-0.07720192878469782,0.03781348286980715,-0.2918770445900323,-0.7030316197089816,0.3573129216775579,-0.47849975307570847,-0.16549186449647083,-0.2076676605642672,-0.17962126508198495,-0.07626517086418391,-0.20861972026012998,-0.6181984219723009,0.17922908586242625,-0.028826579026057373,-0.1449516630483263,-0.10270129544001746,-0.3746037095218583,0.05721963557379896,-0.05671016683464938,0.04791276513634285,-0.056747030816496256,0.6281604862311415,0.023468621007227908
157.05255126953125,1.05859375,-0.29271734520303394,0.5242037450849042,0.24576662764522494,0.11032631648447241,0.23516014129534268,0.3161754600980774,-0.3818250980095177,-0.2556593849064176,0.0823317693375009,-0.1099619687396187,0.0712634741206078,-0.017282762809213852,-0.007152237404808026,0.0847943537962478,0.001597059204248407,-0.0026196583713963394,0.040280448824907396,-0.04774458730943513,0.31092753768498665,-0.050665905052287956,0.0667057743973245,0.09981356607630107,-0.034808704965195524,0.014032934779470523,-0.017025912731896593,-0.020556332731560746,-0.034840671566451,-0.06073713390209082,-0.04575765407641769,-0.0815629091909101,0.037558289496289324,0.08621909942270625,-0.050659085373631965,-0.09964400686341367,0.09857706762457163,-0.08292671886108555,0.10075337650644248,0.18359804294467372,-0.017430289762732663,-0.0805980253163547,0.008925336944702116,0.023192765791335515,0.090397504259881,0.02987490082500526,0.1036063278255464,-0.22951231856588772,0.01760257992615597,0.019377984759900126,8.359096244395323e-05,0.13100188423326958,-0.028316175248673234,-0.05259649755176131,-0.05417277458117745,0.050599388159508624,0.04035572858205062,0.0036262749213834544,0.14444246921112935,0.053923310575513334,-0.049799574204121955,0.025322674248781235,0.0726161050199416,-0.28642981623214014,-0.9573148732096329,-0.23163592716166082,0.4523939877431061,-0.43977082674298285,0.5278820236996233,-0.23257043970476174,0.18159519421910678,0.10497133734356628,0.13523964332177485,0.4399191678519283,-0.1560667243587449,-0.532376341982719,-0.3131322118803856,-0.4201399722522479,-0.017630427643466937,0.018725771806002642,0.4807460571191148,-0.19410179444815787,0.5071704491808245,-0.2720322676229115,0.11332654044235142,-0.008235581250001362,0.04880980974296787,0.06329047635028148,0.06104666879968184,-0.1704752998666035,0.11112435205496268,0.08315903739471885,0.0010007107594293078,-0.023499515469291334,0.10630938815358602,0.030254525434188342,-0.04848317432275558,0.001309409307892022,0.03213867156756081,0.0019697985470853194,-0.01921082123122545,0.0013725389441261344
161.23745727539062,1.0493927001953125,-0.6128888031411284,-0.5024394198452051,-0.43403562739948653,-0.1846317631785703,-0.6752821268301159,0.03332549118861263,0.31463162445552717,0.23838618457074207,-0.1509664871361953,0.04199375304447265,0.09723336026632526,0.04981849358289464,-0.017048093423895263,-0.03690987948040263,0.03518535296499521,0.028923055761608404,-0.07214419929601604,0.10844633960826311,0.03132869026102646,-0.09343725158573721,0.07710951304026478,0.01565161109706409,-0.04853798662216986,-0.09096398636227014,-0.01130765434502816,-0.07623212294376397,-0.024036350650894534,-0.05597155034029179,-0.013584946166599575,-0.022059762668214494,-0.058174090531528735,-0.10432168583890701,0.011272841270006967,-0.0799785399161719,-0.013057840607524254,-0.10186383332820045,-0.09047276198551933,0.04418830518951516,0.04072430227932074,0.08704996763162626,0.1355739258482324,-0.10509065471687752,-0.033248994604414245,0.0938376254733599,0.031084987127636732,-0.13643491077039543,0.08770292764443889,-0.006287898268536301,0.0594407498394521,-0.03495192660919098,0.03713941292522285,0.02103843905237262,0.011787923942910226,-0.10315850691792643,-0.01605741500707905,-0.013683976536906691,0.0049395838563201224,-0.008554760272488634,0.0406099722454132,-0.01755259571239162,0.10614619755246622,-0.5496431007922417,0.1832169509528771,0.19841818761415733,0.29330481073039966,0.17063976194447375,0.2691446934234707,-0.2530016581297378,0.3247337934727129,0.7564313192148872,-0.4543243694735691,-0.10005828861894182,0.23590690203454756,0.40428951628078535,0.025976826744417196,-0.4621901968521829,0.26782704312953864,0.4429745243486006,-0.7744826884639426,-0.5861868189005881,0.49338366052986654,-0.18911363719447927,0.21330424347596844,-0.2943956974226893,-0.25355741656283515,-0.15157275223560118,0.21639778517574682,-0.540624315985879,0.031322673041872195,0.24172910342211373,0.6038343567791921,0.0380391909418107,0.1792185256904975,0.11418323936299231,-0.1230600683515266,0.4080005928980096,0.07777273892331844,0.3966929633824141,0.18301831383740375,-0.2755705896778523
162.28684997558594,1.05889892578125,-0.4181008497397026,-0.9141482973307992,-0.07964672937647986,-0.11848568110059764,-0.1140562884181987,-0.32860049587527684,0.6326175722952998,-0.8600202506227002,0.06217657227630672,-0.08760541493493809,-0.006172406813271805,0.0474544095343503,-0.002308776212145803,0.007036640656902616,-0.01444000712310733,0.05248817574710106,0.013196608370421085,-0.06345354444784501,0.001500527887387166,-0.004355343797913509,-0.010139980430504389,-0.08972247058719676,-0.04411138265047424,0.04086342881013174,0.0453515333306127,-0.0008229092947630392,0.07113968348017378,0.06936060688121203,0.026264551218094546,0.07601547383219097,-0.02056750040596418,-0.0010745422927388455,0.17194244253428737,0.011543294463292546,-0.006558945612959518,-0.15079361053477947,0.11695367752287592,0.06037386794752725,-0.22261848552793165,-0.10417546404417541,-0.06615951774094028,-0.07891067661703535,-0.07131556593459237,-0.037613052352341435,0.07287214636515346,0.055834702450537066,0.12139057286943379,0.09351203880137211,-0.08032700516370775,-0.06663486714256345,0.002869082358259281,-0.007790046499011766,0.008639491461401246,-0.09042847222296033,0.1181792567751197,0.00038391777042373805,0.04525881473756134,-0.001056708899231984,-0.023662410255068968,-0.08776008451262844,0.12711940058135965,-0.21001444805023484,-0.44125449717705667,0.4071968237801935,-0.420216619435628,0.16022675953125987,-0.34657323031988285,-0.22870693192521283,0.05821380528691217,-0.39992980994843463,0.27311704835188977,-0.00020527244351797305,0.06171517693550197,-0.17259407999103465,0.16729739697297974,0.09773219826896719,-0.024573532653570818,-0.5218193675669934,-0.19110822974844122,-0.3712771173242487,0.26511067975905805,0.6253972361169556,0.321639881140111,0.08048710041580402,0.6325872753057267,0.416404783580763,0.2598189813628603,-0.16937467863954725,0.015187712452752716,0.1478793521466607,-0.011142973179264201,-0.18496401402460053,-0.23300144762910596,0.12481435022083318,-0.06754343642289687,-0.06707622157200377,-0.014521696910938103,-0.20948753262783032,-0.24703412535277103,0.09388703790583347
163.3457489013672,1.0283966064453125,0.26256784540903555,-0.16485282214526567,-0.2840139085611337,0.10653160338779616,0.15266681286051786,0.7986597170871195,-0.2135658622990517,-0.2597532190445233,-0.22418264483977124,-0.24190285850036067,-0.03827662095614747,0.05114738085633559,-0.006292129174095942,0.003770346546644517,-0.03824950036597213,0.046713902461054904,0.11043269077624249,-0.0012780606162064165,0.07857139839713514,-0.05284606102054195,-0.04333980232176343,-0.10837631156724245,-0.0003794475303771352,0.13721950772823538,0.19569380444381354,-0.1306850705683507,0.02271050338918285,0.10819721675635229,-0.19363454529577684,-0.01751175007665333,-0.03761594147985968,-0.0518657178623122,0.0892021615070901,0.048230783869520635,0.034158899101228685,-0.15994107538254895,-0.04959186369926983,-0.07962152294609244,-0.15516456111411409,-0.061765873070725626,-0.2860958657254332,0.08420093211881341,0.10307722875065978,0.34240668946914704,0.14383415697815832,0.04084246148095798,-0.016918766834596567,-0.05422761301858159,-0.0042689573168339205,-0.036011984025453914,-0.07864382895904118,-0.08181588717072799,-0.04868794865414243,0.1130252578815999,-0.15313674803683974,0.017547877817760887,0.04007394972003882,-0.020240573031108683,0.1064873787169483,-0.05982355884555059,-0.2365566143752842,0.1880022414462602,-0.3987122142447461,-0.061965795263031864,-0.07902881785063127,0.09343163757546609,0.14585665546451276,-0.040003647847219374,0.6325657597738105,-0.24062412647602857,-0.3416522950834292,0.2400326373153542,-0.3096187829235734,-0.5954328231173907,0.010930130359591506,0.6849283375084554,0.5712968819942086,-0.16059340559367963,-0.28428649755445023,-0.022226975658134165,-0.1050900158367006,0.04701272762655697,0.1405926478186591,-0.0707037190008056,0.07439586989425426,-0.09285200970491388,-0.1801067925947191,-0.10471942001926379,-0.01920896239827715,-0.13941068078436078,-0.02147242731002067,-0.05650792189311615,0.019702081387144577,-0.3238346976787826,-0.3151548527254955,0.43305730886744587,0.14479939741866965,-0.4329983120652389,-0.2838243860466952,0.1977825084275746
164.3741455078125,1.029205322265625,0.026857280040155085,0.22826165298799417,-0.02796210476109867,-0.05322808503266256,0.07870726495396699,-0.2084050692314869,-0.1448319380657646,0.22101449682681457,-0.06597651258030612,0.008880832760028011,0.01745332476815277,-0.01483377427641764,0.03332637057121319,0.09411010138173172,-0.06174750945407828,-0.02159572754580251,-0.12769280879127226,-0.05277694321434766,-0.030942936650191752,-0.08417284671323516,-0.015618540105994524,-0.02807165136208324,0.0014763549212104068,0.036520211980475,0.1380701880917611,0.009943782687462738,-0.0767606837250344,0.1362767365792583,0.107706883406152,0.05400024858384929,0.028489406373064192,-0.01691917139076294,0.0998824291983821,-0.05880828838701508,0.0992803287440435,0.011489730791365511,0.03506270980352843,0.06801097867019425,-0.08354850970966762,0.06658756439351216,0.002862218316947481,-0.030934176408543387,-0.028761899642950013,-0.06966384530692185,0.12020472303369882,-0.14500793953911187,0.04345204523092376,-0.15772610496244058,-0.028374302888023374,0.02597283714387213,0.032840331576776724,0.03863749820793825,-0.00449802900863548,0.011889908136603688,0.05014734695446313,0.036446466636378475,-0.008954623637991752,-0.05898662645680981,-0.033912262317719974,-0.08367072329157585,-0.3058445370079922,0.7696623484719433,0.25855776142390896,0.1054407281484405,0.19832183318372484,0.04118498125460199,0.13558630212528622,0.5338606851529237,0.03605355914734606,-0.053219389053905726,-0.17856166429672365,0.43442431925318303,0.47551107293473005,-0.044068439080961655,0.011762745944059363,0.3329354471422657,-0.006422353280292024,-0.16997270059500486,-0.052348314055098655,-0.23074467184179803,-0.3718850472804026,0.14654324380820066,0.2822470609856765,-0.006162459439647117,-0.0827940908209002,-0.23904019356971623,-0.2794278912474522,-0.05534844960413059,0.08867352130304068,0.06555829548433441,-0.1400578985850526,0.02254440515384819,-0.2099400225849361,0.09667111284876807,-0.3977953435715942,-0.11964867928993976,-0.16481656000085748,-0.2079603172462781,0.5340978471806108,-0.43605238148691616
168.78964233398438,1.068603515625,0.22053666248848997,0.26896937200972554,-0.1795878606128662,-0.016768008846474468,0.17072688556639737,-0.45665941206763316,0.11490459580968933,1.1312127631253768,-0.10055311730785704,-0.11775803800432652,0.13875499916329656,0.0904287539571898,-0.06496882822909378,-0.0009638068170489955,-0.010745006797308432,0.02772141788361401,-0.04072942207352759,0.014660248359598147,-0.02401632834959251,-0.009193872684694791,0.02850306310786148,0.07775035813871502,-0.030103988003539472,-0.04816709680513407,-0.007633521018115548,-0.0061940889805796135,0.04080861618055843,0.03250931104139321,-0.061401729667091384,0.07427913256053201,-0.015635993550141947,-0.1318832282899615,-0.20064352371773067,-0.07407341263372522,0.09103893176221367,-0.01246832485931744,-0.28353158585183613,0.041473371604607207,0.28896854725207255,0.08716606261476566,-0.23754264990215787,-0.29055225443170196,0.1879185244701348,0.18004722476097412,0.04104770970023107,-0.17400480449000288,0.1106606931615617,0.0370782783563402,-0.030040844574302686,0.23410024327359955,-0.0016433406679695443,0.16695188020496843,0.19258202339365602,-0.15302054030158257,0.10510952515582882,-0.10762127276816152,0.013505047875134455,-0.08816838864564468,-0.003550080451202753,0.0766057862734886,0.05462171910101053,-0.2519495872131857,-0.06376406581479842,0.36750465402303617,-0.25954096364961027,0.09230249220764516,-0.25629770507159977,0.09829182519789607,0.24349365016632427,-0.38622964176851754,-0.12354435318085322,0.6025316749252739,-0.38230713228314056,0.2620823241332447,-0.05932024224371951,0.013151454034970186,0.552136843565884,0.2874534291888135,0.18702336609910739,-0.5061357868731937,-0.1259364280833175,0.2278032197031932,0.416850927404679,-0.007444471036814677,-0.09557420912186354,-0.047752602910942035,0.7995666389654138,0.10231612819564259,0.39045718075746594,-0.24844401914664083,0.021307299641111527,0.4186051091713018,0.05223426341049491,0.3658723836363929,0.09999673399754003,0.6637086738020515,0.20110135772444418,0.108187408370187,-0.09717111647372402,0.24661889020641456
169.85824584960938,1.0684051513671875,0.24798969132499457,-0.07462808791869423,-0.302663961371878,-0.044490704189214345,0.17723122535222768,0.6741820697711735,-0.18493929201370235,0.44414071309499703,0.13261057588951347,0.03149751679520704,-0.055909482448870874,-0.005703506516536195,0.08306247949417198,-0.0013759552126118508,-0.06243417752543189,-0.0828278851238903,0.007589000370821072,-0.016388978683265068,0.002531513699806043,0.022886982711680024,-0.011835362251142949,0.02985215317346475,0.047635601511657466,-0.058390372693124824,-0.06795334745681973,0.038297311136494636,0.02847083251627456,0.12489383546487574,-0.0050574712466791875,-0.07505319765039717,-0.007166553228540837,-0.014264747738052974,0.05768036849781082,-0.030340701187566262,-0.0245679259289714,-0.15490457577947422,0.03136780150577696,-0.15539002474663685,0.09561238045526049,0.13992315193456617,0.058435081714145874,0.05306998245580158,0.009039917750288094,-0.09744414806395937,-0.002668154440745331,0.06469724417324339,0.112494402317999,-0.0024403499798371607,0.039463751844228186,0.05834376703395985,-0.026760342182550256,-0.0833633997082072,-0.02802094093116499,0.006075586317854188,-0.009859299590423271,-0.01066621518113307,-0.020488622129158245,-0.015273524891520347,0.005496586378324114,0.013913533568585296,-0.04514482159241166,-0.09341096972774142,0.35588151913889726,0.3621905853905467,0.18489550058363555,0.182785376479565,-0.046261642831589365,-0.06755480599633931,-0.10392965653279722,-0.009989728470368466,0.0365708865970609,0.26103833714477576,-0.20481705826221797,-0.3449022517777254,-0.05438709935176939,0.34476150972033043,-0.14102498642023,0.06140575479455883,-0.47487089736175253,-0.43078007115772066,0.3006356562592248,-0.430061730367052,-0.043012603813301006,-0.2351410424420357,-0.007546148734856123,0.05824780994124561,-0.2719774567153343,-0.31755097762520595,-0.07923582617722942,0.12297952860439884,0.5837125374383085,-0.05870005989071839,-0.07045137281593074,0.46851866654555957,0.23108222373228876,0.04098134170246262,0.292494594843455,-0.05174168148941642,-0.06914323935750588,0.2687376714611782
170.92665100097656,1.01910400390625,0.31272812312039877,-0.14471235464519813,-0.8247691940219075,0.19655748326570952,0.4959480659020864,-0.30709980679034166,0.24559053719645663,0.33615207485882836,0.0007246295313606748,-0.03935933914905051,0.10606699588081907,-0.0016568506524552579,0.03888494865781289,0.007740364429666079,-0.04756810551818898,0.008640648107292828,0.11565691675971636,0.07202067991429448,0.0063895945888149805,-0.04705798028772024,0.006308073267164252,0.09967228884600418,0.006839193886857818,0.0710354306624672,-0.06890641472063207,0.12520379044845653,-0.038128905066188934,-0.01999029400248896,-0.08986933424035706,0.0229097700573886,0.03687946968933378,0.11873568103409997,0.006843795570776419,-0.012216476789549445,-0.11319244334308766,-0.04045544446869314,0.00476165825602247,0.06290593335551323,0.08651093613620307,-0.08938633771390352,-0.03764213606672802,-0.0847510019677314,0.04406559065019056,0.12563903024009115,-0.07542301202309531,0.18870908026258298,0.05464488108808661,-0.12906833642427978,-0.04824397371046381,0.06969619523857991,-0.041075958032072785,-0.005476274189041841,0.06329926479862139,0.02481603783076536,-0.05404615050383785,-0.054634201410497386,0.0182386227856101,0.044793246279851345,0.030291032505298222,0.02830380270044928,0.02479754808040703,0.18533531951612675,0.5337725656987572,-0.1553045252722247,-0.23342097136510936,-0.08565454906687882,0.19425466466270916,-0.5581127784836194,-0.35456513396801287,0.14083771214769925,-0.33481977677445646,0.1148575703613396,0.11701892610797612,-0.10364190010786387,0.6073801331026198,-0.13079350037733806,-0.11948908011814752,0.006636631107773516,0.1584583009936672,-0.3459418747538612,-0.29416885836974155,-0.2580769289199778,-0.3288315458264824,-0.09118068685226494,0.36013064336256,-0.06409644030527942,-0.008627838598224427,-0.6148505514371773,-0.02193410754721179,0.003574797203223762,-0.25237557353432005,-0.07655548762925346,-0.0888729576709775,0.10979540713128279,0.223214934645519,-0.5075474340161292,-0.0809879474229067,0.025119104269660096,0.5560543503270093,0.2925610680938736
171.9457550048828,1.0290985107421875,0.5552256843885017,0.6682544741872111,0.15812332270262663,0.011525696458203089,0.232147079429844,0.14899860309429702,0.35651808319443395,0.3052682796484714,-0.020934335904361195,0.054340551662639805,0.06489221052158642,0.037580492487139544,0.011423196769861418,-0.037826099073823234,0.04845566457056889,0.07658144786487496,0.07437164491210825,-0.0014559348493917573,-0.0031319769497556004,-0.12989374749894492,0.220302707918293,0.033151152571181806,-0.13979724884120903,-0.2150989893877118,0.016584701512842432,0.047240902745158006,0.02577239296803048,0.07452446587385046,0.03491718622418338,0.08012691618239245,0.023349144619830474,-0.10013821407292325,0.0811472371867327,0.06062655986311352,0.1907157216279357,-0.011896444532425225,-0.1881740405504327,0.0486927530312349,-0.07367041698535967,-0.04076718050579693,0.20532588540489666,-0.07767730507491821,0.21630460907124513,0.03141881824307534,0.25431867369415956,-0.011887208615700225,-0.23823992026590624,0.07184335651920289,-0.023352384200250872,0.07189319395622487,0.05885246134010141,-0.03274671350174879,0.09514160059032395,0.03309174914965162,0.014063518594581697,-0.006259012334427786,-0.002343330630942096,-0.07727670071069406,-0.059295458798994116,0.029508909059806847,-0.17892049200908,0.5861467340695161,-0.20287171505043805,-0.09675229837817248,-0.24057070117859936,0.04089308648979957,0.25268301863816667,0.4349385604775932,0.182012350146709,-0.635834638134213,0.3617047187416029,0.11343906379356655,-0.025125919511733562,-0.23315693573191604,-0.06489808198188073,0.34285520312706563,0.19811221833260118,0.21342871007443082,-0.6630375232025038,0.19087347265414223,0.32478180296764064,-0.3943079995976186,0.8826091882168542,0.0974599205233895,-0.052891737697374104,-0.4947502569290652,-0.20410631395764753,-0.13435707335023886,-0.2129194786227808,0.17364610320704796,0.16213376323237239,-0.037656205651935004,-0.0037332471101377235,0.2640969952337369,0.11215022796066584,-0.3029017515554062,0.21762695637476256,-0.29632286906380834,0.3052170681214516,0.16726300970707436
172.974853515625,1.1887969970703125,0.017077400261860165,0.237672774567883,0.1781638620092663,-0.32510623089349205,0.1601852428768646,-0.4649816560101507,-0.24816762562188951,0.23940686910010595,-0.0024472574173857037,-0.00434587188439896,-0.0302736292868192,0.09119675609724369,-0.05976690680823761,0.04139244093245088,-0.0013600447215295181,-0.05652108289634107,-0.04711836642552139,-0.024428363056625265,-0.038115477878344316,0.1039642542146795,0.006612320296421382,0.05720119960708613,0.03575519257790705,-0.006143158510396048,-0.006253650443792378,0.0024278927700106057,0.01596529819922909,0.0021899193035993265,-0.0228620926703059,0.011992948183403974,0.0377632114710412,-0.10952277690841898,0.14845104052017508,0.021144250174144147,0.03708249906275703,0.06274275313018228,0.024392221828846455,0.07783860563823496,-0.08682712476717246,-0.040312631943658056,-0.09866996050374682,0.0515772817099322,0.030167657775116735,-0.04791208533609758,0.04266415156729601,0.10360234186099179,-0.05930308758925206,-0.026786320638853583,-0.12072643301182062,-0.04158211990339413,0.06431087850541065,-0.02812347338718734,-0.02616057191640511,0.046124030321199355,0.04546494710626725,0.0024358222034317808,-0.010007434895503597,0.1084958754771268,-0.04957064632315178,0.37516141346499154,0.4647743709802257,-0.07169785438394893,0.492320468850862,-0.07298422605133176,0.17834134673333937,0.08486605141268964,-0.019932198838016665,-0.07139182341313992,-0.05473948589170166,-0.24515482533525873,0.25949222649845394,0.2573926380911519,0.11661238905560872,-0.031399864746255855,0.06931592074698255,0.19054832657212542,-0.23684817852620516,-0.04537786158252741,-0.25983478853148523,0.07666135795353267,-0.636966345653175,0.02035094141905929,-0.28253915201898955,-0.17897599468806683,-0.8118781839134745,0.07426113719502608,-0.5248655446126353,-0.13440577995627487,0.1311897103177405,0.0046362200384287774,-0.2789308539988531,0.062101330580389136,0.2676901443307731,-0.22721015049169999,-0.08011589862774586,0.008464379191978027,0.0078041845180371605,-0.0044830446598456836,0.25349834052823367,-0.09880135059479649
177.3800506591797,1.048492431640625,-0.11841029557376948,-0.32591269012291807,-0.25173875886691627,0.4088175317014049,-0.07477850914366674,0.08686540665548245,0.6956905502348087,0.06197073139615923,0.3753316025399331,0.2721530904813545,-0.035841074303911605,-0.10369134268228822,0.026277814236288752,0.010943742207198338,-0.15197395191797333,0.11122017901252829,0.1796341729372941,0.055007523557614194,0.003221375142731884,-0.034883981950621507,0.023441621664740665,-0.03477360953982313,0.025004041627953468,-0.026428116449091956,-0.025925299280511464,-0.0045652339272928355,-0.02480315196633755,-0.018699870868086305,0.05118079509343013,-0.06988563756950378,0.17529119777893723,-0.1329427543137856,-0.14068596367891736,-0.06947963765265601,-0.02382387751433199,-0.13857915115774608,-0.04085061515041465,0.09507592057273877,-0.25568954110352504,-0.2903373767413509,0.03273517436989587,-0.05985678927483726,-0.15811081426086035,0.03870891469186298,-0.006176858661113616,-0.0629407564936212,0.0011564937221876142,0.10267869647633579,-0.1418069850609886,-0.07957451926197986,-0.1313388888837195,-0.10685957455464185,-0.14152320810692232,0.054262960752473215,-0.040687988838806,-0.004428322333066851,-0.012947594058324852,-0.018137972109910735,0.03530806825028986,-0.18365027268151973,0.09266067210043909,0.8862454871657087,-0.005176262652933847,0.057887025952488055,-0.1785098084504893,0.0258892747472885,-0.024719422200263394,0.2595906660394223,-0.6732079406095731,-0.017810762607527397,0.5199674393703054,0.5396460235442668,-0.04107409441347729,-0.1791645707058412,0.07730899542911969,0.3302420046536459,0.35933390025867296,0.2053364782348825,-0.1238013066694569,-0.16174810599223013,0.07687288293458427,-0.27079924005301176,0.5711840345598159,-0.03228667867349874,-0.2473235782632976,0.15921293237975076,-0.07129300304553883,0.046456941228354184,0.1436340789319634,0.007917511970495866,0.23630889484971357,0.24633447411943324,-0.19493528331938773,-0.3127179265270856,0.24756884204375607,-0.035260624527385764,-0.15796220572666786,-0.2463275886352316,0.5196534897886481,0.7307620943469668
178.4285430908203,1.039306640625,0.43207991380450306,-0.27664861537521035,-0.13700207840996995,0.5146971747236353,0.5784082967023827,-0.3074963984054834,-1.1793235554712458,-0.5637547738186954,-0.06987504143937544,0.0853192283545805,0.005049737877428707,-0.03799864059146242,-0.02449929389862972,-0.042426150483193405,-0.03713998670449719,0.05309003451991992,-0.02702675495142331,-0.062011290519194545,0.06025201786351166,-0.06321313945196223,0.1150354712097088,0.07441924591585629,0.06145105916125938,-0.03347569502362842,-0.016745686709792748,-0.028698323737728272,-0.031910630380369204,-0.0453458647063078,0.06284389979696055,0.16958911901537668,0.021742275359327715,0.1093084017778846,-0.03663349056555881,-0.08681471416470682,-0.0969414538712713,0.0024569046992335853,-0.017211433405573757,-0.016900950380566444,0.11233154197062148,0.01916332313383675,0.09167953420368384,0.17831997469631286,0.039353596961212524,-0.06730123523889904,0.11884220183402362,-0.047411787886994836,-0.1081369493975364,0.11275782978452524,-0.12012368225649166,-0.018586777093540792,-0.093810733690358,-0.0006719238223650142,0.10328202541397469,-0.056832596285588316,-0.03112704483378094,0.09928919012182279,-0.013862711589746925,0.005520120234930377,-0.030727795573638153,-0.11384976368815931,0.251869353820081,0.8656199820586703,-0.5445344561549372,-0.03547969758792508,-0.4199176796914129,0.181395781052009,-0.5298686773760095,-0.24602275344750957,0.5127859402309539,0.039387957346417674,0.5481273503901993,0.02283025390537642,0.06965892878345575,-0.03172358479534252,-0.46749182064267164,-0.20795421846232576,0.05077351667288307,-0.6815955731280291,-0.5041060134369767,-0.5552123804519411,0.4452600692248229,0.523343085951014,0.14379027239254566,-0.10322581642101707,-0.2395885552501654,0.16054134902309616,-0.25142859832687137,0.088714150713257,-0.09400473951968441,-0.17305553315666933,-0.07723106870156668,-0.07625322186420913,0.09729587994941569,-0.10550287807765615,0.03291048677933147,-0.08266756805319961,0.04765372320855882,0.2716537929564022,0.29177867742934216,-0.09470514644456562
