start,duration,0,1,2,3,4,5,6,7,8,9,10,11,12,13,14,15,16,17,18,19,20,21,22,23,24,25,26,27,28,29,30,31,32,33,34,35,36,37,38,39,40,41,42,43,44,45,46,47,48,49,50,51,52,53,54,55,56,57,58,59,60,61,62,63,64,65,66,67,68,69,70,71,72,73,74,75,76,77,78,79,80,81,82,83,84,85,86,87,88,89,90,91,92,93,94,95,96,97,98,99
66.49220275878906,1.0781936645507812,-0.014368238281298682,0.0002893747664645639,0.06919166667873304,0.08705125828783601,0.1377574967583732,0.10686387305481142,0.03660693615956549,0.07097007615379845,-0.10960646679888511,-0.011795682566777618,-0.04744284530827476,0.03036401536762444,-0.09762574620641057,0.03938874975906717,0.03516528562036292,-0.024180063970078672,0.07424425211990598,0.09463307771644128,-0.08969324102118913,0.046972908537212754,-0.005021944530111843,0.17684793598302703,-0.10194021431104354,-0.07512473406446657,-0.020301579678716278,-0.003973105857508985,-0.052541761142632856,0.10357525229906762,0.1444118279519449,0.1959572716857726,-0.09243296023620702,-0.0034110476415588143,0.0387414163084287,-0.029300440047059603,0.07542509016382729,-0.14430206797642414,0.0056425424381759785,0.07976904645293036,0.1751400777259579,0.22300178871673626,0.0881335027336009,-0.2553929667553526,-0.1368712738596649,-0.3930491940662548,0.047904919342072916,0.0368664918762083,-0.7238180490563217,0.43815738556533596,0.29013404426813927,-0.3477251041804073,-0.19611410753943617,-0.15366766776290572,0.05122223705981128,0.12987037606308122,-0.0102082006248814,-0.017785948653138182,0.008183910999610546,-0.003768271618041802,-0.00734512260086545,0.023004542034083655,0.008695440241593747,0.05419986959617688,0.07885525229639219,0.028482698804102282,-0.012907071822330803,-0.09913170435208778,-0.02894136660390986,-0.02759527097630783,0.010934684788866621,-0.046256171494967184,-0.024525281025760275,0.022635407412904384,-0.015311201607736129,0.016999611351507876,-0.006785161877764224,0.01211712510283501,-0.04022291388793523,0.005107606100459911,-0.011577060923722404,0.04227713581665109,0.06165227682265474,-0.06398985521769315,-0.04852315733182065,0.08280690801866432,-0.005107450101883463,0.027972754638055028,0.014241456133661928,0.04120420489634146,-0.004993524366693853,-0.01611069829407596,0.007181395532647819,-0.007606291967000975,-0.0025411407078110657,-0.014721121239470957,0.053253336209803596,-0.05588937310984176,-0.09664113542065784,0.07758958526322088,0.06615157230540424,0.03769109776971596
67.57039642333984,1.2187042236328125,0.04437941996510236,0.0026774383413365917,-0.07825399629705497,0.020189673717401213,0.10744723982549576,0.08938336491408698,0.030867657760241845,-0.08682415859335457,0.04280288745090167,0.08250176213351013,-0.06375529000731885,-0.0936629595228973,0.10768198319325094,0.13914832615629816,0.015094298425791266,-0.05480774951253031,0.1288958578212817,0.06728347435648371,0.04767397450835388,0.09856225307596694,0.10433360882510608,0.15824305198946687,-0.05395353581369722,-0.08409780906698759,0.13358633864313327,-0.13476792652359854,-0.06840115190067968,-0.006478905517173839,-0.04044126173120448,-0.07425202679709264,-0.011932478969775354,0.027808995454544537,-0.08295762740351537,0.09826435861052163,-0.03322710356948497,0.021066067118036803,0.16600006758203,-0.16387329936415443,0.06835034139566945,-0.20167464597585652,-0.17616804921351242,0.06865642868528783,0.0912471410879778,-0.00492517936907079,-0.07673943746404213,-0.16279937462810454,0.23588858152431288,0.07432257420234392,-0.0766117553618233,0.013175431874210764,0.06570179144702723,0.04476682317660069,0.0929747258970128,-0.006105584793757435,0.004827079919885926,-0.008091216241901724,0.001572636138340147,0.0494837809148875,-0.042046426442060456,0.014466308114762362,-0.057428921338774565,0.013162792878124795,-0.04305014412553836,-0.012546496281463662,-0.014556355996969427,-0.028319242828355212,-0.06725386058176733,-0.008310607773441593,-0.05239932422104911,-0.03522476166427392,0.10591601379722822,0.017661246902992683,-0.03739867612816937,-0.03998265163837453,0.11737695605576898,0.02534675200418273,-0.05557334620389326,-0.03613420195893719,-0.013624921688715723,-0.017276180928639792,0.001720645943292831,-0.012793116027458161,0.06253942869978875,0.028369834113571645,0.003823543151563344,-0.020771767459860334,0.011930981243957297,0.06831730356750602,0.029796595015826932,-0.02152745046735794,0.025934388061975688,0.13804240904267254,-0.023481203980895,0.010156751567029776,-0.03005343303811977,0.0315213463549568,-0.004616342549678366,-0.01932273596585205,-0.0711172465060386,0.004038913389232398
112.14839935302734,1.22760009765625,0.07800076565322095,0.11024185503175388,0.07632884609999611,-0.191452306995405,-0.0791910268260487,0.001319456738874428,0.3184159834438149,0.2754439921582295,-0.16012353913938102,-0.04050985533011274,0.13292450927467603,0.13340396412564354,-0.03864861244669618,-0.1909656736218236,0.0007144319226886099,0.08764903287945428,0.1657043601742525,0.009722063114459832,-0.11143848920777666,0.003848512017269706,0.09142110499655556,0.29710035799379697,0.060723982408457625,0.0993464584303652,-0.10677362608125565,-0.28314871509453293,-0.06235552747557732,-0.2678112285938806,-0.1061324146020691,-0.06912537507151377,-0.1937669444609164,0.06140050043885523,-0.007024577203037814,-0.063635260124967,-0.27303243653087306,-0.30324937566491394,0.06988305856905061,-0.17438836870124247,0.055079533511703575,-0.09118194350464584,0.02671017949958691,-0.07090851130624665,-0.09786223281501995,0.003977416362086483,0.08114086888112486,-0.07745914141640486,-0.014205121563586989,0.12384328053617728,0.1812192050834464,-0.006709287586030215,-0.04112092291982963,-0.04710818508365913,-0.03055091908144167,0.04014514788929272,-0.04803190627576334,-0.010027190993238507,-0.01371528939977534,-0.02560107252714645,-0.1061971277407117,0.03756145916342845,-0.04537452316973409,-0.05059905604522224,0.02894039762737738,-0.015989400856760056,-0.05547836750104553,0.0044872864499502264,-0.0016572783914847844,0.005545701008610129,0.048232161709075065,0.06603109928929803,-0.02072954722830012,-0.15289518236070326,0.09216692729175309,-0.03087702534709549,-0.03794328953949285,0.0064548452169951274,0.05187930848418051,-0.021958690083629447,0.006367866444711289,-0.02639552283008089,-0.014304944951271374,-0.0569131062971978,-0.02003637070976126,0.09260257621873348,0.03592565273074742,0.022069245848931242,-0.09023787402735879,0.026163472035427297,0.0778117867643734,-0.012271283194110598,-0.09428570168777506,0.17546035035252405,0.00935031101298647,0.0117757656931794,-0.04762661211339202,0.01730333950397515,-0.12634843718265326,-0.031251450525806426,-0.08325660611843234,0.05075590732182168
113.3759994506836,1.2388992309570312,0.05753768174489606,-0.05833676449553467,0.013034859024289637,-0.06605272368541135,0.11927013955571152,0.08530616836171809,-0.018087008128648274,-0.03195923010305523,-0.026287705085695647,-0.0061543657414560166,-0.15159426578678645,0.10682607055835314,0.21375176952335254,-0.12940358072355854,-0.19762136409343067,-0.06039623382958135,-0.04775561602321367,-0.002825020652964778,0.06744277712780176,0.09400462842930367,0.04263887569187171,0.03902544671962768,0.10260690169355943,0.09285255942731739,-0.05526847909678607,0.28775918687830754,-0.2019852720170348,0.021507738910017477,-0.09953107655401165,-0.2806044382841314,-0.23576567763944914,0.08307705589966602,0.11816246229199107,0.07290939839452398,-0.17982783888164405,0.05710237026668688,-0.10553468451233679,0.0330929608519979,-0.027179581030942656,0.1518581813858236,-0.16376801024994941,-0.3143061258818447,0.3887474203444606,0.29236243422057195,-0.17864310835576386,0.03144179093164269,-0.3921949242502796,-0.4892394594240037,-0.8178076040972065,-0.4417524075797067,-0.7906353937754963,0.06383727917342005,0.38773832279682885,0.07199287289505796,-0.014515982184821932,0.09681882061516282,0.011687229837102377,0.03774707524348752,-0.053503009562954326,-0.0016358782645009423,0.08093135472207458,-0.032484278362206076,-0.0041592734036903275,-0.0323044739844979,-0.03545457091283203,-0.0204405440809907,-0.037095248338001055,0.08317393180488622,0.0050571693645416185,0.007737536728480061,0.03647232953807609,-0.03328561090921315,0.06762309098392713,-0.0168182504100705,0.006733364231316527,-0.041571188518143065,0.006803376124724042,0.015747557786028165,0.043074233374206836,0.06648524141002694,0.05141202079974533,0.00912123129870107,0.011710135218505242,-0.061048908253308054,0.12524603869056988,0.008731788916839754,0.036767463715374676,-0.06242078915552286,0.00156048261610316,0.004472826153231148,0.07949972581704007,-0.02341917077999169,-0.03918027918202963,0.013327371727891231,0.08006531553518165,-0.00706960495379691,-0.022557743277096188,-0.014894374414702899,0.0015829842481687728,-0.021755254272307185
114.61489868164062,1.1984024047851562,-0.013691740219301599,-0.03157251892079967,-0.004010660334973009,-0.09967380867178835,-0.08261852132836629,0.013858000834555531,0.011384568834814155,0.1345703388046822,0.03907522519286877,0.0632358432470484,0.1972519637531619,0.015605925968154489,0.052342614146222696,-0.10541896338039564,0.05766969672025005,0.024801485880821185,-0.11952960026870091,0.17704084538795598,0.04592835784744096,0.07707837580997257,0.17988275461659045,0.05408960206503389,0.004155767865924372,0.08661947269856017,0.11343888167941611,-0.08993103214528549,-0.1757385535348148,-0.014223451606944408,-0.024923575157050418,-0.1622687612033026,-0.2918513313200321,0.001378777184915591,0.11665542233979241,0.03286377873538003,-0.03412197748058923,0.029146867305730857,-0.18328899202439342,0.022541771432805884,0.01217295463282126,-0.33319328609679333,0.3374925317321239,0.08877916614283674,0.10184545215954292,-0.00534305557934593,-0.5829962519405901,0.2096549792418907,0.4501703943776247,-0.1011549956546671,0.34021852107247186,0.4590281518479779,0.13204833380158618,-0.21183068265032184,0.12215432521015078,-0.09156135699295143,-0.12563211235881813,0.07137463581643103,-0.10968766437992697,-0.0704466044695871,0.04425177451651502,0.004386448832986027,0.011317840176290589,-0.03089079244585931,0.005278305811227471,0.02752290035491782,-0.00820791470503487,-0.004638393460719746,0.010545059393194894,-0.0167375994129203,0.05042783723786687,-0.013092897147103752,-0.008466689757169616,-0.05690836866318725,0.0075104868899197735,0.050402515977333154,-0.0090780359108808,-0.03990375243848342,0.044631878701719904,-0.0030642001578378166,-0.02856270357386251,-0.009805498399185276,0.034905927090786486,-0.027723966616873555,-0.02339973816315609,0.0020908528290851255,0.002607692364074644,-0.0036074680620628114,-0.008282594913191419,-0.0037222586692266827,-0.035776386237075165,0.022698566052482137,0.020170891087130507,0.014562931322887107,0.013734641040629507,0.05910702639685399,0.002609116598183664,-0.07702117296918011,-0.01730697915185321,-0.0640107413898389,-0.004907754659370242,0.08761349694723691
115.81330108642578,1.1977996826171875,-0.047678501480146476,-0.012798585357920413,-0.051289482540696776,0.050293143611457654,-0.03929556958703227,0.10258836751412587,0.054127780485274286,0.001243429012149006,-0.04430574506071987,-0.00117870220939594,-0.08953959247311277,-0.26361725840664657,0.10307627365855553,-0.08921913812421123,-0.0817273230699739,0.003961212040574487,-0.08573593141088973,-0.028935465758147105,-0.06218194722470172,-0.0883737263053215,-0.2168799604144566,-0.3459775053879081,0.0952845937682057,0.020849077746979732,0.3122232342952579,-0.03951175772032519,-0.005156266754124131,0.060949069788917155,0.020866779574617807,-0.08106570956480567,-0.03821243517662144,-0.002734748679150559,-0.07822751704251578,-0.14423400109623147,-0.040105774805955195,-0.08198350823376746,-0.032501783371555654,-0.096781756322584,-0.052761028901816553,-0.22660667209517849,-0.2287749122522084,-0.4071807496707578,-0.20250397911222334,0.6483007740821405,-0.02236048809350731,0.04337346660209458,0.12038551231171181,0.18782540801100608,0.012213956571842923,0.08778624019534088,0.14398090863420232,-0.708492398501888,-0.051648049219771106,0.11831827618250249,-0.056361184586257905,0.020295021417028856,-0.01880358241091952,0.0036717269472036286,0.006737295242287622,0.020611155552953963,-0.02276173504737997,0.05452328096461616,-0.03207090005492179,-0.018312788834516754,-0.0568635596973423,0.007214809389413353,-0.03407105667121639,-0.023585555136003543,-0.06434873049047035,0.04203289306085311,0.05074636458487283,-0.0042507345075133846,-0.028072397074485528,-0.06414482611276992,0.021674188222490585,0.038949714530408276,0.01029477375952452,0.05419232544861915,-0.020134256027080615,-0.018209988188061153,-0.007156629714755912,0.022945825226310564,-0.006985468427773331,0.025405547241890345,0.05639252320985346,-0.01217460970201948,-0.016505559793678275,-0.06592943392184371,-0.046012906341884846,0.04962989515441909,-0.03777095064513759,-0.012615966252577382,0.011377294267310128,0.02574410126546187,-0.045877554519169875,0.1301500448327088,0.04681538463030305,-0.006529415034299282,-0.00345000557798059,-0.003463279488639351
117.01110076904297,1.1782989501953125,0.006731493948714966,0.004465437284102978,-0.03329260817558456,0.028608153908733065,0.06345549055090863,0.028741329491984352,0.10577963283038995,-0.008615184999764117,-0.11403133028138175,-0.009166794045873988,-0.10897430367443497,0.09675255639102993,-0.051336456386115094,0.07940350991752453,0.01675659577273552,0.014997675867169167,0.04048235891931731,0.07138636650821086,-0.11108228708464701,-0.1793258590131212,0.2958547748261867,0.2070388036900923,0.03313687618510841,-0.09620316202026873,-0.02754875550146303,-0.025669700700552356,0.04715910309782688,0.04824060124548267,0.0769739158261486,-0.17631052438729783,0.10121774453513935,-0.019604791153776176,0.20339406427488416,0.14391140685849585,-0.10216903392087412,0.12993523045371916,0.11592289699856266,-0.5052193699615866,-0.0637411558652558,-0.15504987755031582,0.035983702036611276,-0.14870418762908014,0.18058886598774512,-0.5493076195837533,-0.3667751933829576,-0.426037135035567,-0.16913631061990458,-0.09595835620825073,-0.05959281535964442,-0.2938010493292596,-0.009286827781628232,0.14463945704517878,-0.00921312658025964,0.014316399865437908,0.06364719323825918,-0.03018817454867469,-0.007462738063823675,0.0529647009360133,0.024011328093402125,-0.04494674988300547,-0.013213943866369898,0.06252864360209826,-0.010676803158091941,-0.033550079478922995,-0.011285663456155334,-0.09689698740409729,-0.07353738443344984,-0.03529913571943021,-0.0033449372263900214,0.019955688510769246,-0.02856428965672667,0.008972673031822871,-0.07107992603422157,0.005011330951276481,0.023708167310611015,0.05747067939308551,-0.028608516833730835,-0.09677162857772775,-0.00793266506087037,0.04961790129570324,-0.0015298710840148427,-0.05248770428613199,0.041696840053141726,-0.059861246520004734,-0.011770448177881192,-0.05067641999620973,-0.01102175698344989,0.0075909797893720515,-0.02621383622879002,-0.02075547889555412,-0.10197352830219328,0.005283249314953117,0.09825817057175962,-0.019726696542811215,-0.0015572369390972356,0.07708086564815271,0.08548574617504565,0.028447845692900528,0.04876259924143078,0.029943370753247683
118.18939971923828,1.5981979370117188,-0.10675264898891662,-0.01307293760987129,-0.04779725442909334,0.12951088699339974,0.05461504443947611,-0.025383503966772386,-0.007772856825261358,0.018335081312574927,0.1884725685022683,-0.1714968530135495,-0.1323325531794845,-0.08263794245001195,-0.10299859793311492,0.07097888818894106,0.21429186637043504,-0.04794103337285313,-0.06952789157570732,0.0483669630704045,0.038684821374903075,-0.09047551126169724,0.1890227398492456,-0.16799174450978704,-0.1876804401744146,-0.07480778773295385,0.17080051124145418,0.053091100196476865,-0.08887560357778745,-0.16797791146143895,-0.08695955030555155,0.023990088329621566,-0.032268704012298706,0.10023997138856403,0.1286553600962832,0.08297830053736198,0.0004404804790669563,0.18511841838960938,0.264517364814972,-0.01687111460482095,0.19089018590174395,-0.15490716844993171,-0.18686386353341294,-0.04561798685883678,-0.15870511048927863,-0.15978953439422303,0.2477850774030406,-0.027215853383093788,-0.0028843609676112566,0.28923430139963197,0.021410346859287624,-0.14234794790298533,-0.24704741166313063,0.2130033904042736,-0.13878766495392933,-0.07694837389566067,0.03842076154061522,-0.015187556105451217,-0.046997375803806404,0.00959280396068981,-0.0017476257343453192,0.045579127240277045,-0.02509307330134887,-0.00865750751486481,0.021451367935468542,0.12846197047802788,0.06926440178435321,-0.010961555217230117,-0.0600355461115964,-0.04609613145092931,0.017069795352762193,-0.02019215240135429,-0.010400178032544291,-0.019205617937883175,-0.05031729173702906,0.08573203056369044,-0.004135850900976484,0.0040168174767166815,-0.06211845396682512,-0.0010390796401492488,0.0343819720270529,0.024240494707199405,0.09997490977014283,0.026078654794319242,-0.09119234247548516,0.016823436897298136,0.012519279321880038,-0.0037923860275466234,0.011811055584792647,-0.018869418023708548,-0.0452437544811903,-0.002070329387124075,-0.00970600265631586,-0.022055500124854726,-0.009427350282570569,0.07030423346065924,0.02669754175793573,0.02414829076845292,-0.012740689975697522,-0.0445524030062082,-0.07494951222954038,-0.07088233385933745
122.31410217285156,1.2284011840820312,-0.014430488235111321,0.007889372886466519,-0.02475819419852478,0.025379097371041867,-0.07196658987200433,0.03783174355063907,-0.03949191059266073,0.022695996063849873,-0.011133395348502984,-0.05965663930008328,-0.06254155522077243,-0.010354181532537839,0.04315202568727411,0.2139933373586763,0.055923028961859945,-0.21624586003705923,-0.09120350485179896,-0.3489662153772479,-0.049937661663496655,-0.02583359021858163,0.14096287389476714,0.12017530055367862,0.014736427659503039,0.18567354320264887,0.0786574078103909,0.0810389695727202,0.012283721468077461,-0.05379075541635946,-0.13700270971591003,-0.22495230138731115,-0.12410336569281122,-0.03268195872977603,0.11760056688598967,0.03860219031066669,0.1501740783195798,-0.03719464722553874,0.1432031120628168,0.17051035654082528,0.5653349227525526,-0.23590345403498816,-0.12207461455493147,-0.28868664431732993,-0.4774176002747331,0.05660760580150703,0.3063265804728163,-0.2513486707183826,-0.2285351053239201,0.0158749671062919,0.33970582897288576,-0.4557053497989839,0.8177419445053433,0.20814909999375386,-0.06879323193846482,0.06401666988151956,-0.009326378066390036,-0.013158546979954094,0.06385210699801858,0.062189591274176226,-0.0038182868302588492,0.01700740698708486,0.05912663080118331,-0.0062410258273257945,0.0339968471683897,-0.03287790351005065,-0.037513687589244525,0.057783839602501705,0.023427145639441913,0.013673227459663255,-0.05910078168862289,-0.08732957765409113,0.031118145929077135,0.005195608542572283,0.04617019342796898,0.04097630569863145,-0.051517740731412354,-0.03776524129819082,0.020942998264554515,-0.04678185289376172,0.006714253571096436,-0.09501274043779954,-0.014413325745460823,0.03290606434677449,0.013591897691007632,-0.12792733236169607,0.037949223013163495,0.06901562761489008,0.06429809225174724,0.0035832534597935286,0.005193901881943878,0.008851209718553986,0.006690065986177812,-0.003386539469402844,0.022645400382277275,-0.10314664959563866,-0.1215635457208871,-0.03200727228468043,0.005236936377918613,0.07132628519961937,0.031470677820097076,-0.010447527754192602
123.5425033569336,1.1981964111328125,-0.0014362614509651137,0.0030726738612241364,0.0782392786909014,-0.04115997610978378,0.04157912193728144,0.07687368448949901,0.027717326960260368,0.038652632101304644,0.10035223682737704,0.08779946200279282,0.12541540034585888,-0.04779154327949421,0.07892492974036572,0.06792430856422199,-0.08294215210707571,0.10600919747871,0.08197968666066337,-0.01051585583335933,-0.07327854822367724,-0.0352281574098461,0.013276510070398748,0.025992108915348547,0.029512692954897335,-0.14693587088878235,0.01730977021125686,0.03305171042647553,0.009118144676158207,0.03724079446549744,-0.18162672989222853,-0.19067309493836923,0.04843543982748909,-0.12948853651276637,-0.02577510892417494,0.09660137547710988,-0.09915589699696493,-0.1765088631558625,-0.24572102177200283,0.10846756995908938,-0.08853474373021496,-0.14947535414874424,0.2003307327612495,0.042938920729511706,0.24215643813754906,0.15498292771305944,0.028584702159813145,0.27942511519545615,0.2801087656683344,-0.24713959291037596,0.12052176299965789,0.11986501578456457,-0.13097323333482785,0.03906708712896754,-0.049383237007968914,-0.21592236928795722,0.13441759976259826,0.04590309491319078,-0.032639559110688054,-0.014664322463929354,-0.024185089044267152,0.000421229678583915,-0.09297579870359601,0.01691754504629136,-0.010750123748059339,-0.05011242488693778,0.00034978196018428664,-0.026535034720690458,0.01227442031731139,0.023304839078003084,0.008935841656828333,-0.04899188041285702,0.002687483475676483,0.09837158474229787,0.018412110339655164,-0.024398519754162226,0.03636584456789163,0.05206770832434454,-0.03738394540775712,-0.02074857113030428,-0.05164391226715814,-0.01665691854969376,0.006772606526610277,-0.013106890323160814,-0.10032679924383286,-0.06444455173161909,-0.0333568218879385,0.010396570627576457,-0.11431713581810242,-0.04068641557151826,-0.02275009768913975,-0.042263912789834664,-0.03000603643881134,-0.0951298341413435,0.053648430477437684,0.04849511019230719,0.003737199396938172,0.05590568999736085,0.08573458684304736,-0.04295147101401974,-0.03417720432317058,0.05021055961854556
124.7406997680664,1.197998046875,-0.08306927358854817,0.029654686478570752,0.018759424742808783,0.04268519932839464,-0.03797353396445723,-0.09324180280364094,-0.013198715983834302,-1.6348742169304542e-05,-0.14572666256979477,-0.027802268701814317,-0.12923970454706948,-0.025316032251410724,0.07916291683878515,-0.12284073501655984,-0.13394857826176368,0.0019315964889504295,-0.18302794626157165,-0.005552797742725155,-0.08569781005998028,0.014998488979926136,0.051264898363319406,-0.12765725486290833,0.2012657332862402,0.11725907927749851,0.12697187741785054,0.04529259816636671,-0.0011672689813592985,0.10883653789151054,-0.13880673182469033,0.10225729516933733,0.11566841704671699,-0.05183764052379029,-0.2659458017831382,0.10282896900505234,0.007240561094824495,-0.04086269742163679,-0.0227794661575381,0.08494194202417107,-0.19636066553538511,-0.05313539355281192,0.12934473117913792,0.12007213035124574,0.38303964560650877,-0.10126242056151917,-0.5309360345355926,-0.0018117200012188824,0.3388569277688891,0.3545318483798151,0.5273894366730387,0.5840142616215863,0.4782717584415509,-0.11100323380701747,-0.10529435739652764,-0.13304583171740528,-0.14303793676237628,-0.13823812029504484,-0.025101823667328344,0.01049824326081029,0.030033651283812954,0.015292123860507883,-0.05043574396874402,0.07548678654446121,-0.03467149997426086,0.010921013961441826,0.015027320250219125,0.009265969875807956,-0.0605624979791372,-0.0059477158180487304,0.006667110370307523,-0.0025659063590507602,-0.04657187448758612,0.04041824863481852,-0.14542925631579712,-0.006194816323254438,0.0456781535917754,-0.022247865447036375,-0.012845846307734263,0.01952176314292621,0.050820699893501776,-0.02215828295561839,0.004985909899548887,-0.004064877766526376,-0.02218640585061024,0.01463548859853311,0.07754830604738785,0.0022633806931752196,-0.0013462390674715825,0.05123115041850635,0.06659044343333964,0.10318392454083268,-0.006063567254231746,0.05221034554636906,-0.001065342406070007,-0.02384941674706198,-0.015755828503603925,0.07218665885439413,-0.0033432267422585406,-0.04120276244170694,-0.06104798353270292,0.00794588784371888
125.9386978149414,1.17840576171875,0.01139405245449325,0.15488488492577618,0.01136841057006139,-0.09929164498813103,-0.0010502211604561384,0.1837649237907239,-0.02114290603585673,0.005547854670937463,-0.008442232012980597,0.04581570319185614,0.05141381898276724,-0.12187458861472651,-0.012446418697780714,0.11932656640892075,-0.017357491484436882,-0.06589957367391559,-0.034527369323885004,-0.006036602986870395,-0.015035168548519481,-0.015150001359020407,0.05251098435461183,-0.054434651462679146,-0.019719262663226555,0.07382923601042726,-0.031821547263305425,0.038266020381669555,-0.019483167290198923,-0.12583233932410592,0.05402248779614739,-0.05986481986373745,0.05565626247193184,0.0018399968171446818,0.04140050824240661,0.2727060913164269,0.03378247883751219,-0.03483671584427865,-0.28322144545825856,0.0093816950704092,0.06467456922931919,0.05892929782223501,-0.007590800693868263,0.11100819607382185,0.10809034670705255,0.048511969234971836,0.17228747722353613,0.47564194932902254,-0.0008461749471730604,-0.13087280410341864,-0.5262541001318889,0.1412708396840457,-0.4604865351199543,0.173906750593499,0.22770067794623516,0.6592159527780077,0.2468439790824398,-0.07159472738468026,-0.016392584576804717,0.007173745304532867,-0.0034479203275490588,0.0041840261505015075,-0.03269337086725667,0.013302313382756031,0.05452040156328624,0.05643789263243702,-0.014296792210423879,-0.05319802983354471,0.02378224440638797,0.029860235941725235,0.021188849676291675,-0.017827473556439075,0.002539914095477623,0.002152420398691928,-0.03235975398270095,-0.011827075567088148,-0.032309532349962075,-0.10251046924087942,-0.028089879557127422,0.009888580225178073,-0.04762680749486198,0.02414095613276267,-0.027913840109561206,0.028804233441287224,0.0024423497331721752,-0.05195696316109947,-0.0673566012430971,-0.03629214845584944,0.008175019639423105,0.021432105330134104,0.01210679589623747,-0.009373671178703481,0.08555886230236645,0.10464980186354228,-0.03923514693442858,-0.00897939704209834,0.008513931804138956,0.05077143831292452,-0.08381373931815761,-0.006788357461447584,-0.11771227895132563,-0.047180360585315266
127.11710357666016,1.2580947875976562,-0.04082697382673505,-0.007845613191055133,-0.004562859059742255,0.003518196503964086,0.07797485028858099,0.05873638758063188,-0.10298910400725197,-0.028308478586936168,0.03286808356383801,-0.0885242203341779,0.014155381118204852,-0.01735336317361519,-0.017718764075440024,-0.11335724293206195,0.017300893991698263,-0.09660506349360504,0.017831821558847803,0.048148973597992605,-0.04656806947385557,0.051148120616036845,-0.12335270939954102,0.21162476464099927,0.09499083937411314,-0.0506723633831253,0.01053727930179374,0.06976169431165609,-0.06803816002086985,0.07548828508290102,-0.0643526749237364,0.10595762680223261,0.08664842135696409,0.26509854580441095,0.05845130622758046,-0.13486919569970993,-0.1633024797676895,0.20722711841070607,-0.0014921372632657158,-0.31368928073779895,-0.417592562956829,-0.10476727549771014,0.43242871116407594,-0.16467500307146898,0.09189401820412849,-0.05987837433939285,-0.35164899364850954,0.427450043143112,0.09197296071203157,0.14950663838905118,-0.12649705978234624,-0.07806639429423448,-0.17975444513231836,-0.11815594738801533,0.012499348561261132,0.006005871459791909,0.029596913697845097,0.01570174032326651,-0.032846618240766665,-0.01009689642491844,-0.0028511188787721823,-0.08272780146386152,0.013820143702554626,0.03493041752704608,0.031719023902501677,0.019867895499882725,0.009011346111603522,-0.05182126509071891,0.025183875470552057,-0.03965748974608652,0.058238451849079574,0.06735670384209103,-0.022175417369416382,-0.02357443180781927,-0.0556950728488897,0.004542843327441858,0.012260782361151554,-0.061568328057558,-0.021313261299432486,-0.06271403754586635,0.05023373917068027,0.012369089076436156,-0.050740538527554835,-0.11766482483249771,0.08310613964360415,0.014609988499142586,-0.057007087434444555,0.042347601269019826,0.07043276561509246,0.1939893316708462,0.0501183475474841,-0.051815709163272335,-0.11914599330039764,-0.008645180270315259,0.04379341295915655,0.15970699729301852,0.09082737879440053,-0.0016498471482079646,-0.08493876477540754,-0.02730095111048788,0.019100103207608576,-0.08883564012150175
128.3751983642578,1.2382965087890625,0.05946191943053088,0.09588918198091928,0.019100422620193416,-0.06041731903399526,0.002387048443252616,-0.10444772565375957,-0.09081069929038442,-0.04758743914761226,0.07200024650253346,-0.07498579325698176,0.07523407774049994,-0.058758768963064395,-0.00017440053846816753,0.08419876854818995,-0.15196857708028605,-0.28655782994370527,-0.012143395928533557,-0.138211039471952,0.024460612548317946,0.1835195430749692,0.14206043185887512,0.06625687731513635,0.028142467000524824,-0.003266293626637448,0.018094948438993484,0.12589416714609467,0.30056425507538376,-0.031929885053806686,-0.0756038597068967,0.04549697898630457,0.05297870770030694,0.09467165163531399,-0.02681124199454494,0.01896516066815207,0.005207244325289809,0.014652420549874784,0.14183086107633017,-0.10906497078190376,-0.13230589342870766,0.13057717009283204,0.1472136447151834,-0.07972779777976075,0.06531563933190299,0.06371282367866818,-0.04382353795884569,-0.27167276153015274,-0.13058577732661286,0.05648642508902883,-0.06449827045731428,-0.4776176521342628,-0.016649697491720527,-0.09634656755716445,0.034183527663184755,-0.014600562073878597,0.08540307314941782,-0.02470626450619419,-0.008033376738187456,0.022917301554879664,0.07768370218427045,0.06507985530323947,-0.010217365439920106,0.0641272763811713,0.05186441305167501,0.002160401363489243,0.0022523690657876593,0.07251738437993938,0.0012540438258400247,-0.06255548934262874,-0.036843026460669226,-0.049381659884184484,0.047158115511920576,0.010455448449723447,0.06888396675672102,0.11398623323430118,0.08062356274996407,-0.001520664546291844,-0.08265676802852145,-0.00177065741216168,-0.06629004893023595,0.047345507937709495,0.01189273896132598,0.03745106950232493,0.012376973039917272,-0.0850176990220962,-0.05762359640278501,0.012791360144437783,-0.005825765833725893,0.023867912770407056,-0.04256331586997841,-0.005573185944669547,0.001856918836655036,0.0014569007619538077,4.783461693178607e-05,-0.003273853013185651,0.04012788136164254,-0.07302499104615529,-0.1085168752483002,0.015266635576107445,0.019352158616049418,-0.017000470313303713
134.477294921875,1.2180023193359375,0.10552284302795434,-0.057741125954744364,-0.006225179668210658,-0.035555554046729165,-0.02670213215683069,-0.04733308303956845,0.11802707486801182,0.04540011449258582,-0.033779405102393356,-0.014436044502358875,0.04690980110652174,0.057366061460836545,0.07091099704016476,0.00933741784846179,0.10575419006611532,-0.03748581196597337,-0.06065399839069675,0.020660881814960064,-0.07200385678838186,-0.09338324025077852,0.010509461829580246,-0.017277824521167086,-0.1172058590956639,-0.11908828329775138,-0.02607072178169334,0.09381091538580374,0.013274928243812129,0.006911569780462983,-0.03892658730834582,0.04846798369953211,-0.03475509261586633,-0.0008307181484823734,0.170213648657443,-0.005774520319271342,0.20876697238704445,0.02716499378318395,-0.14753908991081932,0.2130413891827839,-0.024232759218350233,-0.11252264926817658,-0.22475815041332542,-0.34248608137389575,-0.14418313149590486,0.08568924486001163,0.029674972607364077,-0.15399077961847424,-0.37060463924355047,-0.00012084149028568203,0.2543922159993609,0.2071771539531792,0.09252104774510542,0.03325586975894773,0.11324816889508672,-0.02372103705421671,0.06886189270172699,0.04943127011201234,0.018854672941294854,0.00751777420041184,0.008885099469063563,0.0026794765578763953,0.004300297447046479,-0.012581085374246292,0.037819257710620356,-0.004016205391425397,0.028664927942380597,0.026513766982778183,-0.03798349993882834,-0.07579436054984366,-0.020887200125908344,-0.0064103663671667005,-0.11535299792578535,0.00037327399704448476,0.01330954591474655,0.07787640197510946,-0.0286673023610974,0.02848165588454847,-0.023639745502174223,-0.011769408970446035,-0.09169893793425243,-0.01800395860776897,-0.10648130005955553,0.03229652111578809,0.018469104212733026,-0.08033597309418788,-0.018895051575606697,0.028538257510175132,0.014889905212910231,0.047712322220918646,-0.09010280850392312,-0.04385270218390103,-0.03998247276611865,-0.02939817104104714,0.0042592440005506564,-0.008336205866638762,0.0004900260444600733,-0.09196975938621678,-0.01447157227413859,-0.0038764588948507067,-0.006768086078018362,0.024905076782781577
135.69529724121094,1.218597412109375,0.030564036237887313,-0.033878178071683335,0.12980765490800106,0.010616423441779451,-0.06724892287628706,-0.008061653251783457,0.15442944374780407,-0.14025174950196756,-0.0015248983150220607,-0.036247450134007604,-0.10413636063206605,0.08141939950367233,0.043862858327278605,-0.010547902890124958,0.028297069214801115,0.026787193163870772,-0.00026532666886990453,-0.12113830353178738,0.023308722733176183,-0.018403692386014685,0.06929326922234968,-0.05954513671976041,0.02556546304193577,-0.0004587301637245765,0.04457950788514752,-0.07662810391684334,-0.04008082984084677,0.03411676357981949,0.1107203237905918,-0.04580381554075469,-0.09073081559709861,-0.056667717032957636,-0.053424307639936525,0.06598802353437784,-0.12440845329310575,0.17857737146378536,0.2413897428763896,-0.05939300505600957,0.10456223709228599,0.0704188674182929,-0.2304709072241422,-0.12042574959496626,0.08492689680891334,0.08117814840138908,0.05268577334740396,0.1743807499123031,0.4967271610231059,0.03319515740818149,-0.000719995462519666,0.09768573926070226,0.04457864652132386,0.08881539211999909,-0.01188213879719736,0.05523887657557485,0.019829947300102298,0.016377128013602107,-0.0035030286869491964,0.007204511342900286,0.0058753308567625236,-0.0024688798406102266,-0.00491530088005613,0.006138046555204661,-0.03404295100259082,0.025521471930351956,-0.0007631575527626338,-0.048702447026545616,-0.020606436993320237,0.030446702983858424,0.00047359276916020005,0.016956895986954854,-0.0031898793774137926,-0.04052074730220516,-0.015143366811254493,-0.0444458987494919,-0.003950228704171173,0.016043511436924902,-0.04921374278870013,-0.014080897055009946,0.011647982581113214,0.03296268255166136,-0.05166918550737026,-0.01798147046914974,-0.014166894063616396,-0.0011518746522080209,-0.05587293645143386,0.030723379484850197,-0.009246174155339092,0.08493009503615627,-0.027481305530727817,-0.008808695636911659,-0.006268133023705153,-0.05733333705644488,0.010941075603051478,-0.005520234195242911,0.03457285892254637,-0.006267037616375947,-0.02257096058039649,-0.09028511481239591,-0.04493194447321588,-0.027885654500438124
136.9138946533203,1.1884002685546875,-0.02688138191584933,-0.001998764428138555,-0.03934314576886336,-0.0028655889241632343,-0.04620681692512912,0.024873975162423487,0.05994773371735684,-0.0773143093631688,-0.08835146493546547,-0.014995919015556504,-0.0016563096070085317,0.01043468127344566,0.08410630218980097,-0.10311682826179693,-0.4972772303347381,-0.11796800430496708,0.038266994284109616,-0.011189570138363771,-0.026543459034078044,-0.008681876794386218,0.20941130622083673,-0.004572336895993387,-0.030466893034392466,-0.012011863345161094,-0.06639839234957251,0.25318468283223755,0.01614973172753502,0.0964762604891904,0.09514358158861712,-0.008170110179310325,0.0457576407665021,-0.0470468233108164,-0.03801552043723175,-0.10378437247630194,-0.059445672154760126,-0.19135892029702647,-0.1082935982279227,-0.252297564560135,0.01725299572240896,-0.01964886098249246,0.17977549460920592,0.023371939421794358,-0.014477527087128234,0.016157783505050503,-0.15497306445590767,-0.06406879919079397,-0.28757766167116633,-0.16273038179348584,0.07240040036418298,0.23050222779772034,-0.2522048491778559,-0.0964690819887469,0.04531826434631874,0.14946927486115769,0.05798741879822396,-0.0203235468944925,0.015356947171952611,-0.07080032825501471,0.09310445423097886,-0.059479423351549994,0.004098190796459062,0.0007120104276025357,0.013423422292748514,0.0999674139796804,0.03992945246263999,-0.028475587939501563,-0.005014549581698086,0.014307501530030816,0.012259180241150773,0.00029100545390283697,-0.0334255628479007,-0.07223376349357669,0.003332309751613405,0.011601786840640697,0.034125283780823606,-0.004695620440984972,0.0564212714553359,0.09421141723246079,0.03274981513728643,0.06954529946316504,0.007585600445374589,-0.09177374301474107,-0.0025958496284636404,0.020932967735839553,-0.07383352187516422,0.04945414961554176,-0.016294849296179414,-0.012613259814605185,0.013753583124654908,0.018775155382260135,0.014613003524179609,-0.015079152842210652,0.0016780344831968663,0.022949240073789876,0.04240231397268885,-0.03407535640414262,0.04589945749024067,0.005042451453308167,-0.02457097882174333,0.023915619288780915
138.102294921875,1.178009033203125,0.029191345053153628,-0.0642090606712297,-0.03873553707025722,0.005051392666758379,0.19577909918366804,-0.015246153145792033,-0.13323570063739468,-0.01608388289596524,0.10551507726628981,0.14117827487208343,-0.05609096412954655,0.02221936051066771,0.050189767180125036,0.021608931097542958,-0.12950963947367672,-0.013588655841671404,0.06158751342793647,-0.08445600716209355,-0.04049843010960151,-0.12706068291298145,-0.04586932495357025,-0.011689536908094211,-0.4138481168778215,-0.1280020953320778,0.0296746191592962,-0.08302085348484277,0.015802531817634677,0.0438799555981269,0.2889557642274284,-0.0189333671375118,-0.27116272128193536,-0.05496667872656597,0.060022599069196304,-0.06740406416167935,-0.10510032522488172,-0.18989791175282228,-0.12371089763328792,-0.08013714671888224,0.05073009812768518,-0.0721777310762144,-0.04111941766592997,-0.052154699432320734,-0.2535892506801459,-0.33302817957991665,0.26359925129165723,0.026949642179032646,0.04593293037699869,-0.2464422252352338,0.46477245106635734,-0.10106868395162712,-0.13973872085180591,0.15413215610657907,-0.012430157966126844,-0.0023926922694715086,-0.14175204895814408,0.004392340652334195,0.012054726291302678,-0.018442275732247656,0.00018635978688132598,0.005367131687511229,0.02403346789245143,-0.041931759292070346,-0.057797368360602515,0.0016082904696687996,0.05914199499370767,-0.06621180999409997,-0.08710005200165821,0.00547851572746707,-0.013091065747821228,0.021059124348081146,0.009644941361740534,-0.040315390297288596,-0.02903797968834332,0.04822564336719513,0.021105140616183845,-0.015561590812831901,0.004672351065839937,0.057198592445758145,-0.009382446942629252,0.053544545667417835,-0.016359200587822198,0.023695765914300174,-0.0481437812370617,-0.03859155767012083,-0.004988210673683935,0.007822180441564193,-0.11169930639009978,-0.007600432992371313,0.060246578161032224,0.017890134703855285,0.0018216898829902274,-0.04243242955236629,0.001344077493353801,-0.08284665655835553,-0.042241135425346736,0.046575505709692544,0.01478149406599473,-0.06310991521807555,0.01693857027895426,-0.010569869157514027
139.28030395507812,1.1587982177734375,-0.005717640954811618,-0.07466474229675929,-0.018615063634944085,-0.0028647180743879004,-0.018268590099655348,-0.010020956010249245,0.0667725014214986,-0.0017207221352489935,0.04915208697825632,0.0491481787960049,-0.3055252545951449,0.036602035051483905,0.10461046477227588,-0.1133683057791333,0.15884922520916697,0.03898350878853322,-0.19361949968100645,-0.06975560113116579,0.02475816762489603,0.048577099309401225,0.09452761086185815,0.04505727961725295,-0.011385143169859188,-0.05872626206693764,-0.202209370623444,0.05173013602967808,0.02824219671230488,0.004089884115387842,0.12430251340883544,-0.1110211751971362,0.2751774575532847,-0.03809032551984608,0.004566023696118619,0.02896073426931667,-0.046158356934372514,-0.13297765313296017,-0.02042927795144242,0.027734926707709103,-0.171368994737331,-0.2706397236171394,0.2815062322568007,-0.0145876960734726,0.4092222584188965,0.005288400556241371,-0.08830380368413787,0.03215863954433523,0.48190363796572844,-0.4360583635047822,-0.2511729615513185,0.18874190066052504,0.07417480374752083,-0.1115551701697839,0.0014840995154715708,-0.1460831318883444,-0.03350297416916692,-0.06013108132992811,0.05427823918100927,0.021468199512846245,0.0021604153267244077,-0.09489122177033538,0.06173715980330988,0.0679287573653538,-0.027039683634544842,0.04727290145515851,0.058684782182541334,0.03431655977779194,-0.003886868738800181,-0.011998117492200491,0.04378641648950165,-0.029822563017553688,0.03000969134532583,-0.04470117953459389,-0.029180522570732594,-0.0335257188558751,-0.00334240435017627,-0.03592708071539263,-0.020410146654404222,0.02607942772628697,-0.005928459472944792,0.005420249197603798,-0.04177397623232355,-0.041796276716122495,-0.03730757889340059,0.026595162882672854,-0.02345143023326067,0.011222263381302501,-0.12148099563135928,-0.020883633086659456,-0.025453240016721022,0.025831749569738542,0.009325015543492524,0.06660734755458776,0.002202758070509441,-0.03610414613990933,0.01199532141086589,0.044426450866208694,0.0138304586509382,0.0063982554255116,-0.0220332434908059,-0.05436796380889697
145.56149291992188,1.1884002685546875,-0.029628645505252234,0.10274025410026509,-0.020741034563880375,0.08720202407656102,-0.05570227567306227,-0.05992754686149361,-0.040613790997653686,-0.06438640016166296,0.0032694968198944243,-0.06690875621553337,0.03266918345883736,-0.053691197390426874,0.05098250461700653,0.10433412264987424,-0.04503673737407404,-0.07414822723033372,0.016043008055849184,-0.03193854379794611,0.09162879627330334,-0.04146859714657234,-0.10199299996746795,0.0900236453956042,-0.014561985603116848,0.07877368183284933,0.0041613278916160885,0.0971214834579046,0.04515007411938911,-0.13071064980797512,-0.03619023869591956,-0.11187986149967027,0.006980585947666481,0.03790862740410826,-0.12798445486204524,0.021997535222439978,0.1466589962374298,0.11862276624000855,-0.015546409503219269,0.06686237214453744,0.17377995770329804,0.07079656064028968,0.46872782282211006,-0.5002135284831869,-0.5640688162671849,-0.06192259912935299,0.031866430582967724,-0.3009633400882489,-0.09030362857518476,0.24434404081252964,0.3456751205408492,-0.06577208787312734,-0.05998004459106362,0.005132655523564729,-0.0329972195953441,-0.037967913368862946,-0.06727793221794968,-0.016945988598220996,0.023699919944132057,0.010452293629194427,-0.035341622690389186,0.07603260819949931,-0.06842802304495807,-0.03483546689154899,0.05660325371865023,-0.09411608778968622,-0.02068606722296421,-0.06074226180619449,-0.060939667389429734,0.02709241483396342,0.01999938790086481,0.015339799033108068,-0.03228548758135838,0.013322002882533098,0.09884491553952932,0.001618475411406182,-0.004192013207522369,0.013749045861413633,-0.03609254031184489,-0.027868695676524557,0.06357394180453524,-0.024817088547843456,-0.09456300660370702,0.009409837734955203,-0.02108044941208712,0.002930113821447272,-0.036460793440383166,0.010528088679859255,0.02600064607056211,-0.0007093464524581185,-0.07801166201602162,0.01257261755853125,0.011485190637538265,-0.051647577306026586,-0.005899955674419252,-0.10547698480367869,-0.039458553079060155,0.019298104184995155,0.05416459093149831,0.016256196850108238,0.06874392608043634,0.05654426996781525
146.74989318847656,1.238800048828125,0.06239318304938546,-0.04227533320119977,-0.003936725765107568,-0.007020590585304735,-0.0871969739185747,-0.05406916408717852,0.11423998994148901,0.005108096776445137,-0.02080589806217105,-0.06655475864866374,-0.10962017602249009,0.082329983187112,0.027276148367240207,0.15566794758047475,-0.06851333153668898,-0.09996344759100133,0.051486399508005695,0.04186354955198655,-0.06297450280305791,-0.03934909537877226,-0.3667976976885212,-0.03625101083586539,-0.013273924539618644,0.040773933322714756,-0.050848979340353324,0.027226343293899197,0.046168777539912484,0.012112777904993224,-0.12263290331122281,-0.02141267197364635,-0.18874080970410775,0.08551527006325813,0.002143073349781935,0.3149833645319259,-0.285040979954249,-0.21872468086959235,-0.01077896308204995,0.02307141684005815,-0.19123206456895656,-0.12681052744752197,0.08021583078516788,-0.3354059376376349,0.0680577543907715,0.2934573950622812,-0.28281199336681156,0.12626892399350145,0.24480097119457897,0.7518072227882631,0.04937232961494075,0.3741059236611777,0.06322750832127899,-0.08783664182611259,-0.06616292217511015,-0.011028165876659739,0.02394807180502965,-0.06710025908024848,0.049793317373161075,-0.054816705314868,-0.061122774744562965,-0.001703963474073063,-0.001602493416187155,-0.026102787944948566,-0.012219692311258678,0.06769809988681098,-0.0020900820508115486,0.014986456353197085,0.019181177950626613,0.04894746417653817,0.0035497042959698327,-0.03217667892744747,-0.007963860134111671,-0.03451535372684705,-0.016676996238317525,0.006125302162886105,0.03601213380150045,0.028638012024270444,-0.04377042889544772,0.010775999086047948,0.05353332277454284,-0.06794643534660472,-0.0019338952083623562,-0.027792306546403297,0.0063854546047256095,-0.004935953390901545,0.008138743440689891,0.002031781791540917,0.0016165158532994032,0.09368825591822838,0.002218098078112282,-0.005258054695299125,-0.048957832727793096,-0.005570431203036462,-0.003973011264406284,-0.006391819843451274,0.0026641308617416097,-0.00234579579543437,-0.07049581060466009,-0.0036765627312662576,-0.02265508265491882,-0.04172792830292644
147.9886932373047,1.197906494140625,-0.03840318056922386,-0.10782673806056463,-0.07656570768049177,0.09770840269053144,-0.018497886078165614,-0.009757165826666263,0.00356056669411077,0.07264543253375622,-0.03508738499572177,0.056125873914178774,0.0081347801435158,-0.02611729098308506,-0.1588790468130106,-0.15866146492062627,0.05968038437538321,-0.07381225361984596,-0.15760724567845646,-0.05650816743164626,0.11946654644531209,0.044521602851240454,0.031184923900266535,0.12999643440407482,0.23123646959789015,0.009346902133464244,-0.06764318416237668,0.04914904247856738,0.014812376065332825,0.03654698582588795,-0.09386828657268405,0.16876459695078833,0.09042767083484946,0.05133507295670488,-0.13361609442596503,-0.019949202953914957,-0.012282430229487693,-0.2009639900961475,-0.2124921641225268,-0.36777785123576834,0.18145136149219157,0.17335509274894725,0.17118421743669507,-0.03961813523057861,0.13463656509473956,-0.0035443848105179143,0.25819323324029875,-0.062314722845504364,0.5743661669947474,0.05782089817441265,0.0075106975578710655,0.19887086862330514,-0.10475232565550374,0.11122357074386445,0.1545428619883073,0.17043166051231207,-0.04380780014060135,-0.04937891633641377,-0.0010355858403650658,3.441541490531116e-05,5.988887885370164e-06,0.002453196500271144,-0.040453458113647284,0.02235333400983745,-0.035242613499900925,0.038088230184290944,0.04849040944313783,0.0690431346087155,0.0165403027045859,0.030809246496952852,-0.0037380313729120434,0.02707866109095165,0.016413641243223445,0.050545564414932215,-0.012591443147001396,-0.04004210111554227,-0.07528389455150807,0.04545520629648724,-0.04784792385728715,-0.003533162028701754,0.02398011354167503,-0.010142139840257521,-0.08114713022204134,-0.045128519993350956,-0.010088907783012522,0.03567033677886792,0.0015506630758503684,0.024783818468100488,-0.0002717219162048346,0.0017542442594674146,0.05031301070019061,0.0007260121781148573,0.011078629716835112,0.01943998196227248,0.005512351978503591,-0.015092718343885717,-0.10796761523904588,0.06025307544082256,-0.007206134636712106,-0.012023988944144722,0.014147945209666848,0.008976268535389298
149.1865997314453,1.218597412109375,0.013827137498250541,0.025867430742022576,0.0026672802516796027,0.0491415101225733,-0.03178792570172213,-0.030732917199943238,-0.03247667909114265,-0.03670597898455884,0.01716850457161121,-0.019874391257655926,-0.08051429092360453,-0.023014836609989472,-0.01860763593332812,-0.02925244640969395,-0.0887335259837235,-0.023752115756109343,-0.11971941422758724,0.001571742268758663,0.04729995704409375,-0.032026776898761745,0.0526929770296783,-0.06737132167763946,0.0834924085687257,0.07315030636779449,-0.06365033894810987,-0.039082178717583585,-0.12844347627278238,0.14257358492600558,-0.11823111323807946,0.08727322901416967,0.10210597403512332,0.018525164451417414,-0.0037089959451166174,-0.21534213725630616,-0.03499831459371792,0.08044248791056768,0.19383154164260322,0.27754230948595504,0.11186704729246037,-0.3044661631606357,0.3160459598264725,0.2684662847763523,0.15432984946398348,0.03531406546333307,-0.008559969658213316,-0.297130253915626,0.1572195123580771,-0.2701863060314208,-0.0889207423058728,-0.01446673407284929,-0.31764852808679794,0.13416997962919558,-0.002815804191523165,0.04972131591053463,-0.07107340373651544,-0.002458296583969226,0.017661767727362176,-0.04502742091252198,0.02134971395431167,-0.022174751555668254,0.059054056278625006,0.06462916553166076,0.00904455682693386,0.0308482260527847,-0.04817802528878512,-0.016798729637192884,-0.11144891164175985,-0.005816298476168123,0.021088266661712506,-0.005510656843703759,0.05051479969876867,0.007810231593602078,0.010744861930703679,0.01680880793746621,-0.013060598372198787,0.015327443967616148,0.0668375940762172,-0.019759947508134503,-0.05773621929574661,-0.00848267017820456,-0.014158210751929079,-0.014898989537512784,0.05148665461067389,-0.038603542369083726,-0.0003786835157647912,-0.0044925849854429035,-0.0045974072981166915,-0.09538720261559167,-0.07543265700404533,-0.009211117921151268,-0.0025122072415060745,-0.014936682261246545,0.1042632539506019,-0.08516595841197716,-0.07524437046310237,-0.001773243489802979,-0.0027414791925216074,-0.05924313265976719,-0.018180320525186894,0.13503078326802634
150.4051971435547,1.1884002685546875,-0.005913481882456002,-0.0021821995622107408,-0.010397559325501632,0.029103297399945823,0.01372974520870393,-0.06228873185184206,-0.01728366789788184,-0.05940800188188432,-0.026012292075548716,0.013550702516198457,0.04210558347319286,-0.05624765767374673,-0.0745505399679599,-0.07078144335125111,-0.2002416867865884,0.02913700619831648,0.10712286379789814,-0.014631481025752601,-0.04168206980920783,-0.013455860561259282,-0.231923712944993,0.00960706795117734,0.2448716207060397,0.1535977661684861,0.03272771001437762,0.07161404643451859,-0.02016630967456394,-0.1150483985964749,-0.06877443215893363,-0.10378681052976423,0.11497119465477096,0.05866779956867585,-0.12749813550300715,0.010831718652076293,0.020762403811844812,0.010367982288885112,-0.10232019888427842,0.14409976454584555,-0.027123076000484997,0.10616744550530272,-0.24256556126850123,-0.09355204319631666,0.0009138544554383827,-0.10298541551151547,0.6425362640615606,0.05449463558846534,-0.043529648179633285,-0.09200918288441803,-0.061518445605574026,-0.01163041543226917,-0.2158112601134662,0.00256159821556929,-0.09613383093190431,-0.061497041233178104,-0.019793348943158942,-0.027461894286107777,-0.015963597232711277,-0.07010153906855385,-0.0029914924350979114,0.006583068603862401,0.04859435283629954,0.04226560705518143,-0.011292721006519717,0.04640160858667007,0.04119140311082011,-0.03807003452476153,0.06828908626127085,-0.044935248326562455,-0.007392785918944112,0.011912117296048024,-0.07149028552998063,0.03325681653535421,-0.029424348347036444,0.019617664025083976,-0.054907216050322664,-0.02812794946927779,0.005198110428605247,-0.040568378588714614,-0.024456765541581847,0.026504305556513917,-0.06818308266359376,-0.004272089087165366,-0.0050946776929234145,-0.0507017777135928,-0.04923685299842041,0.05656923426686471,-0.05509726444692383,-0.016098117488047046,-0.013832559468612077,0.005903705654085983,0.07801549228421822,0.05765897566709855,0.001987098251053254,0.005866600007165489,0.011727243049551523,0.02465613761976858,0.009020030708915938,0.07942669587401216,-0.023289341982312944,0.030205511684622703
151.59359741210938,1.4281005859375,0.03555770994262929,0.10502310840772937,-0.027910656316978172,0.031972119012143516,0.033214854741832736,0.056245775858197455,0.08041705730758479,-0.004066138906426462,-0.12255236929274618,-0.04788805876799972,-0.11375255334552434,0.05503738921247095,-0.12643626853111217,-0.14868444303075154,0.08564070510120991,-0.08293222288833489,0.02160345966692101,0.030913704476861325,0.014242098315719418,0.03608575604744255,-0.1510530098606863,-0.02830931901759976,0.2654868671983714,-0.009084773925320158,-0.014858017046993816,0.0623995772060949,0.06424526989998539,-0.030017346908895095,0.16795912663997548,-0.07068362277878228,-0.04248758069741064,-0.1401300508608144,-0.08980520704746826,0.007482792821572937,0.1074877752951577,-0.10042706540471018,0.020557534522880255,-0.05388121447761354,-0.2662061882122924,-0.08772560072546245,0.07666044696160457,-0.06811783779418917,-0.24517315172412674,-0.14068023232037036,-0.40834665174735246,-0.036325585616368714,0.020269487591086058,0.39599894046799866,0.11343238132013958,-0.2935102235487768,-0.0635760828599113,-0.2475280070797157,0.08577159069728585,-0.17927594032123306,0.17168859417679996,0.03310082119760666,-0.016092008148916707,0.002317465095303864,-0.0010532335233955057,0.005231669182296389,-0.016094815124835685,-0.02877802106421947,-0.023600349421768856,-0.055295375481493325,0.0622324795078057,-0.002155935342753962,-0.022758540793702778,0.1083769052220131,-0.006866217619472639,0.005744146790475469,0.0853515310920002,-0.0020724608952335582,-0.03022538973572764,0.043803997887625484,-0.07560174909521421,0.01771487256667524,-0.05708479399154345,-0.00014422220380405824,-0.058967679395157915,-0.0038549915111986996,0.09586762942048287,0.08422142174679785,0.005184049037674999,0.10307665266820762,0.09090087382890208,-0.09741001183217711,-0.038596997567676476,0.005022014244448081,0.015164906053923403,0.019151858918470124,0.028017791813250436,-0.06318277207423575,0.10492999296309317,-0.06852622126404,0.060642662063264796,0.0025761905316482006,-0.005765209133802046,0.031437680808516846,0.0006615496731102638,-0.006843484811108837
155.67799377441406,1.2085113525390625,-0.06800872109547823,0.054358700328177675,0.003110595601550799,-0.10628734761426782,-0.022126222627939028,0.06512277173961115,-0.017925956204812053,-0.057004243589869615,-0.041770841161494314,0.026853912999647796,-0.026214661003075356,-0.01576473372799632,0.04502308766029112,0.02779069504001109,0.10451521759632673,-0.015683331628650245,-0.08341947918765447,0.20146415956323618,-0.021613625109417584,0.007859821623236228,-0.10979853489677026,-0.12057325649665526,0.029958602286449445,0.22391787882201125,0.01908284925551848,-0.08115139469946298,0.12563759055375842,-0.02996339293205769,0.04898650910121636,-0.06816241524831201,0.10750783400527092,0.027233550433445997,0.4019440342448043,0.13093000554663786,-0.08854464473009238,0.0036301344138495164,-0.05724423347300507,-0.07757110587117125,0.31328844498062525,-0.07276685105832932,-0.4113687518425319,0.027020556745453582,-0.12301186398242153,0.4080400610991178,0.7412294113147844,0.4660895922061007,0.011730684926979361,-0.4931298996421132,-0.3273768842105229,0.0748457774188731,0.9145511470139075,0.10216562459779198,0.005532695211646246,-0.09978965404846141,-0.10996338698737639,-0.05407239746079806,-0.08311742098603134,-0.01052347729333815,-0.11459911009024733,-0.016104496865433467,-0.06474374842819641,-0.09641568399416915,0.021907985099421167,-0.0016517760535415848,-0.060467440061917094,0.03411525951257894,-0.033034870970018324,0.04134137715174429,-0.06981412310752352,-0.011845573203225546,0.11521396201817807,0.05882307681002378,0.03073274311736886,0.007074427369214093,-0.017348016660266023,0.018774164165061634,0.09929404430330543,-0.006297893603265957,0.0127025372580413,0.008724698670902932,0.12466634308101414,-0.0171542045969817,-0.03183179698553197,0.018720255055299957,0.008948043071685608,-0.024369271220606354,0.06882531775965975,-0.006342447948238483,-0.0004610243801326458,0.007929302032278249,-0.016582894419601025,-0.012705406918051183,0.08636888167662661,0.08149924048502857,-0.044939646363736395,0.017773024286485955,-0.016901681361893763,0.009292452013029412,-0.01963578088378698,0.028789417107888113
156.88650512695312,1.1779022216796875,-0.10885223737859734,0.07896269478866429,0.12448814455916789,-0.020429803952761796,-0.046119605304609956,0.08401462301976621,-0.020104724462963342,-0.023445974937349134,-0.04211256606024571,-0.08838357569927896,0.11528640951471925,0.03337678212135917,-0.17753967699805323,-0.07639943900331364,0.03882594841795179,-0.037895539059298725,-0.059110293414045084,0.038255644418311696,0.0007625068719599084,-0.061869458512774,-0.07239201399611847,-0.2061170482266098,0.11188081542732603,0.0854705121093295,0.055516610413233664,0.1204647404957782,-0.05992737698602167,0.07789550324349262,0.029034227205083266,-0.010841099938818932,-0.03870121611014234,0.14082457503494128,0.013366781710288102,-0.03014821661071962,-0.16212022417444708,0.06768426177276124,0.05557166132524435,0.40144180181906425,0.028981671546543655,0.054009854537395124,-0.5088133910342307,-0.3374769751000277,-0.07900993061862284,0.17560523102408176,0.2831906023386778,-0.1853147159150032,-0.09662134831277375,-0.4254287942799693,-0.12463258453902108,0.29680992240147497,0.08585008881074846,0.0632227664648821,-0.1347656556248265,-0.050234390933431176,0.0900372616304215,0.08329763316233939,0.046961044911117786,0.06981872965827547,-0.08185867086866103,0.08114427839932574,-0.058762143780681925,-0.06315213553531734,-0.032657535088120054,0.006058656940887534,-0.021823919526670732,0.01836417248857857,-0.01120880678995876,-0.03306419490718034,-0.06413155394837497,0.01872525002775123,0.061387216453114124,-0.02155255969486742,-0.008785795903350747,0.008929763541229698,0.04975738779347211,-0.05617878816023676,0.019316639372819022,-0.01845939996749815,0.020877737600001337,0.007375279359938228,-0.011121290202191617,-0.08367069570603582,0.008116213860348576,0.01919080594996054,0.07314752938560395,0.014210550587970393,-0.015865379988473708,0.013509822626481064,-0.04031075475821992,-0.0040816390099503545,-0.004726444556944426,-0.05587979210804392,-0.01633330422631198,-0.007526623767080008,0.024921796081397482,0.010449059973915653,-0.010183996291067796,-0.04429068113240573,0.029826510831690314,-0.005975508643321611
158.0644073486328,1.178497314453125,0.00022870907614087904,-0.04700723380053631,0.11357145178079317,-0.005423627232770775,0.017757616011462023,0.02936346065118596,-0.13284201076684415,-0.006125698636626793,-0.029080673649672713,0.09149703756838765,0.010204824804835432,-0.03269967532256624,-0.1938122783748163,-0.10192378775694604,0.04810893211851078,-0.05761008643096313,-0.04021624762838978,-0.005565980945913191,0.0166465672293316,-0.0919198699977395,-0.08189705152224025,0.05939953987319918,0.06019204335338019,0.14676227461046829,0.12261188695018246,-0.024647400060651733,0.06109555029410414,0.021366736340540364,-0.001776708726654484,-0.06678712461399156,-0.12819665177052936,0.16317081179448928,-0.020570966969152487,0.003992461974126913,0.008193781804194123,0.02217892743718474,0.12785470873066557,0.2935949000558266,-0.12575817202776682,0.35860695543159926,0.23053255781705628,-0.25135253968886295,0.0766170633120464,0.19984978802687425,-0.08210398973008212,0.1124151456070093,0.014924859147265095,-0.15821465264410325,-0.07491366702473973,-0.11826797005674633,-0.3561961427903775,-0.37761930275424493,0.14469342003369742,0.029110123731883503,0.0020556091630539036,0.016606474500909397,-0.08854568852673786,0.09566395104849844,0.08584428191207806,0.00506426103051754,-0.0065649682200369895,-0.0454661670535875,-0.08393267754342648,0.07139637156480988,-0.02675628730436472,-0.10085909493199893,-0.061566793009551896,0.029701274129174556,0.050544474393190465,-0.03727205307630162,-0.001649388906855521,0.013435140768444912,0.007997090261557371,0.07258762932438216,-0.02151971283995154,0.004991640912266657,-0.02042314453225902,-0.0513767191739913,-0.12697174757866725,-0.06525849714252077,-0.002883175553372134,-0.05368472090015708,-0.007391928171490306,-0.001982560169333886,-0.01363205690978592,0.03782337213548745,0.10264532062640379,0.005988136090660953,-0.058409772265525295,-0.037828166998684395,-0.014213719659282243,0.0012158703586350364,0.003953585756148709,-0.0009442921146878146,-0.009003810345788408,0.03075991969294159,0.05685708871451052,0.020835448310305756,-0.04475927943833674,0.028132581487975095
159.24290466308594,1.198394775390625,0.03239760952508608,0.05679458093375697,-0.010551163655420153,-0.013319180453691846,0.00810641715915236,-0.017759603558198837,-0.009024584533375537,0.024488656353993693,0.05024115267096278,-0.024984990811745014,0.04458660611804073,0.032280922545739554,-0.03950999659160323,0.1593249678882422,-0.2719047904358603,-0.18883445724728024,0.0406443488457911,0.004503576577457801,0.018995334487091058,0.029511146228185077,0.12261620363000546,-0.08081087891802084,-0.18608233062338025,0.08793948269657884,-0.005976992541264059,0.04237281613518144,0.023063963666833567,0.05147051353499628,0.08582040598705225,0.03973804835919378,0.33049924946696796,0.05389390519553498,-0.0934652327532333,-0.08501102335340371,-0.2541996715400443,0.08311963396236675,-0.008268466571342042,-0.14579529321252238,-0.09651339886683954,-0.28276542843097136,-0.40344489445392595,0.01432799958554106,-0.19412880160726229,0.19858185659379207,0.04425285843078838,-0.19065868252546497,0.33432575526269676,-0.1912927544765996,-0.42434571170214364,0.13829678346312338,0.12727518902235208,-0.12720243952214258,-0.022054676505190583,0.0006274266193727308,-0.033047388599204794,0.032557181315899054,0.09398104722557317,0.0027721657169317232,0.08488054490763469,-0.04318793978653081,0.038944820110693563,-0.026843108310430297,-0.032865713139953096,-0.025966736267962198,-0.014073173240464264,0.03171875946100267,-0.03456256789086812,-0.08253942246047158,-0.05463668974530443,0.05583798701585281,0.007993438531362798,0.05043921576812045,-0.014798238685240744,-0.006708802342146797,-0.00044943894728962145,0.04514537145819978,0.04651674991141798,-0.007440756951493595,0.027789258028816252,-0.03638614130215442,0.05371992282065399,-0.008173826513197516,-0.02094833835332471,0.07026355495880723,-0.01247197489252623,-0.0360934969225246,-0.031141318009721586,-0.027736558223063368,0.022960860182433054,0.002800925048702083,0.10319799189616677,0.022761248672239665,-0.047597028162441865,-0.008807717358620154,-0.017019094359861257,0.034129582075448715,-0.021261513892983308,0.06280737133528862,-0.07192614952421453,-0.0926280991268557
160.44129943847656,1.2283935546875,-0.09126311464173419,0.006280674347488684,0.07513395214161529,-0.0040321159918100535,0.039407202236280595,-0.06993999921893597,0.06669190264419961,-0.12118358007562194,-0.08750531851579214,0.08345848185454155,0.02474018259342743,-0.04731818490460142,-0.027066902431890964,-0.08977418974443789,-0.03868079967190667,0.06543040588255504,0.06572280238804776,0.011775141187671213,0.02079324773841467,0.02725967933228217,-0.03985658533936124,0.011010076716721068,0.29124555527817775,0.2758694822682118,0.04715198893140607,0.023793447476449868,-0.041484823488259714,-0.052385872318093524,0.28008087144156313,0.03176285751112315,0.08853219770048672,0.12263462587793421,-0.017560369062305112,0.07831493489706345,0.054210367977579464,0.2962510688596066,0.12467509455744792,-0.2007049474747145,0.0914147014412242,0.07971629167173401,-0.3354241439337918,0.2948591579992936,0.1824275427625865,-0.12567959958036315,0.22785541358598518,-0.56415966843607,0.09102339845895474,0.44322365581879125,-0.06833442183026986,0.1382449247810436,0.3013479506753144,-0.17777174619274916,-0.3093862838749959,-0.10667024682296794,-0.06321651022611911,0.08599796817332989,-0.0076018529879580375,-0.06930358603694153,-0.05018109004418551,-0.026993461777768707,0.05847763728088942,0.024917266480491335,-0.014802663563879607,0.10418910673226617,-0.03455253195772356,-0.09057799221495427,0.004331231245962849,0.019828241847597412,0.06110439069451003,0.015913131099305627,0.024927557030059087,0.01626309451429596,0.015139871409513023,-0.08298436014821192,0.03907723098751871,-0.03762394848698007,0.008546160177993298,-0.0652165119288341,0.02093149882471676,-0.03771195449357857,0.006550419791382968,-0.11616783243628764,-0.11653061011717242,0.05076416316930324,0.007572283087577768,0.04639527880485623,0.11000818121340436,0.002938027501767638,-0.01594995966145036,-0.053852744912539156,0.027727400927095764,0.02581235015547546,0.0500712526534192,-0.09272614609372053,-0.016537827091863085,0.030091199403606383,0.057123178036978084,-0.021423044089301416,0.00643852992037894,0.01806860879686712
166.67300415039062,1.20770263671875,0.04858520352600269,0.00886956693676942,-0.03376422559589349,-0.04586589916595123,0.06981699618198982,0.02721668752293674,-0.04827678974628273,0.0128253563528027,0.028079200260624364,-0.1782668943434631,0.03514859304613838,0.05891317552437736,-0.15311494666849132,-0.28595116126944803,0.20089145565034172,0.18862831779195244,0.20111088597262713,0.041491028930079776,0.035848304370272734,-0.15116602979670143,-0.32573163914917697,-0.31984478751868595,0.010319325133470048,-0.060019994399897594,-0.03634653115118796,0.03328074617532767,-0.02930843727795718,0.3356541003190145,-0.012373454854070529,-0.003891895661079575,-0.07802643406422578,-0.14870945555393186,-0.043342118957379466,-0.13983439427229333,-0.12396554520890167,-0.2990772223659105,-0.15560111506527863,0.1608515476651762,0.178077518457186,-0.22603710522802897,-0.04777696447246034,-0.07434626931923619,0.24218220493289863,0.30573606055396796,-0.13485184568207007,-0.21923786089641265,0.018520800596625198,0.03424242197103302,-0.10024028137244957,0.17478307607833088,0.27034210393049607,0.05066538615409476,-0.22551610586002876,0.040083097165422826,-0.0631419458091237,-0.002156143246950992,0.005972648248274842,-0.04169222427046643,0.052803229089574064,0.007241474136449447,-0.03498492699966166,-0.05543516161257295,-0.008897506716908482,0.009406363903506415,0.07446150775890921,-0.04645077924610898,-0.0012902795324042965,-0.018641588575846857,-0.029160682645224895,0.01800068317951428,0.02845908387718176,0.008658981632667845,-0.042430263194723164,0.08250109382119342,-0.0031222735456669093,-0.002112211532860046,0.042091299256419995,0.05117778478621185,0.09699142057361422,0.010612281066104214,0.008499953073583318,-0.010492887903463253,-0.06799192527622154,-0.09932021025292062,-0.002753208165700647,-0.0464013479791561,-0.05420313239499837,0.09061636829409296,0.022928894952014323,-0.011389649915351852,0.0010969190619345294,-0.0344356738629052,-0.06556787954550693,-0.054359469588788005,-0.08762616250122074,0.025889030943390554,0.06089528806165899,-0.019877848276145846,-0.06432221067055091,-0.059962466093440886
167.88070678710938,1.1584930419921875,-0.05401839255600765,0.043806017940966335,0.02478025121803342,-0.0495863386481714,0.0493162662059019,0.01233036956673829,-0.11062296962206986,0.022422381324403586,0.011584081665501546,0.046371116337933,-0.10298632405684707,-0.1576272382206155,-0.016525627937088335,0.0547416897928716,-0.04500017227896712,0.14041662040010647,0.06987142116147747,0.06378882955270627,-0.06736568263913256,0.045765104896354894,-0.07340590562591841,-0.06603801529562636,0.010994780778996552,0.09388491825273525,0.29711935437345777,0.09330049319546681,0.0762215246070915,-0.01512494815052939,-0.00967166984195382,-0.032954174447342006,-0.09572925622448547,-0.04681717166744248,0.012047524645768692,-0.0006943206755322682,0.010674002280688403,0.12456113079292411,0.10375940756541015,-0.02635793614432535,-0.12340731482600292,0.10495154539975032,0.24498669145955948,0.10954751850862472,-0.30590670034702594,0.0029707336666487225,0.12484890608269308,0.14586650738071094,-0.14888781131429896,-0.2980075473452196,-0.04094075572492783,0.1538893184020398,-0.8193822427786333,-0.3484973471816679,0.15865559772825824,-0.0025954614751007854,0.13477696563517913,0.02379688317991721,0.021105753698127006,0.02753242308791053,0.06896423055608925,-0.062072127746050525,-0.04267494760691629,0.032459505709239785,-0.05886325907420941,0.109754891619012,-0.10067262492353303,-0.05417981443600774,0.030346179140778987,-0.013346278254070924,0.009631412556134072,-0.04879510624334842,0.10851528712164582,-0.05643049252865448,0.031174154218758524,0.05471565310015148,-0.023583130202713017,-0.001076781085059506,-0.02818160526371332,-0.0453805758721273,-0.005446202497128065,0.04757273473744346,0.01586637603167345,-0.016078362502277548,-0.009535743037468649,0.028873734178353958,0.002368961089215765,-0.0374690291293935,-0.04366649328894334,-0.05709417982127254,0.030964574809764625,0.01723590619715599,0.02216142217515414,0.023724675989757697,0.0009724834644682923,0.040826110512052184,0.05637850902628322,0.01618077767378601,0.05453169608411855,0.00798030622957588,0.015753095339120726,-0.03778561910876227
169.03919982910156,1.1389007568359375,-0.03559532804038143,0.002654267111581987,0.009925924727934271,-0.05119922458582982,-0.07254324855665338,0.12712395278315786,-0.033326402914565394,0.025031653241347117,0.028468022395238456,0.03403570560720499,-0.1217828133622206,0.09130677076351199,-0.0728400870564303,0.07105731184919598,0.1101494637258004,0.000881863795767387,-0.09687243736363187,-0.03346322076429252,-0.021534185406436316,-0.08203950412326062,-0.008692770648561221,-0.11802230775894512,0.08756039336159452,-0.11075886168909338,-0.042755936051818294,0.07151615508049416,0.1743997985914369,-0.021568004343556855,0.009386083623072587,-0.042103977957840356,0.006868575505227837,0.0015729527515324407,0.16330880717585877,-0.03241843288745073,-0.08049262738737449,-0.18214030871572937,0.0861016828359995,0.19640371421175673,-0.16414546218786627,-0.025785993594091557,0.3275085775527552,-0.1611277017761507,-0.32235962796945006,-0.6152857354717644,0.04599058770507534,0.3671774573138403,-0.21492067251571068,-0.2138782944463506,0.22868416338946917,-0.06969299620216717,0.04572259913155119,0.16060175134060753,0.12039739631832097,-0.0874429800747735,-0.06336091460885906,-0.0010949493758689573,-0.012338396341616143,-0.01648862708287648,0.03244789041561755,-0.04687687943239789,0.05833538281269299,0.03734552197783598,0.04970118400195303,0.0028473206983543036,0.017158242442739724,0.000603547234414062,0.008338924480994322,-0.05594376210511774,-0.021025636070600293,-0.093809757280162,0.0023975238700275686,-0.02949261867719992,-0.07300868072724505,0.01965628434168161,-0.04865311175683447,0.04364829986650391,0.028238690573548178,-0.08719672834913689,-0.007715677760168292,0.06256361827514564,-0.08650753405082261,0.05849648859816341,0.016960398412681103,0.008978324047082634,-0.008196926667660746,-0.062250465380308366,0.018418609732649922,0.029622194203989462,0.02766220102240511,0.05233790069826285,0.006676392133915628,-0.024317029182695456,0.00893696856578972,0.0017441859599939915,0.004503629316950115,-0.045962369467160445,0.006260878686268247,-0.010199689621266717,0.03398757353388548,0.040248000384987076
170.1781005859375,1.178497314453125,-0.09632067422770255,-0.020128638208020105,-0.009476236667197092,-0.03991909224871166,0.010926339572238264,0.04438687103861219,-0.03417245860815077,-0.013702892129137747,-0.03447518082771109,-0.017373174071078704,0.027100434798400318,0.17462486425225626,-0.19664924503100603,-0.010312546852413335,0.03809399822788164,0.048929466791868395,-0.04347127214190259,-0.14021943502567702,-0.10712786185443214,-0.030795484706809623,-0.013770478859752439,-0.11234295367246352,0.358010970753764,0.34767667033374294,0.0999304087084005,0.06080740838202963,-0.03871860477385365,0.031191767961706446,-0.1447270607945699,-0.11648613630166603,0.10368578161633948,0.03401845585366531,0.3211905698735791,0.08246678846638257,-0.23406847656785792,0.1996510195986798,-0.13126347496585133,-0.07179724205306401,0.1314650792337264,0.11198448050379724,0.3190868087969035,0.005417708743485095,-0.11561301941718924,-0.24739787092184645,-0.40514738998045424,0.00016443235748636814,-0.3298157337701705,-0.36115325056768194,-0.3075052693827754,-0.26594774527092574,-0.24538723127178974,0.05651874155183284,0.003916241011834853,0.040208033247127614,-0.02017806854347877,-0.01321129581083304,-0.006513502806872874,-0.010611417965715866,-0.03257908816837775,-0.03424995873150082,0.04671217654199633,-0.005762827318475772,0.023051776446957595,0.00882714499445699,0.05014429350600937,-0.029537597264761142,-0.0023217027694943226,-0.008487568529094007,0.04788326722899596,-0.00424123596179874,-0.03306779810211985,-0.046653923609886336,0.007367177483723367,-0.05487120667232656,-0.010792067548215253,-0.023983614551819965,0.013901957008978564,0.032065011008310294,-0.03898857553769859,0.06647364336153133,0.06709747924756462,-0.037066197199984656,0.008482495985837479,0.013435305087170588,0.04455387631184077,0.08809617300525396,-0.00047680157251458696,-0.0015886814982166947,-0.017667880028482075,0.0671799406523638,0.06286926964523089,0.03949984246772323,-0.01748760182591177,-0.030395770242115722,-0.031587182774391695,0.05235293665875731,-0.021480743059580976,-0.021497550267185875,0.06776553903206271,-0.04683569869452027
171.35659790039062,1.1782989501953125,0.09946985588927325,-0.03261819741950686,-0.020718913997363825,0.02778322676404458,0.06257001610600968,0.0662702420005172,-0.1139534370348836,0.02891210252910394,-0.1124040368449534,0.08482744498586135,-0.04070517574331528,-0.021681078604316867,-0.06173711787233886,-0.1352980149032686,0.025988146732165134,0.2085799938249435,0.15002315829802482,-0.026060298349365223,0.14443902911873382,-0.07029010010418654,-0.05231579037446499,0.04554164846993619,0.17443279071164147,0.17562183509977897,0.01590683979713671,0.0807321868371999,0.13923352821308244,0.0034286228421574957,0.18024427678859592,-0.1657675106766717,-0.06183155767441102,0.0853980438728196,-0.012851671241670436,0.12145271348651075,0.03810027394714169,0.02646193908408831,0.06797112652985332,-0.010050546076887958,0.034273162506752906,0.026302565120261554,0.11293035337688125,-0.1707221912385246,-0.05437757853178948,0.31192668969513665,0.20123090095234333,0.40085816127406826,0.21531100401584682,-0.026054826113837838,-0.06688554917868862,0.05526627756889573,-0.027441250277781975,0.09690234067102091,0.1614481172522883,0.03505037319802559,0.09177063486610858,-0.05035553723518935,-0.010483537506790822,0.007988130523374107,0.004097547278305899,-0.034073110784442646,0.026685739379332545,-0.030097588300976887,0.04911873958407713,-0.0032197779455263474,0.09048696068819022,-0.013579663293965625,0.009699668963070125,0.008024234810354537,-0.034164787241176775,0.0033649256183486756,0.0014563505336121503,-0.08382313099765516,0.10923236994694535,0.07742388901788612,0.04137955614431072,-0.015047401941555589,-0.014907652431046702,0.019163608443585986,0.077928905382124,-0.017739532394984093,0.03360877200817536,-0.042921793896892844,0.0006669770415820441,0.07470179378095286,0.014994330733610983,-0.0011706281444914333,-0.03365910246438806,0.010699999700469476,-0.0031631369943942167,-0.0041401045706945415,0.07495460837440895,0.007802598091002909,-0.03373223718901246,-0.06115921079045522,0.02947367189129917,0.06962198560335724,0.003612720157224735,-0.03513555902059174,-0.04141112372149828,0.05562038448878376
172.53489685058594,1.427703857421875,-0.08108814741481249,-0.03936732703705079,-0.009162278296175719,-0.011879007021130584,0.025750527308332827,0.11844667900574801,0.05905717673838442,0.07398808227385206,-0.08917885660598561,0.0037485865686913145,0.18483549582995168,-0.022048300421608047,-0.01546932299356775,-0.033351000908489734,0.1821099884112758,0.14610949397848472,-0.14382188899370177,0.012097114206846955,0.10383326990591157,0.032229590201540315,-0.1275102599256601,0.26751225043175997,0.16718153775313044,0.008981188285188096,-0.031530920023353254,0.05742257284000057,0.2129745554904346,-0.07384738441760245,-0.04683561499408456,0.015883576589052942,0.08135823031844348,-0.010402537006250557,-0.2218650202335398,-0.23330380050085234,-0.3171591991512812,0.09157663644795361,-0.12053893190211559,-0.08031772188361995,0.05005250050848784,0.12713674445560466,-0.20557985199110862,0.10457423818960661,-0.4679134294010739,-0.04647627406959634,-0.16379754207171415,0.25629211388441037,0.2584449526669212,0.27079726880205224,-0.027073059690513802,-0.10883305509032343,0.10280946728451905,0.03233999992375711,0.020141966028715444,-0.12897105571555406,0.032392494034929005,0.018896281415292367,0.030603970391733397,0.004424874459979642,0.0018551353376323612,-0.003397860218955333,0.005337115857063339,-0.07089960453907097,-0.030246827242972403,-0.05752645597573765,0.0103460743016027,0.05438530382770834,-0.043805472214233025,0.046908406417008976,0.05451502203716607,0.0064930661677605455,-0.003341539525846734,-0.003609328183397431,0.005988926411048194,-0.020497940030998127,0.014320010962033046,0.007826370565545845,-0.009276436391459194,-0.10587939120034684,-0.004248709394909546,-0.020338858952347216,-0.11439547627814237,-0.03392589109754145,0.029006858544235514,-0.044462785508200785,-0.003629136544084867,0.028194079599968235,-0.01369933595635621,-0.0572409270304668,0.10904238617473477,0.05711415050059968,0.001730465651943101,-0.021710590447533915,-0.04955628231324402,-0.004378715276258293,-0.11304102996641391,0.1652295424849087,-0.0030188752614417826,-0.000358407965818123,0.04314864883310428,0.04546643702929285
176.4394989013672,1.17840576171875,-0.008722948120296215,0.008683600279034859,-0.05743717608930207,-0.04908805941340819,-0.05669831719868261,-0.12052016462627443,-0.019587207385911964,0.07297493200972854,0.06693614296950846,-0.005412905709434055,-0.1798558641469775,0.009938162926328497,-0.03451054371407544,0.06571328609842934,0.04010096894427524,0.004118134884893862,-0.06303110025540226,0.14696399571807717,-0.048878890759063216,0.35784303152021596,0.03832304814170406,0.04298457782624392,0.07016572092843436,-0.06691392711516017,0.07115354096485339,0.010750033759047912,-0.00653354611076051,-0.13434861589558858,0.04990892411766184,-0.03186509034626275,0.021565659620242993,-0.12009807779539969,-0.12119736638214365,-0.0022915475354828596,0.10582919028138217,0.03520012009830281,-0.1521885029198978,-0.2315875478355505,0.09632559689487713,-0.16273075073773238,-0.19193039986972973,-0.08392283148429612,-0.22812915967909214,-0.09373048426561184,0.23861535374372705,0.2684528411389835,-0.02980112588592275,0.48058871823137567,0.4079513580023393,-0.09773285982241758,-0.031475055036497133,-0.10755743947604564,0.09702488234392416,0.023928426394762666,-0.0841885020181608,0.027504257636854983,0.003345561645051986,0.09898755597608559,0.010810789367560362,-0.015118776206675913,0.04575890817311566,0.005080815510355155,0.07755907745731497,0.004275370277459958,0.004725612045870881,-0.019997264582480218,-0.03495232380469041,-0.020155901252739777,-0.07262861851132457,0.006052756900986934,-0.008152624873304065,-0.03657745675737283,-0.02658332078803965,-0.043496028016332455,0.008761923920250894,0.01777068885523636,-0.02311894560773019,-0.08181370872704714,-0.02008445077835437,0.06495365885075234,0.020062723264188724,-0.05315230616084842,-0.014608918172066554,-0.09516596421635891,0.006950274240028434,0.005622692846200423,-0.01448601444064092,-0.0620069496319389,-0.05641470211439485,-0.040049675259833974,0.07801152937267668,-0.039584094391269295,0.013157909451663286,0.007987315744212457,0.08830503243718932,-0.0017636454007070943,0.05715528845481783,0.06941377774014731,-0.03158930727198409,0.010350114050610808
177.61790466308594,1.1783905029296875,-0.1204527955877023,0.09869480109352234,0.013486530614935047,-0.018282393610045376,-0.09651944028378662,0.09360919731457207,-0.0025889076201041847,-0.12889358427410588,0.06143064753739551,0.13973172122579836,-0.02876270314363084,0.0002427604397850251,-0.03300377496086035,0.06426310228304932,-0.07373491257720335,-0.08017001423594133,-0.10916525807757844,-0.017273423717660996,-0.08707752901539141,0.01239811982743596,0.027410937490154157,-0.02685955203829321,0.10195476871836891,0.00047661551384843397,-0.2662767642564215,0.04443746928543825,0.11745029016488315,0.06555180229986854,0.09253787974887855,-0.11070517615775949,-0.01998870917788226,-0.13545508234362721,0.05879998645184178,0.03780995621273445,0.01330642461528828,0.038475255082830305,0.0591748385599102,0.10411786041225289,0.18135759264718276,-0.05736856141677743,-0.12606250971531188,-0.14175017156963465,0.010859933710392677,0.37760484026399416,0.10779700900372446,-0.34732573942016975,-0.18232641158539156,0.2584506610603963,0.2852384107107553,-0.1394776818180102,-0.3985563168932254,0.08826381791069104,0.00504097072450892,0.02988342947300783,-0.007195455594977112,0.10885572028319004,0.008651412543298416,-0.005179847247593177,-0.05613859948957433,-0.07510877326602823,0.04037871016592544,0.04783045199163567,0.013035787798706427,0.03940822646434428,-0.055362006613538274,0.00719025350119844,0.07140652775840445,-0.020538043776711864,-0.04643712046606621,-0.02649479812001005,0.000732740017262076,0.0027569321735280085,-0.045943769803764925,-0.11482215123669136,-0.009348746917106764,-0.055000328857943315,-0.04962375894208123,0.029217815872205722,-0.005932153575923246,0.05150025280011594,-0.0004903904781800861,0.02993306337325988,-0.008979142023622669,0.019851796189133908,0.06945493371040151,-0.0022699149844735787,0.0008349921077493035,0.026514734446163257,-0.009747934343915878,-0.00762144842585753,-0.06840788759179292,-0.017275521252071407,0.12980962414887715,0.08016056531928892,0.044002649346134196,0.00917268047045523,0.042062135665522055,0.043463910227687405,-0.00975907152864064,-0.047254228948016674
178.79629516601562,1.1583099365234375,-0.04114291097573642,-0.004429327511560269,-0.021605280382196945,-0.0022440486214133945,-0.01614271690048176,-0.10787440852889194,0.1685622456703767,0.08007708583411574,-0.04829836288598041,0.052402935790644846,-0.04047269681323916,0.04723641143691906,-0.1024846210906069,0.030644050373075247,0.007156158033495631,0.040356034233207355,-0.07335452819870207,0.04359959450467563,-0.07254833042841656,-0.05474559588597464,0.055791222140444165,0.2149082897818501,0.17174439322473284,-0.02777986245405559,0.10428444886053892,0.0771784714260502,-0.17071992560257418,0.03186348333068937,0.012503739573375713,0.057923148723345946,0.14193015890529884,0.11844832658560178,-0.04514611557300825,-0.05902496303069116,-0.06109584209992529,-0.010048277264146664,-0.015378458682980684,0.10317266560782633,-0.022643386346612084,0.17407616461577252,-0.3534130528026799,0.3673476227522753,0.08642163551792337,-0.40046935134196465,-0.0012900190625927434,0.07305254326809439,-0.1916376588351419,0.13289754588324992,0.012318124226898784,-0.005311807700758884,0.0826732562028458,0.14019502122106214,0.02549880792290056,-0.29573795309948947,0.25295443031440024,0.7146189594624699,-0.18505382164476528,-0.04811735051595218,0.04270310515007327,-0.05629770172468583,-0.07031483950746414,-0.002683614679919802,-0.02405973033003945,0.07683669319691594,0.01377187148094267,0.0630878659709727,-0.008585574976615246,0.0071591103643681335,0.0020744758055146976,0.01774426919009872,-0.03826958929653278,-0.05421133495474409,-0.054172055845735104,-0.026308911022688668,-0.05640865502349855,-0.01097698007777896,0.0025550577334970126,-0.07140745575409924,-0.004558839229731383,-0.0069117230267712266,0.11690146140176275,0.10318983467850217,0.025558622914333202,-0.010545217216610142,-0.02070192638091844,-0.002144829873881367,0.01767278610283369,-0.050647702811541795,-0.025975890275055088,0.09654528092128366,-0.019268172541371628,0.037935364826157815,-0.012028386121261277,0.0746396384155563,0.009431339024202689,0.0065614740663389026,-0.038888723287559684,0.021494700976061654,-0.03028668768653875,-0.11851151881732833
179.95460510253906,1.138397216796875,0.02555370595026754,0.13999712544925455,-0.07172113571705307,0.05131604613133549,0.10102279747162268,-0.060638194212009985,-0.12734867971822678,0.029257649443969067,-0.037891933742090336,0.02415777381757668,0.011135627325363918,0.04794384266647649,0.015663037713501478,-0.06997154529535994,0.041764550989784203,-0.06685706649228038,-0.0003721528953133436,0.016196797825777372,-0.06650446215837275,0.048936493959225544,-0.008036117758348192,0.05383098934620198,-0.04644575526550389,-0.024212666667047515,0.0844626348347869,0.11620004887413256,0.04347819152040626,-0.1781315779452451,0.06837492024745265,-0.08769472127714795,-0.11580850420236223,-0.04811986791052518,0.05819232254921597,-0.2244085522528716,-0.07711768360970495,-0.16717342272973765,-0.09028228973245259,-0.15829224438078254,0.003497503181459048,-0.14785001955905316,-0.028695285111935614,0.10640957878944177,-0.4352916832120891,-0.5769865139886772,-0.08582728261191387,-0.1257738698835134,0.05357564043655506,0.36625239423609696,-0.3103170653068211,-0.1029697003445001,-0.0003703135795305526,-0.3508567535462998,0.014847317644189149,0.004963364086705037,-0.01767415124811144,0.009663809872750886,0.013583513023577534,0.05190062403657839,0.042592455739436194,0.09221648482743797,0.007944809478904538,-0.04245897688490427,0.07469869698207428,0.010292979451988904,-0.04263122808816118,0.0773228266824118,-0.058925837003151,0.08626147819960614,0.0640336423243032,0.016006459602360003,0.03136001295971255,0.022456967038680664,-0.0018315245844764537,0.016668756669284045,-0.05648304694365732,-0.0934953010696837,0.04153467275958699,0.05300062908968191,0.0054500153590342874,0.00149823531714334,0.08122561485197874,0.04175772601534218,0.01388851087562211,-0.001641273871985488,0.005555698980414435,-0.028817954239919133,-0.052868802845681274,-0.052513426446997975,-0.01149269254549129,0.013271849370450343,0.05304072433570988,-0.015641300047192,-0.03379390411388222,-0.04217474635560107,0.05811380909285739,0.05381123758887726,-0.012136125303402448,0.02859434337380268,0.007087241061773888,0.12882658209772088
181.09300231933594,1.16839599609375,-0.01500680288492387,-0.06049953905916941,-0.031721362316600756,-0.003399013227554558,-0.03811511567829137,-0.03131400488107381,-0.023505639775214318,0.029849605125342807,0.020026499974015607,-0.0033044263494325958,0.026174559180267773,0.12812309992109377,0.21667054136699287,0.006771682248066963,-0.027684655392774433,0.021478903746238575,0.23132191073235475,0.24506295050153865,-0.03238405932648682,-0.1698522636611444,-0.05093981398855977,0.07339034485201955,-0.21252541604266642,-0.12132314055822654,0.1387626145150516,0.006486227979217524,-0.027954521699376053,-0.041184301912103725,-0.06551469105742531,-0.05122778673697314,0.08245117000966035,-0.016162861506182374,-0.005355973775215787,0.1309984289837289,0.297471792558654,-0.06546624800178445,-0.054181431127795256,-0.0420948957112508,-0.056804757150204305,0.02855314162429368,0.15911798775319197,-0.17725090595361398,-0.027538375217288677,0.19834941275250387,0.005953349059577652,-0.04849830591782635,0.24955234022819966,0.7188793164633744,-0.11419941681113041,0.08543227499308081,0.14911350155385794,-0.17301428765654928,-0.18372227412359504,0.018212988654761772,-0.027504182558753427,-7.454280136846782e-05,0.048737474621725,0.05137464999699887,0.07264628693797232,0.051712815632224365,-0.03605755745232165,0.05580434221679269,-0.008963108650167653,0.04887299323309455,0.04514379153393667,-0.028953616201381063,-0.11538868171055064,-0.0334579833880401,-0.015617033111702868,0.045679657426872806,0.010103762497595169,0.025290299319838665,-0.032842420902050216,-0.10268068351908087,-0.032263391695768674,0.002384154938190497,-0.04337827654048622,-0.03890711878885578,-0.002521945045269136,-0.05778324826296556,-0.015987371355194915,-0.017826815221085715,0.019523549735898333,0.03391011895945464,0.03286188989641194,0.032784635380834426,0.11891048090585718,0.0038565065222937516,0.0840977647395073,0.04814815026322663,0.05797466472599059,0.00993158408052827,0.04037590866000968,-0.0380920329223348,-0.07841012768400166,0.02363646356671818,-0.12698988309701645,-0.06126841311309067,0.0030105167724068078,0.052373626747322766
182.2613983154297,1.0980987548828125,-0.08213461547105923,0.04586856967939835,0.09958142136617525,0.07829657644676875,-0.0052097630121387545,-0.0630124057617137,-0.024435948776767143,0.07530488526465201,-0.10213981359164313,0.06642180154058107,-0.11645392781332872,-0.11604497390314635,0.03353220996863973,0.03943364980330709,0.027638462637090792,0.06049824796715757,-0.04804064357218093,0.04644123927545087,-0.014370825278100692,-0.25164078000877427,-0.09444247188936404,0.10008517535218257,-0.097161069553515,0.058580694092871366,-0.15228154173069716,-0.25590502101641793,0.20758694675178518,0.14494105293864543,0.23220358217043538,-0.06316719925940009,-0.020020497030448836,-0.015566387039831538,0.04721397236314441,-0.11546071451269042,-0.11101239739508052,-0.012504442227262977,-0.02553766530531342,-0.11850379801509525,0.09369521758349923,-0.08159169694997113,-0.19600894333432267,-0.1208415603163825,-0.11722876736205769,-0.317647489269893,0.3247955339785822,0.11688104304141157,-0.3928675812287823,0.024500542873903935,0.1466461090578789,-0.14214061623458718,-0.015535877016895247,-0.16756644611442262,0.3566006733084086,0.0883993202315984,-0.1530119381108537,0.012975457892213339,0.07789694325543836,-0.05243630675343658,-0.016427199209394477,0.0025261839771847467,0.03360994553650507,0.04247395123192026,0.02385245886600544,-0.030517230656707618,-0.07509953217876268,0.016968820698231645,0.017009343526476702,0.012972075522301105,0.012129480554141257,-0.021445540264009844,-0.02427631734691645,-0.013825053723205747,-0.01824725212758157,-0.005495205494481736,0.005684433505905959,-0.0209694543891653,0.00110241229499391,-0.014823017934248436,-0.043228297841761576,0.002318359915859412,0.06178590422624342,-0.031010124157355115,-0.008635657110078711,-0.03617736317976352,-0.009879815418941,0.08993679030985427,-0.052530651902106075,-0.0914496860987529,0.05757768144423501,-0.046673529255284424,-0.05813413395082598,-0.043511925110480174,0.06658136240648423,-0.03773741061335921,0.035127618849041066,-0.015213087679831636,0.08905605875513178,-0.015138660441377093,-0.001712965870727258,0.05419362947986138
186.94479370117188,1.1587066650390625,0.08460958166690556,0.030281437583769874,0.03207530008489355,0.11528438409853649,0.03888603215172,0.12892958851195113,-0.02420595301689126,-0.05222860914951591,-0.0659469265460935,0.0729600619347609,0.006221541740273298,0.06622241037031575,0.044172511745489175,0.2739337164219587,-0.058278595113583874,-0.10308958582944677,-0.05834947551823943,0.07357981760216173,-0.11126693716884514,-0.09590297011908211,0.2382279730723732,-0.2518012798352952,-0.33566044597001415,0.23800910334307948,0.02640420934552988,0.0265523085871735,0.03287560644143211,-0.026650185668064333,-0.18351883719141882,0.18180791283239148,-0.09008591154275307,-0.3095601907708059,-0.05219807979957809,0.04981719363527923,0.06108348420834135,0.028251069879781075,0.15347743496035998,0.012108107440792907,-0.027170314180847338,0.11298051625744895,0.01167073858565551,0.1323444833101986,0.1122166481929376,0.0190939302807824,-0.10933394211360939,0.057771406538341855,-0.13051665743469784,-0.37043040052192056,-0.45482987837186795,-0.1332881056451064,0.015264094723248769,-0.070463899683433,0.006496695500393591,0.39655642769514937,-0.047923083180632986,-0.5620977283853826,-0.003831922479859043,0.017524281846548192,0.008132529273562054,0.002582175423461763,-0.043575519992513106,-0.01478173588031597,0.01931847793683196,0.0849938116912251,0.011608167033139508,-0.039247849188184004,-0.08497517893027556,0.01753214477672095,-0.026312160067022097,0.011395296321216518,0.04170276117519982,0.002209149886499402,0.07113096676886804,0.015668937932919142,-0.010075848305503997,0.006195125461312343,0.09679326686526689,0.0005502237360418549,0.039592444070688536,-0.04597636744636262,-0.05575883464884021,0.02125370510879437,0.0650216628018956,-0.032517537889518694,-0.011685299079499285,-0.02611812133154721,0.019569049639698848,-0.022932427206233418,0.0878705895247336,0.016292048991909096,-0.03902903314595574,-0.010853636707956853,-0.011856921199149802,-0.006101914564979914,-0.02211682647494818,0.05389203391124961,0.005172263513506777,0.006951186469978193,0.018550357627665184,-0.04640162613211966
188.10350036621094,1.15789794921875,-0.044460353046653384,0.04887045247695919,-0.03521390021297223,-0.052326734383720465,0.01949122469708779,-0.038362897249176894,-0.017481509841985536,-0.004633226771356819,0.02637773255784703,0.06131869641662151,0.08513288057797293,-0.1762093490316523,0.006445443799223018,-0.04880143589177499,0.000946021856829668,0.3435679005009643,0.06527176822923628,-0.07931015877422827,0.05548399217307453,-0.013057167041590604,-0.05868282753372051,-0.03072063917381783,0.08441260875965109,0.03410424197930186,-0.03523034811812134,0.11770584156699931,0.12092016264676782,0.0973683541755277,0.00713401795523492,0.03915050714531607,-0.08787540989863,0.09718574294729287,0.06971136772431374,-0.15140684631971632,0.1398226888734206,0.19990493822518682,0.1843752434910909,-0.039822655722675265,0.07214056894779707,0.14767544217352588,0.2481698995267653,-0.013214292869976066,0.2364811547253097,0.18571001810025187,-0.045232770802699176,0.5717715514029694,0.08740340810105744,-0.20796553536641008,0.26564611171954794,0.33754025071418897,0.2898990861331069,0.11460371969623269,-0.383468548941613,-0.2181304477826911,0.00737958125347396,0.057364520624115733,0.0625295599906203,-0.01603458719797237,-0.0033149623527615234,0.001228442633139995,0.07063483812154772,-0.0430156026606586,0.014549664520547732,0.009667046338102548,-0.07323265412271787,0.009276317747067718,0.027152062545785692,-0.022197407587281687,0.037834494107823725,0.04635569821318375,0.0332299895073398,0.021034464886495036,0.002423963503639787,-0.09262007406855269,-0.05398741200801011,-0.002713857804582019,0.020168017490149015,-0.04088740221233188,0.07843068647923582,-0.0657353091542294,0.025910519629261893,-0.018448076883067245,-0.03815078706504048,0.07950383559867823,0.039327514494094204,0.06845061421159422,0.014191952202390728,0.02527290321869305,-0.008239022398861307,0.023337040755025386,-0.062353091045463306,0.01580351599838468,-0.06025290523326471,0.008074555771954685,-0.0005475696526839577,-0.029192607376412837,-0.06678808254672135,0.08818119406575614,0.01778847784479624,-0.03205432265548452
189.2613983154297,1.16839599609375,-0.03007920918805182,-0.013121952148549786,-0.06278630631058063,0.1142090465792165,-0.022366769889473406,0.007916684614145936,-0.08703569729853178,-0.012860322293140339,-0.07375983222980718,-0.2831887517042564,0.19099759738981215,0.05076081470597032,-0.03170567431496738,0.12211202319730634,0.3809406671174447,0.22596300967580435,-0.0363432192889213,-0.15328087017761743,-0.045309023112950306,0.06498970653374385,-0.011005722768409503,0.011139066158280489,0.1672418760010505,-0.13530186005971406,0.028145984563117524,0.12117777693950635,0.07519303039146746,0.10609029051044964,0.005258165954512312,-0.04605773005228114,-0.2204296546112388,-0.3131553903208026,-0.1528847536203902,0.047876032687802744,0.07616364714195459,-0.006088927089244207,0.12186708405420796,-0.128317527258762,0.18898143983170523,-0.06806955073790634,-0.12341488201541762,0.03272112724092384,-0.2405365829423512,-0.4191237898204817,-0.1341838168583289,0.06036978672705878,-0.14579617973611483,0.14816389207744007,-0.0718618890357046,0.05014254411682067,0.08913307813470119,-0.010429040456382177,0.020600276693825144,-0.0384801658887743,-0.1005138182503298,-0.21351271444031483,0.0041910907148046215,-0.05553581176022427,0.0031621822026320573,0.013657721142846793,-0.03689904126921119,-0.05591355279221736,0.0014544371345317892,-0.03814674406607669,-0.027633117250165744,0.04441242297646116,-0.0023363737925820305,-0.03817831749809095,0.01975211314703513,-0.01758625759189534,-0.03766514162262767,0.01960111587187411,0.005341761412476018,-0.06853647468016873,-0.010474119666048838,-0.05457051273368422,0.0008392986445085309,0.004686383336674586,-0.03222186343854204,0.06714695514220674,0.00864158987641686,0.0018456511842358657,-0.007574180214158249,-0.08214907643748885,-0.015046972982235361,0.08778078966563731,-0.020310660585930947,-0.04622664859401361,0.01348398069831474,-0.013841667165699026,-0.057115273381625704,0.006585910984837945,0.10357173579018128,0.02663789855687887,-0.0930636595325974,-0.03620885178258462,-0.006545111050911311,-0.04291851746672668,0.02058167356964931,-0.04016927148766168
190.42979431152344,1.1587982177734375,0.10493729459276682,-0.000383716085947311,-0.03291670790410708,0.07442480165540605,-0.030244893888679444,-0.023557220730444202,-0.006521484234317494,0.03317502846344739,0.01786418994950076,0.06826397012717644,-0.04744758233958982,-0.10302691166164202,0.09425803542397092,0.03693449252687722,-0.13414456916012105,-0.033440398460231086,0.014345824428656659,-0.16701640267760556,-0.24936559158899785,0.06941938757531059,0.09147812991552912,0.11848401885098028,0.00111694946886898,0.0675195004903315,-0.02920712202741205,0.19071772805571438,0.0326275273579533,0.06780994745091823,-0.011841532623461739,0.03291506450646296,0.04183447031116416,0.06637257738926321,-0.06853602862373002,-0.09879322034395938,-0.16440413094747552,0.036459542762451315,-0.041221418687012276,0.025516255982396714,-0.1321900674203135,0.2891752347823155,0.9674840161180716,0.4942513964143165,0.17171589398947645,0.16689614164556638,-0.035169716455860006,0.12692171143387185,0.07850351097401335,0.4114332757941779,-0.005623134819242544,-0.30800293842027754,0.577700096854791,0.07595519865832431,-0.10163240275332741,0.04812808625017415,-0.022265795405019117,-0.012645315875051863,0.006965637233230227,-3.969020702364079e-05,-0.014348539588088073,-0.02797904772117392,0.01155393854288544,0.017503497722370382,0.020487682866524443,0.0008577900938385227,0.02398392351650411,0.012170499919121787,0.010943084784440053,0.0145617696184795,0.006660074372112408,0.07625697059532628,0.0063587412702753735,-0.02667909672023481,0.0027590870853614335,-0.026896557727927893,0.003855566393967129,0.005489569946911044,-0.01500310654116171,0.013417292126964566,0.0445203858435317,-0.00419295118010048,-0.0022586212972789095,-0.0440385449915885,-0.05803863795913081,-0.028905174422877454,-0.009830265642174249,-0.005940237754358528,-0.017933451555791576,-0.009655120394230218,-0.012787369653728481,0.07371685181791296,-0.09348613581840166,-0.02590754626585005,0.02009412002720921,-0.014639024169324274,-0.062295858549791396,0.013418467126033385,-0.07569262373537455,0.014021508591236007,-0.001467920345433389,0.024030523739392417
191.58859252929688,1.1684112548828125,0.029581191467818357,-0.008016261048809814,0.015646401501510174,-0.010134164733204646,-0.030279676397243258,-0.05685690730447753,0.12053123480927251,-0.009727880041350372,0.015332312466003747,0.085042100211684,-0.09816777168192925,-0.1946680841541324,0.17285805914212835,-0.11565679267394931,-0.3137659096934789,0.0556375836806743,0.023046943040370714,-0.051203752111932004,0.03285218796433567,0.10720934569826539,-0.02565132566810026,0.009501994250804663,0.06148000400149297,0.01148313866555028,0.14118666159367202,-0.1051080370310943,-0.07070616938000757,0.018267940542861516,-0.1016115498983695,-0.15365721846183922,0.23182447938565895,-0.05779985941099814,-0.08535245247613059,0.029527646233391876,0.04729340950627167,-0.09043038117258019,-0.07280715614249357,0.018730334251889587,-0.14650328182408803,0.09180763257046831,-0.03586740561277864,-0.0445643542636079,0.3021373715371103,0.27976808227764316,-0.030052795617935908,0.3097731863188437,0.09997825654773893,0.13072323651453843,0.15833726746040933,0.11806017647052618,0.2756157715376607,-0.13493467486134655,0.5415237111064277,0.0812712844966494,-0.005281013471296673,-0.06933902671279882,0.10482026014178489,-0.03602156607259772,-0.01425812743864679,0.03604249653054545,0.02616367993448663,-0.036278572571524975,-0.05947778455065921,-0.08684405237673191,0.05243808085051141,0.0004129058488236692,-0.0196020318609661,-0.07410687515744377,-0.018591710045365015,0.015479733022079598,-0.0012102300896050366,-0.04422534933013421,0.015997706322014547,-0.0016705045532421365,-0.009637992492231764,0.0025327115763206427,-0.016401720227689435,0.012197014641520895,0.021778146056979003,-0.08127292378642292,-0.0420715089582028,0.05131277801469862,-0.081442704190609,0.12766526816451357,0.0017806018442518144,0.02740691920613398,0.017461635905630227,0.06782243922350964,0.0028393237562868755,0.08128055478678735,0.0566780117511483,-0.076049954749242,0.022250046460013065,0.02327509810058637,0.003889248915996329,0.006031460988024734,-0.04237776142885895,0.0015686782717291283,-0.02742453701213862,0.02165387068249231
192.7570037841797,2.037200927734375,-0.1183326762606019,-0.07167740112269759,-0.035712526909488326,-0.0731157011138093,-0.04615564783068411,0.06919757303908895,-0.22647711427702596,-0.0679395806130755,0.07840445634302022,0.018274274858204032,0.1121388728655959,0.026162221950181794,0.10536958707328586,0.3126705765830072,0.21502416955101833,0.08679200990259034,-0.04831617959483772,-0.1646689924860722,-0.11409815616868116,-0.0035653910179975264,-0.15313881202363297,-0.14995322997885277,-0.023156468789814696,0.11723716178186999,-0.15575790928580122,-0.02172533537585054,0.16553828033596737,-0.02533888120928216,-0.05142735166015731,0.019105155297277555,0.034708767900367865,0.02252502644152511,0.05857184465346828,-0.08324094250351771,-0.17657437359261574,-0.031788311207882045,-0.060289427713906094,0.18596116416235262,0.242086565967005,0.1143116984314405,0.2802173005148285,0.26991548528641013,-0.3345820536548259,-0.2586148548128602,0.539412065573511,-0.07475488760030145,-0.24145142501767947,-0.015686800858641242,-0.07814446547286885,0.24512623329995495,0.2581726829005973,-0.05839050690036422,0.05235990852713815,0.03502408369112116,0.026672581884412034,-0.04408175962264226,0.0257311473137294,-0.005255496220202473,0.004932677126434008,-0.03583977610455123,0.0444241320836162,-0.007521651376459987,-0.03306736884858434,-0.032513822328247434,-0.05958520228694118,0.025528122119050846,0.07110222854048603,0.0039045939036032214,-0.027665358297196706,-0.010364121684319539,-0.021501928287547184,-0.01664770753513456,-0.0012050851520568101,0.01268631547698012,0.0014222813477924147,-0.027629314410538255,0.02019508392315727,-0.01187447790003711,-0.009063770195332674,0.05455315387800116,-0.02694698803856795,-0.005408758161891398,0.008237239884645146,0.0002868555036950604,-0.005590440124668296,0.03119404737254207,0.037858656267690353,-0.03502733617258436,-0.02318723745533762,-0.10157367019114001,0.038224874537162605,0.025504320719061793,-0.17568790515013266,0.013267988906523146,-0.039049070700083406,-0.03904352830396364,-0.05121888934778538,0.014359128909185736,-0.06714170756159206,-0.03160808558260294
197.32089233398438,1.20831298828125,-0.03168518186438092,-0.06312592790629577,-0.005073015749847764,0.006327938637736458,0.032973939717833876,0.04323009804353256,-0.00951721030990811,0.05455136499754232,-0.13194897679601364,-0.0393542334639798,0.001128492852532438,0.035047592753638064,-0.01990457331469289,-0.03280762381039398,-0.005416228739769213,0.12296873859558055,-0.086426240018712,-0.10242852590307011,0.07269035200481017,0.017042645111655402,-0.17091680561668726,-0.192815760543578,-0.10068622076329285,0.3266780639525571,-0.11988744421591718,-0.1935278593434535,0.017216960664436485,0.018578551018696203,0.08546669999514998,0.003952901369614747,0.009956851894671773,0.020626463334070137,-0.008549776742168955,-0.09012138052492877,0.099406983153115,-0.00918903006703083,-0.17123616972300684,-0.012924122261316994,-0.009152476850045083,0.1723789495789142,0.031767017110384765,-0.22938606385791271,0.4856607422698132,-0.0007965264905413424,0.03746281800511797,-0.4120624931400072,-0.06412187564992029,0.05079991752028936,-0.6323557411988521,-0.36369399541910463,-0.19742391443853502,0.7535662594303085,-0.34417680660192734,-0.31154072262772464,0.006405569933096847,0.021681849266350188,0.024520435592482348,-0.003419917812267073,-0.017833637177840013,0.0233553363245129,0.045789992796778034,0.05483683189395601,-0.06318300605965428,-0.034599767188657655,0.04073696742046463,0.04804138162475116,-0.045247178205954926,0.006423941979623815,0.06064368459266671,0.011817758510816673,0.013122846834332354,0.002252048095027395,0.04358787722979542,-0.003541493118440313,-0.05379422109087869,-0.07036052658017355,0.0026535605734149077,-0.02194053649831859,0.011322186528138281,0.054780136782812926,0.019046141086962655,-0.07922946228242991,0.000673656117173623,0.013343125037623707,-0.028524916223868713,0.0253482874901654,0.0119479939734442,-0.0037210020329486813,0.0080314838828905,-0.00033742692922192693,-0.002125558414929902,-0.06321923800864526,0.010182099394232383,-0.0950748062471949,0.004703271913538639,0.008748600641146182,0.028489383043854365,-0.026253350197382022,-0.003203251194449722,0.00921742506292806
198.52920532226562,1.178192138671875,0.010992973204233859,-0.012551321766268983,0.027954896779448193,-0.08478225096110358,0.05911642503607814,-0.18397128705143073,-0.07012213239046436,-0.06272630970122763,0.07398267852227627,-0.11375323705261041,-0.02798814516456319,-0.07763204100902144,-0.009555296170386777,-0.1807330076377608,-0.0147351615107678,-0.04567840509510538,0.042806628538486644,0.19735473277380994,-0.04273966252159225,-0.1540051051763718,0.015805916609823112,0.08561784540869531,-0.028151600661670717,-0.035478970165580395,0.05166691558109446,-0.09400117253399538,-0.028852653252880438,0.07647330519546842,0.013836789959831631,0.062256193197757305,-0.032950233650163405,0.06704448387312523,0.09336648930133162,0.057029420875406814,-0.007007219951514599,-0.03208051614888262,-0.014055742344479372,0.05911280012222302,-0.18972191682615042,-0.0032446976769242887,-0.16961462675615824,-0.16035772697957648,0.009459608579102576,0.15713518213059163,0.4754501921229394,-0.5342376156875377,0.257184228638034,0.3550321217526339,-0.030555524175901023,0.04838292978997989,0.1838129674317224,0.04383818979123115,0.47519882805126623,-0.09808772527686405,-0.08013944880400653,0.020025045276970153,-0.004119434159668055,-0.0067369393899473495,0.005232403993151014,-0.02512870834714899,-0.02387964762212245,0.009617703734926535,0.02266580944247948,-0.008093166113596001,-0.07300260364963529,0.020694907508931014,-0.02325672803680895,0.09078999904094327,-0.027149110811332092,-0.08761933245910489,-0.019719620300253368,0.051085405793631654,0.02630072022572718,-0.06001950154843862,0.06446973016603028,0.05595663438578766,0.0261353725191868,-0.044766539328293886,0.03544951884995145,-0.0034445916086697287,0.027109833490495394,0.058489407999149604,-0.02447815750372049,0.09423274729031346,-0.06364080462178802,-0.007535051651787137,-0.08273401966381824,-0.03301689859791107,-0.009426698972403936,0.06752788549403937,-0.007589968579258443,-0.00868773550107092,0.0038549582977597165,0.0034605322030731027,-0.03091707600869391,0.0031035837085068947,-0.023469315633018073,0.09957949250995549,0.031377234786785536,-0.02627877955498979
199.7073974609375,1.1383056640625,-0.024343080505150865,0.07098715800551977,-0.05075563021567901,0.02553032907368948,-0.06323642503145167,0.04401064847057298,-0.14266549708907184,-0.04666404005235707,-0.08659897726465549,0.1342988801310621,0.06927100165070506,0.0024774245124669168,0.011699052835795108,-0.05467086505740683,-0.05493256410998709,-0.049750996642691066,-0.11542232736859803,0.01846873588315682,0.09876800954816911,-0.02440307666244351,-0.057014985266199816,-0.25460891096187743,-0.09479873016959088,0.016312393029715634,-0.03349991486028217,-0.07827232194020091,0.018325816587845066,-0.12964144343537762,-0.2334250951445696,0.152762166027255,0.19615413642409454,-0.05788138038222356,-0.06184786082908418,-0.09203569424212184,0.09067010930246966,-0.09091242268363739,0.0776273591261421,0.24215817361793837,0.11759187293528259,0.3273994624050137,0.22982615336959114,-0.16273331300097715,0.1044214666078567,0.41212561532458075,-0.011596962501302804,-0.552414719980979,-0.3317759933306038,0.2504170619571124,0.3039887882479013,-0.05880537058446612,0.03925949998558899,0.1984831068267764,-0.21081969224163305,0.036485395210925184,0.03846632753409869,0.021311124742730406,0.026624681233622584,-0.017299661447606925,0.051028681056520905,-0.0057545824623782965,-0.013765783162362322,-0.009669682535718954,-0.02203105464277958,-0.028593402936434018,-0.07530409651613741,0.03034115983594127,0.005569207993336413,0.04552301683311656,-0.09621940727064353,-0.040323779257223726,0.01312952322075364,0.12208509783060789,0.02137168872956642,-0.014179345207985194,0.025975888909210054,-0.045196446344559174,-0.07868045990648458,0.02889233895007356,0.036613441007333755,0.004441892798675861,-0.054772186913433295,0.058756911168517355,-0.029764385360774612,0.05239667739769358,-0.0028825887270258754,0.031052050958752086,0.10551139782851535,-0.004260685564078695,-0.03211144868625464,-0.05358556190519088,-0.012262213570827577,0.014224075634778965,0.016341474358098778,0.07171264742316337,0.023639825410149064,-0.11792640693560268,-0.03287639487849808,-0.001979064815363316,-0.04330603483343329,0.01963175255987648
200.845703125,1.158599853515625,0.02601346796938813,0.04278141410763893,-0.02296042771623538,-0.10212666333738803,-0.12023814230180858,-0.009445767591113874,0.051920207907974324,0.14499672160691132,-0.08949922921886172,-0.009133440257496697,0.04524970804941618,-0.01404384641656084,-0.16543468835769207,-0.0428641364291318,0.09091281012195247,-0.09341588866534338,-0.09297372794514877,0.0317402016877343,0.08406643014439642,-0.1743812961448221,0.023214846622370257,0.013187127757641734,-0.10143366430757178,0.028378376822173576,0.022291294701953075,0.07116335930418932,-0.002753104014130119,0.11908069641872687,-0.0007651152130438426,-0.09811886867967926,-0.15427389700344304,-0.09158406537980933,0.012706764752092975,0.08252474226821585,0.11895179151152817,0.1821861427231717,-0.17339648774362026,-0.0029076577761345673,-0.012821222291088508,-0.0913908176757009,0.2216170680852131,0.1650648452817153,-0.13297640504486413,-0.3677645378033216,-0.18991823472636615,-0.025152326925661155,-0.9565699353105929,-0.11196807722556143,0.17123001008795807,0.029043733106452488,-0.007709450550083834,-0.2763045854162838,0.03506897314603283,0.031086081287735302,0.05844516257063681,0.015608911094954306,0.028691980306817546,0.010177168425423828,0.0545993752610643,-0.0785290014888211,-0.002514159963628689,-0.08895759658424808,0.004817543816436638,0.10280677511735838,0.10491072339473259,0.004920472568500621,0.060152588993713056,-0.03717680234745154,-0.027470762558369773,0.05029226345060506,0.009579342819051588,-0.041337150368572974,-0.006744215018428382,-0.00769212922331268,0.05430598591871016,-0.07341516980557913,-0.0010131465557937256,0.0014598886840468533,-0.033460450556576746,-0.06974251250528347,0.009873146794611145,-0.004050452799711604,0.06460705363017602,-0.01189608008175224,-0.03980289912829275,0.0008466965830846192,0.082504952047671,0.07278597468269664,0.011800526260585227,0.0761945884225889,-0.0905147947541717,0.06321057513162202,-0.030414881660632873,0.037884611643169426,-0.01005709323005676,0.02568312723173003,0.01997951118836174,0.04662061476630188,0.022641292440101494,0.021682865171065477
202.00430297851562,1.1880950927734375,0.02986332438864925,0.00890172262612425,0.0076192665914393675,0.004742537333481841,0.011079368238192376,0.25665644492190404,0.07451797987407592,-0.08917081716682307,-0.023079540134618257,-0.07721728543588527,-0.04527019306765433,0.15976752689832446,-0.060787323915922564,-0.12829878058864425,-0.08416585322727829,-0.04314695709818529,-0.052005405387480164,-0.0502565812224771,0.04858339059813051,-0.007409810946486015,-0.011370577225460594,-0.22395146331449103,-0.3546068717197537,0.04136929447718765,0.04735571509395509,-0.012347227917397256,-0.20548295679873038,-0.08488723935766374,0.4344196940877134,0.1205612453396287,-0.04223015591116093,-0.09533091820565397,-0.10839083817242948,-0.08416227591928391,-0.08329670468782094,0.0012685634922599115,0.10995729979243335,0.04953046101158487,0.21357946978786707,-0.03515838573606338,-0.32382375628979426,-0.014589503650775763,0.17200081673159104,-0.03281724174201975,0.07388077629318339,0.11913550305482977,-0.40672482679784266,-0.32623547182604923,-0.09970619982608617,-0.22813688306445,0.16247233152780305,-0.2387728122285452,-0.09023750892202285,0.03893085848543188,-0.044895860692016315,-0.03274827704383934,-0.09878685931187205,-0.008866297154222772,0.10994954184535305,0.02216395067466388,-0.05236015455109244,-0.052981796871297566,-0.0025522727905480575,0.006202898349252354,0.07436140823185772,0.09686072912751309,0.08101470022683982,0.015851782728107368,-0.007290509124178549,0.06219732362747281,0.007826875652108746,-0.028408897593882224,-0.003509814524480997,-0.013750453747169204,0.0030502194556892904,0.01606406448343984,0.016209405359960218,0.041489377832504164,0.11291650559286391,0.04039898707548069,-0.002348644774739822,0.0752830139450559,-0.06916343307599448,-0.015420214164402785,-0.014198090747714491,0.04849425618735161,-0.012121526637199925,-0.05801687915091758,0.07899657025505791,0.051119722361246595,-0.0649114093779865,0.011866951897107169,-0.07193808646279816,0.01321521300838005,-0.06687179207324029,-0.01386532671382694,0.09533704631669145,0.016450559010952985,0.030444334730675603,-0.003606097861575199
207.33680725097656,1.1680908203125,0.11415543623785719,-0.0016538128046673572,0.012595218835169994,-0.007980869905555693,-0.006363078164515812,-0.08745036775932855,0.04504970844580895,0.055949472194970824,0.2265846064289374,-0.026387014000974568,-0.17730895139227526,-0.042052330832938536,-0.15914633412043017,-0.06141334604061463,0.3913078324996744,-0.005284282206909482,0.1338361688474644,-0.02472118057004635,-0.059865823072525234,0.0804158653193892,-0.13605703668052369,0.09370802079011817,0.025550823297923044,0.004542802852433053,-0.06632833883994059,-0.06329552902057421,0.05910019351921485,-0.07244646607152642,0.016539486184982327,0.06287092084501886,-0.04579226001890397,0.01933972148244565,-0.01443878607087485,-0.0714172553414627,0.14759300379741605,-0.07579877404805983,0.08983995892165943,0.21466422640885235,-0.19616739039761788,-0.31560687809269766,-0.5846902444655877,-0.0023176480959944054,0.01740210939684455,-0.11600879648981426,0.10262943861100798,-0.01684977807395428,0.1654319979270403,0.0980795356658657,0.10083046054718561,-0.1867670666023972,-0.24915159232838188,0.03353395589748476,0.036465207273005985,0.0082840062318981,0.0012317340168570164,-0.010025583754097001,0.04622605926070983,0.010632016100531338,-0.0038279097472284154,0.03660784576713089,0.06663011690061184,-0.06674684522785332,-0.016472987925310822,0.08684937181510945,0.019356135326407748,-0.04527180244304929,-0.026010129021682975,-0.02516465970522436,-0.014632309662091435,0.05116494197897263,0.03116436044718162,-0.01560613708634108,0.06479178978232437,-0.00534860443110889,-0.010234339021162794,-0.008588617139243209,-0.0027488401814977793,-0.04508381639517625,0.020461758926237642,0.0051310101932453694,0.10722050563548957,-0.08391390515795542,-0.06041639617378079,0.005335832250951765,-0.01350040393767291,-0.09501888210276847,-0.0030650593791767193,-0.032684247342221334,0.005466703843723668,-0.002117483548667116,-0.011336858363232801,-0.033291792954442324,0.1256991959548016,-0.043484286039065206,0.07682860665552758,0.002864834735325491,-0.0018666605903307318,0.004230256705932466,-0.010585720012732693,7.014092516851624e-05
208.50489807128906,1.178497314453125,0.008111445583319696,0.009526224271746642,0.030574454189832023,0.0905285366402379,0.04279915285090804,-0.07722292714828102,-0.0040188646817866085,0.06041489476296488,0.057822260111727065,-0.13507735187722422,0.11897247515989066,0.049346594881383404,-0.17731459999909094,0.08501331470053923,-0.14379087158810933,-0.39656749493550963,0.13184612619479846,0.10629553897704733,-0.060126666248673896,0.08772881691267757,-0.10950429387031492,-0.13571081977911428,0.1862169717701103,0.045610933917067796,0.020571167828081743,0.17586725672348014,0.03060999923222214,-0.01333252737161899,-0.02098541397622454,0.006698339438631341,0.10312877462253475,-0.11248783251181134,-0.10422985229722549,0.05903950232200658,0.039102414122276816,0.0054027942158404695,-0.061241304091533555,0.10951413240150494,0.3338187993840753,-0.15741422271726152,-0.06392445116072203,-0.07067724274068207,-0.23931101649151157,0.12692141186260714,-0.21697688822905478,-0.7123610607004436,0.05314165696425507,-0.059904710700640795,-0.14695280071415198,0.10285081362671156,-0.5830843009797005,0.0021891011141022586,0.0029601687864655017,-0.0038383220459217503,0.07507496101806412,0.08284795694785946,0.0008965678356345767,0.10677037298985406,-0.006282493344902829,-0.06182287093248891,-0.04004429656383317,0.054734626437988654,-0.03288549846318374,-0.0575227999549495,0.05071962543640622,0.01861715385514679,0.009680427405910534,-0.002442057477932061,-0.015073851207234073,-0.056465646841567914,-0.07457741630349995,-0.07982722673341743,-0.02687157209260758,-0.07315573277396531,-0.0282944103247926,-0.07447890841854912,-0.004077926276306166,-0.05426655943498014,-0.08124574331907132,-0.043037686451862824,-0.005909480610424568,-0.024086233581087205,0.05036202386275555,-0.0015349692912791722,0.009119426800409162,-0.029462509852161877,-0.004697586739181025,-0.006844936306858568,0.007680547026265971,0.05175521683130534,0.027122782099750622,-0.020930138131065663,-0.009762767145387763,0.041845030658361856,0.07493204625567265,-0.045625443355472,-0.006064486464629785,0.04490057132966052,-0.02831803445396998,0.01112216139621206
209.6833953857422,1.14910888671875,0.01287902711837765,-0.007317615432480216,-0.04754865036524388,0.1182054302333589,0.08585211353492954,-0.012130512681748157,0.0737203438774347,-0.09531436908549967,-0.02475637942462874,0.050871530975288154,-0.049833914258897924,0.011366160212123708,-0.01761341831727514,-0.05787675714151065,-0.06012041514733508,-0.0033750862603137005,0.010156081673293448,-0.04494593715143664,-0.03653980048870571,-0.12935557133734105,-0.09041363151195315,0.029172495193053614,-0.16661958064925322,-0.3162114842342301,-0.011544435587575336,0.03676651348144167,0.08799067626861054,0.03870073469742114,0.053936566576617384,-0.09038529217530429,-0.052444332699035735,-0.030304503896936928,-0.03325088566011558,-0.05909892708280828,-0.03644834532022832,0.13757306284028978,-0.11307164534290873,-0.5817057246805114,-0.13745713451428665,0.024712619605207035,0.3412592263846434,-0.2912237032143822,0.02836771052034924,0.3004997481910311,0.42365276310210587,-0.10782270745827828,-0.06657300940110228,-0.13436959314275237,-0.052794098988208436,-0.10319046663615172,-0.17930767071785708,0.016958698191082672,-0.0014583308318861083,0.005319096249513513,0.07083396198900403,-0.06934929887074072,-0.051787197893204566,-0.002278525334884245,0.1109649788171354,0.0006403674474663858,-0.032404619784488956,0.017273289546539658,-0.0008588539494836485,0.012119657194271568,-0.053564346624128095,-0.04849460908729519,-0.00655671435449985,0.019422133391004872,0.04835180615161405,0.038821350047948,0.03580484193466242,0.08966890205812042,0.015669156308632,-0.02248498759481924,0.048785979131031776,0.0010334404388678375,0.029443255782957367,0.002003994757293849,0.10868616761771073,0.0032826558309041326,0.00370656869198889,-0.011626792515790414,0.10704262850800683,0.012480504213398051,-0.014597832566069655,-0.005488515192794837,0.10544635757567983,-0.02147469411553793,-0.01764721036290068,0.06499651224971112,0.02144736931326189,-0.05748063613277905,-0.005322120124433751,-0.03911743115966987,0.0021753169129265127,0.0616451499943715,-0.033301881459508485,0.07729609665116509,-0.020305089044317045,-0.07356361539366135
