start,duration,0,1,2,3,4,5,6,7,8,9,10,11,12,13,14,15,16,17,18,19,20,21,22,23,24,25,26,27,28,29,30,31,32,33,34,35,36,37,38,39,40,41,42,43,44,45,46,47,48,49,50,51,52,53,54,55,56,57,58,59,60,61,62,63,64,65,66,67,68,69,70,71,72,73,74,75,76,77,78,79,80,81,82,83,84,85,86,87,88,89,90,91,92,93,94,95,96,97,98,99
204.07200622558594,1.4777984619140625,-0.014735260622253471,-0.11151405460293205,-0.10725752714219487,-0.024734127587398493,-0.3003798050942206,-0.14763201594726258,0.011398233822561454,-0.04901946169971019,-0.13852493610132502,0.12836521630954376,-0.05926023655944044,0.12332943551413629,0.07200374660479822,0.11326641077639152,0.2315778421270413,-0.0990302536491397,0.22753123985192583,0.04304803120710939,0.13415808936692233,-0.03865751768044367,0.1413207502587113,0.01823031017858387,0.2075804372266661,-0.17666143653866942,-0.08342392244144164,0.7922748332247356,0.3017399606205478,0.21249528720515912,-0.16995813259049805,-0.2842115228574656,0.0787097063016718,-0.1300675109722641,0.3849121371820355,-0.08947708668468304,0.49069205381796277,-0.10668102159411524,-0.5094117028893932,0.08536095967818592,0.15811277029163123,0.09907137808191499,-0.10551077507017254,-0.19976987353354705,-0.48905485750530425,-0.016661692769045472,0.35030531367265627,-0.21337874770702955,0.2960507897003995,0.25137076893844607,0.05529057846614186,0.013382508814204983,0.010045366905691827,-0.07211613827461195,0.19758199130794998,0.26452186209847023,0.07429558061565793,0.43345074186514404,0.2516588673692224,0.3652322533758995,0.10137767731988735,0.15503574991113594,0.02954722099155719,0.013956333633828642,-0.2858285168755025,-0.003200180092685282,-0.0306508206145687,-0.0071180389513233085,-0.013797272288277613,0.08988543539000188,-0.003067607060060845,-0.012080822455914412,0.029160206198078086,-0.06092911125991705,-0.024441811943628558,0.04951176472422374,-0.04937189182752043,-0.03929313482732129,0.04172252100153383,-0.16492350598275635,-0.02204320065682848,0.19668335913927826,-0.0450277191778393,-0.5598898484550042,0.004778831378599496,-0.06463171324544077,0.16532699725477915,0.11446663322998951,0.0023530810145630876,-0.06142130066639129,-0.0005612640511720525,0.00571816263501461,0.043271574980217345,0.0051516558696692374,0.04552758201860672,0.03028171781347135,-0.12259512714177691,0.005327866876224009,-0.04520522979602923,0.017160188267312082,-0.0020348400677317833,-0.035998235642516155
205.5498046875,1.5784912109375,-0.03145674565952336,-0.00293430720695259,0.017327852916654438,0.10386942824817118,-0.16913095910532294,-0.12288515814516188,0.03367668007668996,-0.03949227705246344,-0.13525454878800863,0.03911643919810392,-0.03199664856786344,-0.3441586227479323,-0.32842705903249614,0.07557463937804836,-0.06883646992337578,0.24055736932622562,-0.08044980960979883,0.5008511847935493,0.2346835480244646,-0.06526735932399735,0.11022171755840356,-0.09507444927947797,0.210675134847251,0.2570777143229837,0.2001027046203176,0.16275493729314286,-0.056605637731188874,0.057983794682507125,-0.029784351561120928,-0.16985846502595842,0.028084242384252243,0.11697969925285823,-0.026944206726874663,-0.1406418979078961,0.02805393950306466,-0.06598229569060372,0.10592365539970802,-0.147167574940128,0.07107639738730048,0.10536686921403918,0.2501962562557883,-0.07803284390440025,0.12568264491868708,-0.12580556618457536,0.11982740810242387,-0.37728058421156907,-0.0852962784800198,0.22850623337097087,0.03409054754667005,0.225661234882067,0.19823308138109103,-0.011977431407810435,-0.3185719668092374,0.10691166201402977,-0.18804547578316858,-0.06705701980068583,-0.4370229690022005,0.03673795886071198,0.12906453891032393,-0.005687794329362502,0.045175593754005136,0.007996831710104653,-0.09961679739366439,-0.06432037607471705,0.045968268404221864,-0.005071978105593898,0.007488523865811218,0.010758100077403139,0.05608181776738717,-0.027967251126954182,-0.0766410541349284,0.022948302902942672,-0.005993995189213993,-0.059530483988410376,0.04377648158478969,-0.1945441306126549,0.1631854702623998,0.2830846085147597,-0.03928407201607044,0.19590023653898533,0.43291922162054775,0.10449431996981232,0.041268203597619145,-0.018644090477534195,0.006467579321453362,0.027003588815069257,-0.007703072611723391,-0.022569668764595312,-0.04418801356543095,-0.010090201554506328,-0.05546212628026097,-0.035404969009662765,-0.04843686491395908,-0.009925726687820512,0.052440991616114145,-0.06603518048943433,-0.0032100077377954714,0.002332380840149281,-0.024660144287628385,0.005942334718968564
289.8203125,1.288299560546875,4.28564568405454e-05,0.0780700016232959,-0.09195948633571908,-0.057881314349472086,-0.00790895350877167,0.03292869800631983,-0.020405185112788417,0.08216742049277986,1.0585257479564607,0.16013839145817715,-0.011953473586045954,-0.03839738094781581,0.07001698337932741,0.04413847355935586,-0.10837535381764848,-0.3264519703548735,-0.103216428729411,0.052142226492555774,-0.040705031116105926,0.06014461291938766,0.3853488693231779,0.08434065023082846,0.09911171454235791,0.017758704905759468,-0.04979036380932952,0.0699050585024768,-0.7654747895330359,-0.8891574121626816,0.23580584574626212,0.07215539840093868,0.13098522049686692,-0.018271289322516822,0.19349633610875325,0.28294929699798055,-0.06193966184079585,-0.09658811272358614,0.16805952039772246,0.6377131031082706,-0.18057005475336219,-0.3481126849867439,0.1597336775141066,-0.047873152549528626,-0.07345415725552419,0.07812596936537455,0.35162540812395726,0.10368910223612697,-0.09478563402332382,0.3835685688220206,0.19783352478538022,0.43624481556823924,-0.0006053817328378168,0.3593707828510554,-0.3379180446932719,-0.12718195264465806,-0.359273452929797,-0.0531318669329249,-0.03873188944394956,0.03363615888505281,0.01633884326098415,0.006758745032465721,0.03256358766468481,-0.016378646185653455,0.05434418953584682,0.02583237722943326,-0.01792333613915884,-0.0004871524619448602,0.0796004665265349,0.06963094910032626,0.08239057762893137,-0.055125907155066343,-0.09298325848639809,-0.010216122475703845,0.02104130628628875,0.05959660823813981,0.09321501806741242,0.03172717647777865,0.000609940597729477,-0.3776506896516824,0.07906602718187075,0.11320315290098037,0.05976651811074917,0.38200247445076074,0.0496655910952364,0.12335922566057488,0.003594734954368975,0.10493709765294096,0.032337467904972474,-0.013244171769550523,0.030731424726487974,0.03799146671407911,-0.022494828809886697,-0.00955723501996772,0.02654672546140004,-0.12956074994071712,-0.003062655904378078,-0.0696253689503573,-0.057479019789344526,0.027468578212455016,-0.032345730418948324,-0.0016679111762348889
291.1086120605469,1.278076171875,-0.13831533880040925,0.08564311572078663,0.02723062093077821,0.0004804753209396242,-0.07853303058424191,-0.09833570548000153,-0.010982826202092207,-0.16646356606587395,-0.013565271278067486,-0.014785435606236283,-0.025608661727036526,-0.02508238264941342,-0.04943096555752492,0.4040541317913575,0.0029053714002880843,-0.09509859173777685,0.13610220056114491,0.4459419184378508,-0.0169689043935195,0.05373495274099239,0.01851733119525667,-0.025817020745233336,-0.002287835870139726,-0.14289373378090175,-0.09839322173076882,-0.06859309662137329,-0.05642316958409736,-0.2109542213252982,-0.8299598166258304,-0.031468122744529176,0.24398555112926384,0.23874555868055072,0.40094221440711114,-0.07816321391969193,0.39080954817603725,0.10466315419969756,-0.08903767358320283,0.39130840244167897,-0.2705200810648065,-0.47205072568084977,-0.20919942892544344,0.13078039259217233,-0.010060144826969819,-0.0036842166021364697,-0.5108106179200403,-0.9345043242791227,-0.4160792462415689,0.1161798933525118,-0.41312083834565294,0.21771945870455894,-0.43813591240910116,-0.066081567195809,-0.08668458146218835,-0.21333666200836482,-0.6176652628576305,-0.4795642203982427,0.010811051115160994,-0.147578534517012,-0.21882366212085444,0.2908984008776204,-0.06750177825515136,-0.10184669196516813,-0.001856295031828055,-0.04442308097012905,-0.007264434585428026,-0.009281655598809928,-0.022826920391646112,-0.023335430145017936,0.028333761334295604,0.050749937520449546,0.0010084837289931678,0.07710335184450787,0.045828959467512725,0.043097810933133265,0.0031867042723805984,0.24088849661158496,0.05967477805165644,-0.1234625397638111,-0.00617750715737571,0.023923093003316687,-0.2583659337338239,0.22482073927590074,0.19130945979687664,0.23818540673801603,-0.18184517034032693,0.037480803707451445,0.06506837998407254,0.007302401260619075,0.00785947730194127,-0.00037938858950898105,-0.03119530241347225,0.04870722382048195,0.019599344579255128,-0.05908658667161834,0.08778475632971071,-0.08888178520058883,0.02425421718966229,0.1532786282002443,-0.013794428107230933,-0.11162877229725973
292.3866882324219,1.258697509765625,0.03994337056015641,0.05350487495822401,0.017498239891729148,0.03686280781319472,-0.016383101069995045,-0.08327773913462545,-0.07594076722820393,0.007180505287081154,0.014312878499906534,-0.17289753740441505,-0.21812647551081235,0.09183444144925262,-0.34482226210225475,-0.08157572050144328,-0.015640271801202102,-0.056050081664727976,-0.004454739416542066,-0.11952496059916522,0.06458767818535287,-0.08313543545718766,-0.2121269680485085,0.11739551561289385,0.0071162544035060366,0.0697448234115148,0.10620562411782877,-0.015009880919934562,0.048150909668702974,0.3599487008472583,-0.4196990527800832,-0.578669433666162,0.097781193832109,0.0846656373946016,0.0251561212673036,0.050241168738757974,-0.260506511394548,-0.2174074109659876,0.21550467831336495,0.5357074070315131,-0.09798990036923273,-0.7154736982601496,-0.023936020303507347,-0.0788861306934418,0.13534334096558315,0.32678134758117494,0.16250342352035252,-0.019765486523684567,-0.2615423280842737,-0.08945531656334985,-0.2216817956214423,-0.09634531991410196,-0.06109578361816913,-0.4578987662585937,0.2534695413986979,-0.287981779118026,-0.6652934740105964,-0.21089532058303942,0.051377117287774055,0.11069199120063314,0.33240924633474017,0.03328257968516883,-0.026898103732336785,-0.020592646851696938,-0.0068319170005864596,-0.005769477624849748,0.0788606519547256,0.004849181451151721,-0.02437682633527882,0.04279334606794756,0.04256791092556801,-0.005047941019475174,-0.018944969002574516,-0.008408253272721461,0.013728038336076708,-0.015073781538007284,0.017327644025049195,0.08416386058479765,0.1515261158346385,0.03132154831032627,0.0465422666823624,-0.09267225351325349,-0.13303384582516975,-0.3537114091401186,0.11786837580183379,-0.10915246875774512,0.07001826977339623,-0.006521381244829777,0.058490421863749725,0.054409961171078165,-0.051521703801484846,0.011750794160505923,0.0509202620765937,0.028052820515344832,0.0674535632561191,0.026334895845716425,0.057649969667904526,-0.1086060444887764,0.015334958553529445,-0.0009544644293941465,-0.04384270257188541,-0.03922495761276601
293.6453857421875,1.268707275390625,-0.03381022797316521,0.03132400356076712,0.005188212958719978,-0.022869838463383897,-0.023297279147094306,0.003976422878334109,0.07939336328766526,0.04190956537959548,0.031119923648894293,-0.12123999569175327,0.09796190824945943,-0.13548245857350427,0.018806454454278195,0.17392595138832,-0.1655903258996309,0.07467912356300507,0.023696840593655427,-0.07988305993985653,-0.08352997338425151,0.41034823600787734,-0.0029143735527677045,0.18999952415151108,0.27319803956768474,0.3652959704465243,0.40831637149624805,0.6542426316758406,-0.07494466388373046,-0.3435335431537017,-0.0035346189673386872,-0.09498908244929113,0.05025019588336643,0.5175526875468943,0.8756062544958609,-0.009097148821172808,0.01506265544275366,0.18528805218992725,0.24862712218952207,0.14167590464597052,-0.3368508935014823,-0.24836374483458815,0.28717026239062726,-0.007399825172486385,0.15718448541369107,0.14709360499981255,-0.14929362119965123,0.07799268204035198,0.004904608739840555,0.08298576724522262,-0.3545723583455547,-0.13156352628812712,-0.1664945859294382,-0.20855982608231963,-0.07579866460302434,0.147610225607303,0.6438437676253197,0.20689058202538452,-0.40996092267374407,-0.09909933528360441,-0.061003508296529035,0.5104420597578014,0.02859537120492949,0.02832331141113451,-0.07661554440280212,0.04202264931663108,0.019431305482913226,0.03213156675119824,-0.014803436510557086,0.06235864238649197,-0.010341341176171876,0.047118739111603705,-0.22920217439028895,-0.03994138643096294,0.08089426510055157,-0.15129639961339528,-0.08419598640225093,0.26261162831962054,-0.24841098955763916,0.2866005149957771,0.08417158019699811,-0.20102995594491185,-0.381303821870809,0.027488939308741203,0.14214094252179027,0.05604987947761807,0.3470453168249872,-0.11380014121084724,-0.04658076438017386,-0.0220143971668746,0.0690078858187155,-0.005255732575182415,-0.025889515270887873,-0.07241771978209616,-0.005468339541812448,-0.08124169683638041,0.008885950573938817,-0.03156665987752309,0.02538307446066542,0.06084156099529353,0.0408525238021579,0.16700631781662892
294.9140930175781,2.48712158203125,0.03688808222847837,-0.06633217996379004,0.12977698442078833,0.046742400000277004,0.025188234778891525,-0.11307799918680772,0.3030245736471884,0.12064263869026533,0.1719464015102226,-0.021033073611140568,0.005144102303833777,0.009557609005725217,-0.07228485279033078,-0.1321156053053285,-0.5588941863912473,-0.12678805892908188,-0.1440493191898621,-0.07427481536862625,-0.002236684795652699,-0.03343383722521363,0.532280000084417,-0.10335090083266105,0.009826817750614482,0.02582960907809069,-0.0021925284563219286,0.1545598584134661,-0.3402208106981062,0.09531109374220754,-0.1628649766548994,0.03451168785404723,0.29280909798490434,0.24045432523408172,0.4258530122252828,0.4844145788767738,0.25803301805441753,-0.38084603423154334,0.1391674467721502,-0.4942680456809943,0.2492500066132286,0.201742014025887,0.23335399502540935,0.13089543872648002,-0.3720044419408923,0.0469445727459291,-0.31237589119405523,0.4039124978171879,0.23184519350810057,0.04912427465155372,-0.8000971523776796,0.04890144951566124,-0.010488691544396156,-0.08841343720879005,0.3410553754007233,-0.09647568455677388,0.0675697128449012,0.0028253116064118552,-0.11897190133853895,-0.042629779481670696,-0.025408344064969595,-0.004540763062391123,-0.02456361355558731,0.012571409457016248,0.039706591038153306,0.03478596213923366,-0.018007820863124302,0.08585500955856464,-0.0011653611114569012,-0.08819365755049267,0.0456440585514056,0.038245549898698,-0.028739016864222013,-0.07466851236553955,-0.17504830363741447,-0.26710869658063197,0.11954137735036911,0.09048202336001923,-0.11480298474545876,-0.00584026256406339,0.21636300310776488,-0.7017207014217601,0.014655821034706758,-0.30137195647022746,-0.08526388847010002,0.03850607327084766,0.059298288369838,0.00483959510295535,0.022912545220178288,-0.016299633536256478,-0.008476666468869833,-0.01409248697614889,-0.19780030823881808,-0.10672247252431308,-0.037469659479310385,0.004629579547150486,-0.02265266043037882,0.019876946107938553,0.05908381775725116,0.07469208814017729,0.03723155631421447,-0.05562025648596653
300.03839111328125,1.23809814453125,0.048728281208454925,0.0418560178606306,0.0014862213531245116,-0.017621767633860606,0.10514416861472231,-0.08301751211216035,0.04812111308328079,-0.34112742130076756,-0.9852992185258215,-0.04950730804768498,-0.05080515186629027,-0.1893542489679661,0.256272798288385,-0.006976796935906651,-0.21201860736419526,-0.03118714804187505,0.058986187263502646,0.3561956523432046,0.2606575596397613,0.3526600966461353,0.4010858066447565,-0.2635667723845206,-0.418856211617379,0.5027159287881723,-0.1104019807103633,0.20083495122275205,-0.040983206104600815,-0.03761407855201252,0.20405414905067473,-0.1474773807034226,0.2930222129889224,0.24826024530721505,-0.43961837345293825,-0.8677598895947015,-0.6085930005670408,-0.021482513352969093,0.07156618727304241,0.02073432755449094,-0.10380360191648633,0.17732151181571199,-0.28533378829076195,-0.21473430811761293,-0.3280506934670612,-0.7226147346590794,-1.0401920261587863,0.059894863816922383,0.04552095910027815,0.09149669945272015,-0.1522939004799802,-0.005267199200529753,0.06974722464837525,0.44612822506163663,0.2819956336442749,-0.32250309246134495,-0.3293796315774944,-0.13358296707722547,-0.039184203070410734,0.026450449053755425,0.005989871522878665,0.16154689913832315,-0.0025650790483711006,-0.10630730744716661,0.002368030831289031,-0.0034120161661694835,-0.010161573612109662,-0.014270348246395576,-0.0024906203966168785,0.016620996443129813,-0.05811575573995207,-0.04809714578707455,0.07271511404544345,0.0808417544890406,-0.0023720708532107976,-0.13830078326414585,-0.061302716544445066,0.006234979538167262,-0.12931065910213285,-0.02496770691901163,0.05282888075417163,-0.02306090817170947,0.24571831102350628,-0.026921645381179,-0.23548006786861522,-0.188059660925363,0.09358856897973036,-0.031004393366143957,0.17175288742272174,0.18023721186033015,-0.0014434141590682335,-0.0006272314067983446,-0.0074010037644498825,-0.09210762688647153,-0.011334845492455128,-0.006574004222487953,-0.018844536077907134,0.049741755017175204,0.026072746884830977,0.013584820219605134,-0.008290719229274171,-0.014138409459749753
301.2764892578125,1.2987060546875,-0.006586884298418087,-0.11779090702183218,0.09800711817996852,0.03828985108867493,-0.007780930377665363,0.01709734266880463,0.11569731724544066,-0.09418205205943836,-0.1567875001376559,-0.054916898113873666,0.08152730327969446,0.08839642042278587,-0.03157996084923159,0.004099634207429724,0.08379769198654602,-0.025425552560130044,0.05220721206934456,-0.06592931345520972,0.2486709392152815,-0.00012623714865084892,-0.17365858180521831,0.01323480612581662,-0.13443278453781438,-0.1140881820053285,0.101881915935962,0.1699533852504701,0.12283690909818146,0.17306409011751347,0.27957601561230905,-0.0723039836231147,-0.22739613599401548,-0.2063414666714472,-0.12619563612878026,0.08111841235757453,0.055217007984155186,-0.151920491676688,-0.03133434328617922,0.1750031697852789,0.4258119606325369,0.22539440096670213,0.028878330930983336,-0.4791941761269285,-1.194385875474734,0.4533096096675092,0.28224028015572167,-0.3020448475178363,1.5378313849136953,0.3155917509685178,-0.32443845929676507,0.1113271602074471,0.6861978654544865,-0.2772672171965721,0.8437506830108201,0.5589798438757408,-0.12910922413155795,-0.5029916673916397,0.11677905000462763,0.08798369835385027,-0.10399522891117438,-0.011500813008184596,0.06738858925065222,-0.05912124946986436,0.23349357749529231,0.11357963107358919,0.4417254708949197,-0.2722747850670939,-0.060940353009043234,0.16320386826014868,-0.004662860966091847,0.02168740618617042,-0.022027080002847324,-0.018470774846122286,-0.0005927695198749155,0.056157890097702584,0.0726848200793698,-0.2747075471700984,0.0753463469246052,0.004315422139030148,0.4197642919900072,-0.04857526459613214,0.2721736743348053,0.048714604213625834,0.08711210326473062,-0.003236405361257536,0.08987745601068134,-0.03947094857212546,-0.10683891149924576,-0.07596659358141888,0.03754250131560437,0.00804344539473133,0.007215082259514942,0.07981392408637021,0.00942737902311954,-0.004566594920561413,-0.005158155140530666,0.05463373848415041,0.023807242459084495,-0.01516283761273424,-0.02478111052589372,-0.07932937920552666
302.5751953125,1.318603515625,-0.07034764953580463,0.09083031157709091,0.021749561950496352,-0.04797008135521275,-0.09899861002127133,-0.024301420849705813,-0.11907891757136824,0.07072483415348393,-0.06360104910435861,-0.04592086342603448,0.09163347730883928,0.04265112432214189,-0.04913672051005058,-0.2177029503837976,0.07494802629191522,0.04398742406265086,-0.1397862417822436,-0.17918685456113573,-0.17839355315147407,-0.472009982851458,-0.004464442022377548,-0.0034770635246024343,-0.009806386097197674,-0.02548139486535836,-0.26599849064169684,0.12432843706304014,-0.010653368824557113,0.013892686312412555,0.17394462675170697,0.19775326980861668,-0.5430536365797526,0.33630549243639596,0.03829494255298438,0.03165483039023267,-0.42116464987621505,0.11472790112887529,-0.07693531149317824,-0.027424716356633076,-0.21754038891954447,-0.15598409755783849,0.24065333416144097,0.6915803266910864,0.008441088615637762,-0.5280914171833894,-0.038677631710693314,-0.06583125711792537,0.10710699114327346,0.018893838278197433,0.19443235733755673,0.0371265163434292,-0.23455526744974448,-0.08723792088064856,-0.21682362412328482,0.07938830780436347,-0.05146086341850985,0.0006769509510193283,0.042815902519536146,-0.01779723097578087,-0.027094150492650928,-0.030175932174817486,-0.038275363159473774,0.02728154107298308,0.042075885180702495,-0.0159333669466287,-0.023684072775595897,0.08287501158430827,0.06997460535137616,0.10414396752884586,0.016843598128899726,-0.041208905789536454,-0.04870495329606671,-0.014546042123109164,0.012784418559754585,0.018326316374023485,0.09554045897379862,-0.0009897965273783945,0.03315813716034697,-0.1174609432981264,0.05794661159300626,-0.11328635175731652,0.044445846238977404,-0.042464469853045264,0.08043984143935379,0.37986127813779386,-0.004229782651286471,-0.1637072828633364,0.003660703765332424,-0.08097069136892415,0.05242607332848714,0.003427961814369731,-0.0005123347688116703,0.00125193609112115,0.0351380768670603,-0.029387207377884403,-0.04442158694367293,-0.05962893455064195,0.03393116844662033,0.03120110861592966,-0.018029434724017666,0.012759490888634211
303.893798828125,1.28851318359375,0.013026774934901376,-0.0074548401006270335,0.012633234672196264,0.12490031164057895,0.03972221678473801,0.061083201532812374,-0.022644506265522616,0.06383320560109426,0.022867654389005204,-0.02665092087383624,-0.007661448472864035,0.19235088165839198,0.05052520512085096,-0.2721021396415209,0.024645092773148795,-0.06800052423882663,0.16695377524759167,-0.20605456718417015,0.1100982465394422,0.04691399516678141,-0.010994948624032313,0.030081062992369186,-0.1793175142465877,0.10856334662194336,-0.1499409578650865,0.002876347723555892,0.29530318492890134,-0.0011594624674360968,-0.1363645124909334,-0.06793204315559798,-0.08776033762042756,0.03160240996203546,0.31867837868758764,0.20670517168349717,0.507879493125855,-0.42314721740205724,-0.5201303087636671,-0.2297277671568183,0.20407194986241406,-0.12155929868945424,0.12407407108139058,0.24426093307269767,-0.19708107194852792,-0.3395324885018938,0.018315427101373294,0.5515451440214988,0.27091256708682393,0.5796871417778618,0.25048992340059967,-0.1517247265667295,0.013345304903513945,0.020528345669199158,-0.35729957384268995,0.06288311322173902,1.0484652155764296,-0.20523776335164373,0.024974495344567377,0.08302362520851111,-0.05358024370753574,0.036016814349772844,0.041964493853959575,0.018430424995971785,-0.05057249243641284,-0.01929903900048213,-0.02179526974556373,-0.002884485019775814,0.0022532475260527924,0.04266723660630931,0.12079064744469332,0.00037682626826351234,-0.018284775089895684,0.010584074295554396,0.02541061493154205,-0.041955828607523116,-0.03912958632658428,-0.028418188688219978,0.023454313827641748,0.15086960494997698,0.16417295327184275,-0.007747722630020131,0.03833741829522788,0.2374419384055756,0.1095273872907789,-0.2842679500580469,-0.12836677138672786,0.08869213242607382,0.08139779779667311,-0.03224542075343375,-0.001918576343491172,-0.02508919515103035,0.09381590249465582,-0.009353219204466388,-0.01928454485333185,-0.011716137892418358,0.048842533414659446,0.030296340147209708,-0.026474730163777098,0.04034621207189616,0.035267087711665916,0.20515845777471164
305.18231201171875,1.947479248046875,0.21517163094510117,0.004424843603528128,0.1320821424662798,0.03236458458934943,0.09740974507878866,0.024529194660921575,0.09461275563910755,0.01129752340008005,-0.042191208479759976,-0.06088163083314844,-0.1039609028501877,0.0034290754154258068,0.24928077623683803,-0.21131312621496415,-0.08583987119650471,0.032953403635508534,-0.25670455383706625,0.012312302930011294,0.13548527882333464,-0.21160652312196715,-0.11409178705258366,0.10741657755245539,0.007640295725329819,-0.3220324444292687,-0.09486599216035657,-0.20631943892297264,0.2751600586447934,0.0351207372806682,-0.08014780695407123,-0.05347743380375203,-0.5096042758411528,-0.057183029764301424,0.09291350331269699,0.03947942421042746,0.020343963726944365,-0.2975654834850706,0.08947671632166133,-0.1614559968497748,-0.03864965202408325,-0.3209706958317418,-0.5768636928279494,0.4779962652569836,0.07384312676030227,0.6601041007445136,0.193019770143607,0.0582689021239723,0.06380255144809334,-0.015866306017317946,-0.19532973386155708,-0.0476360676280436,0.2589122291513224,0.07818423414470622,0.0760192974487959,-0.09293583464072132,0.050614012170020976,0.149493070956602,0.040819267949286406,0.025684828610918458,-0.06313530401327277,-0.09563006086586298,-0.045630304803176806,0.06614398136416896,0.06639489384932055,-0.006527714144803121,0.03215687251871653,-0.07903352083454951,-0.05986356888245873,0.03844569144350266,0.015454193599077853,-0.10629239684269962,-0.07636467223260658,-0.006563347850472829,0.04514178993930962,0.04812019144265771,0.09097479756914294,-0.13960734536206257,-0.12508595221451912,0.05376157934153483,0.2747775083236833,0.14763859734274268,0.43703242638993045,0.2346231951336251,-0.11029076975137382,-0.02761257779036151,0.04054648374426415,-0.24717382474760408,-0.07596166708634224,0.023431504139193777,-0.028894118235231428,-0.12349123465023228,-0.03797431132864582,0.02966174056229752,0.046217614891028026,0.012746224676819806,0.03669895595659492,0.00628245333538501,-0.053281484898457555,0.06233086218543587,0.19245592380674154,0.057383849214556734
309.87689208984375,1.268096923828125,-0.017575515179385978,0.04842921603278473,0.0057885485798940635,0.018536410636327817,0.017923074612176376,0.14390256278209296,0.1970843954007047,0.0591959261689599,-0.08284994150336633,0.028934300011749247,0.07387394314456151,0.050314035107819954,0.06551383000247261,0.09574713620690704,-0.15228875499678435,-0.3772624652792064,0.02283250878040608,-0.1324779676038238,-0.1710176019805571,-0.26984853308449736,0.19977499656069178,0.047252389886861465,0.013468362450516726,0.0667715015073428,-0.09669305038967996,-0.09925398372070116,-0.11117098436143047,-0.08510118118042193,0.003905072190450762,0.04335430802357912,0.74795794430353,0.10650019859432551,-0.10079302124056236,0.2992448343308919,0.3202060367004243,-0.573836692684135,-0.6031178412962387,-0.24073178475033408,-0.5142163860815703,-0.00650605208338164,0.42679692234617667,0.8789059278010464,0.015429743335090236,0.349906229414323,-0.19701341855982238,0.509687486270791,0.3995999670960221,-0.524785144599402,0.11671918597238554,0.05930114707147343,-0.41644220327497994,0.010584921901261129,-0.05314005582161525,0.060541315608013506,0.08716164480793553,-0.026575345964860664,0.02422134337746622,0.4084568907334516,0.055627853884348516,0.05246395489820645,0.0015803403298092532,0.015329991232118458,0.00511543183668947,0.041932640448397465,0.03960983845887387,0.03431327492484487,-0.015078360116062206,-0.0022821824083532538,0.0019454572222456102,-0.02240785301215767,0.021357755403934385,-0.036542570767368165,0.020503794377032425,0.03413293843406301,0.02636704452653748,0.007746622676464604,-0.022121997196551852,-0.0481839174726646,-0.02061291642369044,-0.005293001972427563,0.09177125596092468,-0.25369539645842254,0.04677584764141428,-0.0712335549782285,-0.0032553007962727023,0.032495410823444065,-0.005906525335582622,0.01365776361506627,0.11625536922054681,0.0011533625342671748,0.02434077102948538,-0.019993002268842562,0.005650133923505204,-0.038518273669974956,0.014654197983051013,0.012348761887555727,0.009784020750453079,-0.05776243562347815,-0.05067398906186265,0.0247862157503643
311.1449890136719,1.238800048828125,0.03554869955048011,-0.03717921307125571,-0.1170198050826033,-0.018711814496446197,0.10014142791588174,0.05744969990199261,-0.23402504734061805,0.07002206105973675,-0.029890141296725917,-0.0579135410731077,-0.025924834236893506,-0.051476237259107445,0.027868371220189023,-0.11415949152513506,0.06750253867374441,-0.05397791873664738,-0.25243326046505454,-0.20823389968018483,-0.3067825365156742,0.1515447263260623,0.0782394258302492,0.011798164856195696,-0.23342641328014468,0.30267404076580284,-0.10106922557046177,-0.008727137777852171,-0.07275321233041988,-0.2072305269841662,-0.17869095083488878,0.07375764071541525,-0.08881147343660788,-0.06568108991780158,0.04969761100987539,-0.0060774135089515504,0.11836527983540757,0.030130785475999046,0.2523020465262506,0.31192136372859497,0.05359242324184027,-0.11782685863601228,0.43034692704517197,0.16510458966714472,0.21039816511902226,0.17167884926724486,0.3123245883300159,-0.20474916349354647,-0.01869352510271038,0.3470118679223399,0.1661893303940033,0.1496672735786221,0.06585075066221352,-0.05103194208071348,-0.11331363421998478,0.027248902430876368,-0.12524437287426735,0.0203804594206689,0.09845013121553269,0.033019519986988266,0.011706512692479784,0.013393582812664569,0.09247074208704759,-0.002354519676679344,-0.042447281368607294,-0.002931466493438707,-0.08272796733272145,-0.011244774626296732,-0.06458471772652834,-0.027504936442421225,-0.04632491050707309,-0.02394712108077863,0.05400097694679516,-0.04357733463551558,-0.06683844468454873,0.03324536365705272,0.0199449185320279,0.022111061854045752,0.10132878740121143,0.05127436232359164,0.16278016641860815,-0.006514514385630204,-0.10082296890509092,0.2910440953832303,-0.034647197691880904,0.17467752442478623,-0.2575761105022878,-0.04600303565092472,0.025589353404355378,-0.015407221896642412,-0.004515738880764546,0.013281675864676018,0.048879585714006364,0.0023446503411149316,-0.016152839292909844,-0.05849744659816196,-0.04109968353591212,0.014215205174262436,0.0323981862836216,-0.06754797216455798,-0.0038388004754226716,-0.027965043010684504
312.3837890625,1.218505859375,-0.01414560856615027,0.11752730126571378,-0.025648255119066356,0.030900374728335192,0.029847081531957538,-0.03500347880833962,-0.036543591238616925,0.06661876766998855,0.04906425992623791,-0.003500764945977547,-0.02292317806537593,-0.03824920713387023,0.016839967647214852,0.4493043648667802,0.05831689868492379,-0.015102299281718322,0.021909124985606657,-0.14932379991011763,0.07944467407499933,-0.14670533148745793,-0.132719973646802,-0.10540800104161979,0.14050464807489824,0.02121706582630417,-0.05356214098925275,-0.07980607758992955,-0.04645948434053912,-0.07951773347092474,0.03877593936791346,0.12392356820710707,-0.009616151108930895,-0.014386304979219028,-0.14991574575394884,0.12327275198094198,0.3830926822636257,0.04018547899872551,0.32452701807912226,0.7330421680214955,-0.2264930913995557,-0.3763045447039489,-0.2781491607044364,-0.26046850934238025,-0.03494141902941164,-0.4823619788365852,0.15251198526012766,-0.2400911723187844,-0.0786932228440421,0.2414262451982892,-0.27731453011557017,-0.2814448396508711,-0.35688035101151794,-0.07656151414100651,0.035199000154439386,0.015388201842361324,0.010103177689939222,0.277409251479046,0.07533544729420932,0.07222996075140678,0.0055551414327472395,-0.0014254822225994916,0.06798835446836261,-0.09182722473628287,-0.023953188500598264,0.016828824122921596,0.0880615145703607,0.0922900868799496,0.04154251988881936,0.041618282215740376,0.053640357404627,0.04182782170345705,0.050320273822243876,0.0246913528712417,0.04441687306487121,-0.0060213058734712235,-0.004080520618178763,0.020744673040884645,0.04300840308527381,-0.11479861626044467,0.1620781930560818,0.07235306002645676,0.10285634154810654,0.14779684574267693,0.09929352045562535,-0.05640259669583951,0.08562754684666284,0.013149660909436893,-0.01313894420294983,-0.12478169504778752,-0.0032684404733752843,0.01915445406950625,-0.05463983101292663,-0.03428452055612774,0.02650210812916129,-0.049909133826545646,0.019071251138896017,0.12574905437426193,-0.011945273169659263,-0.09918541237838477,-0.15083962283883554,0.14964490691279325
313.602294921875,1.2384033203125,0.01003215508076799,-0.08105957526898079,-0.05700232808620554,0.013356789822788956,-0.06751115237250017,-0.04827829316868329,-0.1207837297658796,0.05223302750901303,0.06691854365132897,0.07907175634049429,-0.20970577788560146,0.021112890650202783,-0.4502112767906164,0.21235132030200338,0.040137694014029786,-0.2530212200806068,-0.021582543613262672,-0.14149776993040927,0.1913874119584661,-0.15806069318265237,-0.03445255337730736,0.11704409626324785,0.007905684460583276,-0.001028552562538794,0.22807042693322355,0.14524000005548846,0.17887240196986726,0.0038961510792609316,-0.18784737913697025,-0.010131595111334634,-0.10825383466735533,0.07213782386053462,-0.02688607249805955,-0.1204049143819814,-0.14765840256735088,-0.11555588248159522,-0.5532115156425021,0.3845870579604269,-0.04256103258706174,-0.11811422718818097,0.09774823596059991,0.04049899784806377,-0.25638852789006555,0.1990410586077071,-0.12494130134951845,0.3083217319371227,-0.07878913139460308,-0.03658999234008398,0.08986065699391953,-0.0051958354963612535,-0.47733692650096304,-0.04108510414244111,-0.030411312752818553,-0.010142807601576855,-0.011175072557939666,0.061393971584202935,-0.03140637450146384,0.036200283101697,0.06463761291872519,-0.008919170384276025,0.05146474962513088,0.009171687137926264,-0.0026691841810108224,0.03286839699567175,-0.04957865215798908,-0.02129161212122633,0.02328426125118815,0.022306742124717272,-0.03074171227329664,-0.0884829901478965,-0.03842109272434437,0.0227224241007553,-0.01674405691049338,-0.03831041571801525,0.030040400243748468,0.0249757799939117,-0.12123309306454469,0.11128789807543532,-0.08313916152458752,-0.13276271005973947,0.052365168119643014,0.18369661102751933,-0.13541128003824957,-0.26106950437800786,-0.03959591723483488,0.037233683941883276,0.06541072800746763,-0.00016681245606978352,-0.0028496126362756316,0.0034972610148088826,-0.009356441590783523,0.04613035153005445,0.04066088731266931,-0.014948614602855523,0.002331385695004618,0.02106448447007276,0.009191502416990509,-0.031769137234857844,0.004550813928818056,-0.05558811841634233
314.8406982421875,1.26849365234375,-0.04672409021264606,-0.06710862712657018,0.028380712006070993,-0.06650686677440942,0.03711823537673882,-0.03037403091179095,-0.3008125738514363,0.7941345368903959,0.02133450804764396,0.0762913094116592,0.12281119296163537,-0.12558123171647187,0.03891773126768263,0.016233032437536668,-0.06917917164989912,-0.11734392974256896,0.0005969278726281578,-0.21556420897615308,-0.001148428095405868,-0.0143677949019302,-0.29455286160882777,0.045577472089848685,0.058929096112229906,0.07888239035379979,-0.38787239548601665,0.08397503055465216,0.029199937569714136,0.06738250082263761,0.2671475888199658,0.05712130055753929,-0.027483048637626975,0.12564293659031922,-0.45921624215191625,0.017838744449390802,-0.03669218351357151,0.06424981305195848,0.08521041549569286,-0.1471800857365294,-0.17281719411276067,-0.3574502937843135,-0.05175377961484152,-0.3592669896647531,0.08275404752353349,-0.037113935814077674,0.12781677061778046,0.3155238353089338,0.12266993563129795,-0.012525149970052385,-0.1253963557377345,-0.32492908221105893,-0.19390358419119302,0.05960092913427336,-0.10067830281422263,-0.05632843922402018,-0.0010548710561106677,0.02638854208222318,-0.021508052668061765,-0.0023164483485988785,-0.00270921136517698,0.0009472312786515562,0.04748306984096157,0.03990909022983327,0.06329136494618388,0.04028940128696002,-0.03243504314861716,0.021129713149599966,-0.05398936192085125,0.058621178189576316,-0.08324453808419092,0.05998137816815305,0.04305503363141948,0.015324696055062299,0.03248013266785012,0.02493682118838039,-0.039961391437925445,-0.03482695187614546,0.07693514516432266,0.12508341957259014,0.09572642189139616,-0.3738681466289145,-0.09796704379668286,-0.025013751138606488,-0.09941771849644218,-0.016093159089577248,-0.01196914469813727,0.046074409218528775,0.018527330846001912,-0.07484984811607437,-0.009804630443197024,-0.03366615399575006,-0.05551801262789965,-0.001562956286442969,-0.05085841527178192,0.039656204759277905,-0.018422950633937812,-0.11189907596670966,0.08731781216453313,-0.014124728111233376,-0.09269111979093868,0.09114826205229036
316.10919189453125,1.668121337890625,-0.04813939047442037,-0.045677556496222384,7.744239787930984e-05,0.09859924080901346,0.24188343090220363,0.15194527253189302,-0.5592472013986675,0.046613923134963764,0.07744223336161522,-0.021327321527569942,0.09827853704625364,0.05633624890764513,0.13194949060850983,0.12453927671848074,-0.030202903234571768,-0.17792338064144206,-0.38634056000848477,0.17421215164708206,0.19314756469471722,0.10756823557803014,0.07894706061340859,0.003377467074837992,-0.3201766255237268,-0.09879877130554329,-0.13780605673502386,-0.1260746857154738,-0.04747349937981381,-0.055220911369581085,-0.06121718024021868,-0.011446896228463165,-0.2628863244142916,0.16249133416401168,0.08832887992498603,-0.04740091798117709,-0.1947461372637335,-0.08699927988682113,-0.02951650431338959,-0.24673099102252705,0.08410602194427558,-0.09139310741882338,0.10641899983622449,0.19553852482522396,0.09657323592027395,0.229648633300607,0.4761978762834611,-0.1044115386789509,0.22402655222720239,0.2715870657974279,-0.043622566750828394,-0.063131682154594,-0.23952115616780986,0.0501569226332792,0.0665163258558706,0.02815696680379759,-0.05186861799709715,-0.009553484214708644,-0.0020608953604703347,0.06462843079688046,0.08938444810995388,0.0006435086820599536,0.04176188723477503,-0.03293329593845644,-0.05722449587529509,-0.02369105679435196,0.005316525377611116,0.028064240694191757,-0.04393900498018279,0.0036698176561702454,-0.0083380120533312,-0.14718080323201968,-0.1926306418243833,0.1595640820387383,0.03949648747072622,-0.02184073312581529,-0.03643954591622302,0.1963424482637714,0.055843864736223964,0.11259039393029555,-0.12912474195388707,-0.020423798269314047,0.15634569714578017,-0.025262668443450775,-0.19111914812258912,-0.02969265388617816,0.03316395613118068,0.4030343738431099,-0.026388709312423746,-0.08106240883124213,0.0017626676574672455,0.004507411718254975,0.09333700525770554,-0.05074377539250406,-0.012084299016551834,-0.02256869888119916,0.0007959412178295934,-0.05022328397073791,-0.0921595494535781,-0.015487140861391274,-0.09498962023585958,0.08885807385717664
320.66400146484375,1.26849365234375,-0.10186048542006701,0.014826691396655392,0.05106857906829403,0.1315172975454415,-0.03630969193830687,0.10516329308734954,-0.04754320518970113,-0.16971405650366927,-0.006032668513537759,0.08746329290920787,-0.0020159378026322916,0.42541704880268705,-0.31540066184495896,0.25525587913370773,0.07848138242483711,0.0686122345217782,-0.1622024084940057,0.38558769317676345,-0.279376211167083,0.22186914351501458,-0.2074164924522039,-0.19995604237789844,0.07249622978086649,0.06999275262000107,0.1964755930987038,0.04986584494408693,0.03853491172285069,-0.4761340745506403,-0.06733771320467519,-0.01693332500045388,0.22400224735713242,0.5334185715721499,0.40989409921180087,-0.08697126970160404,0.028449580772577997,-0.10632807563965707,-0.44843837630166106,0.08860728246332142,0.08198989076871943,0.24375841774991394,0.21886387726790987,-0.44557822489013843,0.14209572676837037,-0.2619764235860644,0.4481337962965793,-0.49916419543026636,-0.3729908379089699,-0.012130063563513696,-0.17843506368762027,-0.1268035280145341,-0.0007405503620490222,0.11759217799995915,0.21889199211489568,-0.006919348426854495,-0.030914101825822837,0.002173717330552719,0.127426906129737,-0.022573941054780805,-0.00890546747849997,0.03868949152918189,-0.00255739530972858,0.001832905206685706,0.009289609687448339,-0.012014585969009402,0.009884283244243333,0.032326283884677134,0.04736231360033051,-0.08522118324874775,-0.04280218655995796,0.052082088020225646,0.02562795157304014,0.0015562002514633616,0.06356460819874932,0.040339529958729255,0.0004644369403914585,-0.018711969694193226,0.0068926159573572884,-0.017368779371363014,0.07006925934192147,0.03769151788241669,0.07135421954788046,0.3702254645651736,0.21229027070228018,-0.02031478467431189,-0.16429662198210165,-0.014001474732654333,-0.026024547876626683,0.06821893406583965,0.0017766777779009443,-0.05460473170656124,0.023847076273894006,-0.0007653799310125275,-0.08023142789226263,-0.03427427505304528,-0.028911901732769665,-0.03081850621434715,-0.03189789736392701,-0.09759141845406738,-0.002174837202130374,-0.048260676691200516
321.9324951171875,1.268310546875,-0.04455281255545633,0.02266138246569067,-0.08203960081319145,0.00338361858600425,0.03649642400430199,-0.038016879676606545,-0.05208240647950737,0.06183601755732174,-0.3607421422229761,0.23066457321707992,0.13351535216895466,0.2368540314559496,0.4476455169353475,0.04252676646277282,0.06615751947606312,-0.10461833099191203,-0.14994335048992533,-0.11100787776731844,-0.2899172792852762,0.46360539687709196,0.15438476047423377,-0.1309390066134543,0.26619571997030644,-0.1044749015902215,0.42482165539358024,-0.09530093858465503,0.05480226602410691,0.13114418094881083,-0.11279731757035041,-0.07560088770482333,-0.20564302240093774,-0.14486192606367912,-0.016862083256594947,0.10707471708045355,-0.2598218304985618,-0.04605409075139923,0.009709933514874924,-0.32525861503266995,-0.07606299217144563,0.08937509601848652,-0.08456825249344817,-0.20839933825555224,-0.07221808516576617,0.005997427603385695,-0.10961298893441669,0.5515619980684632,0.15661040343667815,0.04686750472144633,0.14523864477981088,-0.12098440167331022,0.11546552286057474,-0.04478114768210318,0.2959640824399164,0.15368523094224845,-0.19298520456523782,0.4210188071173984,0.11824274936371423,-0.040084952413322876,-0.05904475024267301,0.014786597926275746,0.04525593048277376,-0.03963082745837523,-0.04381242275980381,-0.0057938897917976795,0.04170964032979582,0.06641421983709649,0.007379829792338059,-0.026819194095042565,-0.030205395735492652,-0.061105379006348944,0.010096588163291152,0.04377299872956738,0.020063314376659584,-0.022631382809316918,-0.02558258744189723,-0.07110501592643147,0.03162563059450278,0.00881127465809133,0.002447395167215371,-0.18694663346164883,0.019648669859848603,0.25603983621920345,0.1268212946801893,-0.08722168731549591,-0.0882853111024835,0.0395114048900671,0.014206949367786399,-0.05273436086396516,-0.010049403471935944,0.0010621299550734092,-0.00378223360479145,0.03679019388903131,0.0926660695940651,0.009348231600387549,-0.0350281442144057,0.06422173070287167,-0.028048321848195504,-0.06912065446772757,-0.03550299597280127,0.05900433662002765
323.2008056640625,1.248687744140625,-0.07258699386731725,-0.04817813655709349,-0.006814798701471229,-0.011840151349570269,-0.057044037532174595,-0.031604666262671284,-0.005195693129713088,-0.007999834535248967,-0.010105697953533246,0.03839019198247618,0.09216968985371309,-0.36075472515398915,0.1488258539209107,-0.2226133281181746,0.015923258199801907,-0.24828075976683814,0.01665391249648008,-0.056922977966942005,0.09576134290680945,0.03736323804434307,0.02544161891617321,-0.02900901596862676,0.04256272420114754,-0.05553003005354866,0.24514326574386427,0.23546700774988844,0.20512880010340995,-0.4232829490054012,-0.38708872075592426,-0.12687402505300657,-0.1610265680371996,0.2968303240358325,0.25857446381161825,-0.1413300156803618,0.2736920572620648,-0.22983340016360296,-0.17296333982739692,0.05437777232396501,0.06409800438913528,-0.026595448561731204,0.09484056289887244,-0.6547525114924461,0.11993952152509466,-0.05184676715969204,0.1754024425590122,0.17873581967656135,-0.2652556619274891,-0.079061490962886,0.2626105820419956,0.05578027068165816,-0.4374407054677511,-0.026422959916372515,-0.05741654986717805,0.27543052298684173,0.019533231846013577,0.0013271467208637831,0.06340967623591261,-0.1523641398714643,-0.03287888048959923,0.06409233919745204,0.08618415706637711,-0.0013612058892732814,0.02571363622642204,0.060118514103984846,0.03216557253933694,-0.055828273373498466,-0.06230239687703117,0.02221994477440623,-0.04179648033819733,-0.03149132161503582,-0.01364348103039995,-0.009873400074999445,-0.01250758613085724,0.03715310081095349,-0.06246915184008284,-0.02504812728810016,-0.04152913921179231,0.06072106542876886,0.04315507572005642,0.13409659751539463,-0.038205763985567215,0.05526213978250462,0.059802689879649415,-0.06753971034099007,0.36705763198902497,-0.01717686249615505,0.0689746062760645,0.012235383002123915,-0.028319458525981382,-0.053466642485892155,0.02408658885676912,0.050190663852955036,-0.016058765255616166,-0.01892541511203783,-0.010622894557767444,0.044621443018794366,-0.011767972552015749,-0.0804299686257208,-0.023693294512299203,0.08072135667141961
324.4494934082031,1.267913818359375,-0.04504621886603293,0.05421827722093609,0.015485175776979825,0.054073192299236746,0.007765224293801279,-0.3205287872716537,0.09290382744521028,0.024668934643135347,0.036667146404606284,0.010602159318813836,0.07658710099708499,-0.02273564233084433,-0.05190882514283886,0.015698513799639584,0.0041384419233838725,0.045023630772175915,-0.04213611892831062,-0.055045544207516305,-0.13385121562450866,0.14993056904856514,0.14488989994561774,-0.13738247871855225,0.0887732051159085,-0.1566256489051893,0.19067417670212905,0.059481782090844794,0.14400088814287781,0.26562365617693945,0.03697053251668456,0.4864177557527902,0.3247923500541188,-0.29010763293234754,0.4504806176060865,-0.12570808707428588,0.1553636433343592,0.10806496269761708,0.02400522080560613,-0.02412862701422827,0.5349786764759689,0.3247175278185781,0.27741313214997326,0.0945792328772341,-0.8242450939667653,-0.3750261891823307,0.03646936101858346,0.2372262660605526,-0.21305095497339516,0.06575569402089075,0.4710766340280346,-0.23584678692293493,-0.08802108643300353,0.09355491097048993,-0.39405230417866516,0.2646241138841618,0.1278639686606275,-0.031680851780938865,0.08669270421965757,0.023006195041508512,-0.08860859018162826,0.06734919803993829,-0.05576168989093587,0.05744669305142016,-0.03409492812073946,-0.03525804845475726,0.024055633473213378,0.007900861530665021,0.020916117698907093,0.034283559693377236,-0.05532316524496943,0.0007279638461605816,0.028989398309675275,0.04256049800778315,-0.04749976617483413,0.05178479563022222,-0.1109521227263829,-0.0756186769280202,-0.012122438195603435,0.024347956186382427,-0.00429021970944915,-0.15744259870231644,-0.1460659018924207,0.01590434424616525,-0.06505913129376731,-0.11762333268654097,0.1695080778662106,0.1819540903412594,0.04836778132790309,0.006150746934209989,-0.03121308963336312,-0.03939495899074533,-0.04639013514532285,0.1641781851623965,-0.041205555769335794,-0.03914249351660877,-0.020827462752614594,-0.0031030925500689973,0.0049815124203843875,-0.04038198259385726,0.024070347569146958,-0.019073963369124737
325.7174072265625,1.259185791015625,-0.008861183818428257,0.002176309109823881,-0.016900100212942453,-0.048305149404263496,-0.11140407339365264,-0.2506829085129498,0.013158718976293882,-0.047279121192252506,0.07049360658501658,0.06938911611738405,-0.15781004770716006,0.08243888092701095,-0.19008009850845678,-0.2293987330649156,-0.40861808814029726,0.11185763375411027,-0.05515537010746944,-0.3398782372714599,-0.11075500807214168,-0.27933706288321597,0.1442060755086218,0.08540621268882792,0.20537633787801907,-0.01080033837339304,0.22236634832271318,-0.28596423047086644,0.04592869598059775,0.22167785441037888,0.27539900252096056,0.011455500387419965,0.1801545545421891,0.1777142125911712,0.22737783415336152,-0.1070350059032172,-0.19977117544613293,0.19887527703036503,-0.446199673945283,-0.3011853236050372,0.19267360016050594,-0.3011111651668932,-0.32527986902715744,-0.015737106380587836,0.5577732006274586,0.47051483213165457,-0.45632816221300054,-0.2513549801075341,0.12553945255680077,0.12536894942828353,0.17823495290204364,0.04701357889307604,0.01963996981705568,0.11746998717720514,0.021523927547285403,-0.03590318253564835,0.06095490549408801,0.04571240540346823,0.11198985404603388,-0.08010357536956224,-0.03127945433753694,-0.03048951687220717,0.016796616892984378,0.022387477507873944,0.038201326658832656,-0.031013212422015792,0.024602659595467917,0.009080908250379417,0.023104762742277057,0.01844332802430837,-0.026592749488004816,-0.0005728865839878979,0.043278960068234444,-0.07620041159296642,0.019018984368829837,0.02805247893983193,0.014547374232925736,0.05358557237742738,-0.03285793476046258,0.027042686315628624,0.0029792555623719954,-0.16437579493769833,-0.03827173931871111,0.3805287716885029,0.464192532833366,0.009086202009567765,-0.010735833288535826,-0.16181610591248502,-0.016607839413885446,0.005730818609627819,0.04898047955947263,-0.040967015254087635,-0.05795604897357877,-0.02195543896933633,-0.029286099187662177,0.09977342825102442,0.058382329475930264,-0.008053230658769188,0.04025907940395034,0.050316273823517346,-0.012111146201195943,-0.08500369695165817
326.9765930175781,2.2672119140625,-0.07185598673255844,-0.015487865914691812,0.0003619668214367175,0.11649267159226848,-0.0317535646176326,-0.042009560168475714,-0.06784069171341942,-0.03993677383737758,-0.03356842190965885,0.08432784725426054,0.25522283962677333,0.15618110423914647,0.11446340356433145,0.11661029585536122,0.16083201131741306,0.08496686989346482,0.05077576571782948,-0.09178501498769122,0.05670613634667648,0.07002079391693013,-0.028829164183676557,-0.08254156297251418,0.31107493903572314,-0.09183130278248554,-0.18857636065854422,0.05416187184604042,0.29208583257178145,-0.28694144444174163,-0.24843174584029615,-0.19188008627718672,-0.1871176070926502,0.1440079269804515,0.19647036255853922,0.08389344156168137,-0.07832751923486632,-0.1209417762081566,-0.4988314609525117,-0.18446061591943927,0.3080426695721583,0.3992051032992728,-0.055244531974627475,-0.13535363841488626,-0.11670623194068022,0.0791749421789868,0.3069685156975428,0.34087730902226354,0.17560732705490717,0.01718250488404112,0.3164153157433458,0.40892517256659133,0.15866998094725307,-0.015563992790967238,-0.061628508845164645,-0.24430178496493266,-0.09245507037895467,-0.06365570368289036,-0.01595074488929713,-0.031241102857196668,-0.035021839685917745,-0.013527966299967518,0.025184259423590954,-0.02934227280197213,0.023841161370465252,-0.033487771992229014,0.00157748345552023,0.0900120684883385,-0.012404587785268198,-0.03890536974039894,0.035241531912682825,0.016352021674586284,-0.053338910828958114,-0.027858256958819615,-0.07592920704892758,-0.2175743097126956,0.06437703270108239,0.11005162377864781,-0.06254603082936944,0.323314770862047,-0.057170738799736394,0.20679040506706423,0.31753261620009576,-0.023360236405446776,0.306709604571218,0.06952814653603204,-0.03439568424386303,0.030811722681945094,0.04803436403958495,-0.037617514686550134,-0.055824579827293004,-0.05337928368329694,0.008993926995593541,0.005707354461954446,0.010233595387405094,-0.03703155958783829,0.20873100152047375,-0.09282300823380427,-0.14197026943332836,-0.04776710639392975,0.06111348645477233,0.01737823825075304
331.9107971191406,1.218505859375,-0.011143214952948705,-0.026987595865940267,0.00725319085618989,-0.046211272121855676,-0.0028005785135456823,0.0552126818133597,-0.04209600922710835,0.07438983068151785,0.11799580735488402,-0.09676733797037299,-0.0577057097248757,0.11959831037309952,-0.2738281910417806,0.02249770785308566,-0.25772169568292436,0.01369313921448962,0.3018925104942184,0.3836317940116286,-0.062452030054116474,0.3047836947990388,-0.11155120090607676,0.10882848840471673,0.2171102490522628,-0.03297293032719237,0.3437086363355828,0.16067669932352713,-0.39497912641864785,-0.788474447786451,-0.2104624362984419,0.11830134232558864,0.3940081603856393,0.18288187498731517,0.13604287680742233,-0.007942107170068685,0.16884627482516018,-0.15170970520246016,-0.22253433605246542,0.46038485939776896,-0.3867723127874143,-0.11714212567490073,0.4058290459679464,0.356450093619589,-0.29439020515962,0.2389064996683926,-0.38340514982497326,-0.1445108544100136,-0.19427639108761774,-0.23626763656090438,-0.28460309855219856,0.24116475586473818,-0.030312502813072947,0.00951939045083073,0.22646833324019483,0.0409722650944114,-0.022508783365098994,0.057354411396878954,0.04765175171110861,0.18516171039538054,0.03943482767051477,0.12672344582397307,0.055187978205451384,0.01483321919792631,-0.06459155171954953,0.08549526612064173,-0.02941138317966207,0.027796343612080065,0.06188005223238205,-0.019906234454203295,-0.1075603225708924,0.03723299891480879,0.04128613733105448,0.04212124980815914,0.033506290100719316,0.0909238729102548,0.006545007740290945,0.0008170781404073508,-0.1023414808166329,0.013119024660282348,-0.10762933322695387,-0.2037886633389773,0.14880212085516314,0.033512057381774624,0.0007875598852944521,0.04869775003371858,0.1088649327717041,0.00014659800879300903,-0.022366535252771352,-0.03885580171287759,-0.000188427481810426,-0.0019369807886061474,0.03256724289838599,-0.005088709532718605,-0.024887151441977735,-0.04082256804470373,0.044754094035076554,0.08087857549373965,0.013307949342770742,0.07546573547672203,0.018707484123811423,0.019600520196471356
333.1293029785156,1.218505859375,0.03210815112232402,-0.0014661943028886001,-0.002956219454793236,0.014248765556087187,-0.18307333246559981,0.05175885583416405,0.03169702075407166,-0.024174238540730367,0.013097289926568414,0.08769978354990629,-0.02149291632254069,-0.10958226055891498,0.17138507731562597,-0.008423208603227816,0.15997843655885757,-0.03465582465629356,0.12714532131190617,-0.14843369207863594,-0.3700398125344866,0.34542067823332445,-0.20927089970406823,-0.02306312625186372,0.24677481949559146,0.06525317704495986,-0.05430402921512689,0.3827236002535229,0.39399624093520136,-0.014987267486908193,-0.04914302050516474,0.23488986197200673,-0.3754497378131513,-0.05831343753636223,0.20958920508822765,0.12982623378194105,-0.10826178092206759,-0.07446300359277185,-0.3204009105683319,0.30264999219153577,-0.028837449568288345,0.5601222837514881,-0.03502104133925733,-0.26784220812307485,-0.6277684745330959,-0.023643634384039526,0.24660054463356956,0.5260006864342023,0.07457360242900951,0.4081409265819537,0.14573361757238742,-0.34095383855997496,0.13362061397837302,-0.24636905189179792,-0.19039307136298927,-0.3310970344935852,-0.1294800311243756,0.0955512222051795,0.16617541576194653,-0.14793800115666697,0.06387964578315522,0.12153751975829939,0.07522183808706662,0.12093238886850247,0.023751553193599912,0.01089663338728579,0.0016673790630145563,0.028104107600448982,0.030096421567256646,-0.029523069539232154,-0.11890773304593646,-0.08329490737642073,0.014904427781713851,-0.004551391332055436,-0.07054927199549105,0.007531305291367273,0.005587808527765865,0.0358475377736885,-0.005095584308913645,0.0014043133184198943,-0.005428795253854679,0.18923268973976723,0.06291007138560008,0.12005762036744987,-0.06497233236211891,-0.10556456440923209,-0.08853046848800504,-0.06320010866545411,-0.062034360800138966,0.005008184388872982,-0.002462367663687257,-0.023554233944188138,0.039307051849446537,0.04412996547689535,-0.055272426327104836,0.04757773993196178,0.041726154962314486,-0.03445852696289333,0.0385517420231218,-0.04394167225603103,0.02265200237260703,0.11981073689930054
334.3478088378906,1.208587646484375,0.13000674169375181,0.036283885442619124,0.045581210051577524,-0.08179508160475349,-0.07642234455704142,-0.019868603778027724,-0.18563812518928374,0.2286231659090666,-0.020771296133965243,0.011918414332326599,-0.04736792256651458,-0.018128874918609258,-0.07380861694018741,-0.040897961781318166,-0.045499641250093995,0.2426370826034528,0.2223924654375518,0.010865366007010862,0.24402398801011344,-0.5476663696532141,0.05292185321438197,0.11412510884778372,0.10431163437287684,-0.026393578732789028,0.10448881787889262,-0.10273656813036312,0.22136921480024083,0.006009826274465099,0.4855129458461087,0.08365887591673304,0.03359831238636424,0.06430137589116174,0.06971216886025584,-0.008057527838793838,-0.22540056970062855,-0.18806478996605186,0.15590996809481336,-0.1697881429671682,-0.0692976948142397,0.017847188030213845,-0.3389069271646546,-0.16905855225135882,0.038227262989394856,-0.17972065172322782,0.21932721649148623,0.04638317287648976,0.2586315898948218,0.10262434118587686,0.4096280175211084,0.22736244035882058,0.20240842310532875,-0.236037806518045,-0.12418086598109628,0.1022130364531877,0.03773726401537883,0.11046932114606753,0.05916410824496309,-0.05627266941601178,0.01030430972005805,-0.07614833680387154,0.041577778343914365,-0.024890491032434625,0.011132354967043533,0.043253989400412154,-0.039688304293009964,-0.06181646658693816,0.0065359397423269475,-0.02685760832585083,-0.0015200700181737302,0.038864681750739066,0.06550641449514377,0.03725347028696396,-0.023015844961243592,-0.03480449775912048,0.07802053743489415,0.10798866379979669,0.15929032237395574,-0.040120654321673055,-0.12613138268500473,0.009675275026790891,-0.048829132783211764,0.28555538448807655,-0.02759048966794755,0.07704691821164902,-0.0018126594849831564,0.035123248220846455,0.028556822913770985,0.034873017821398775,0.02339890457445839,0.003190932245552678,0.06954798330154227,0.03291974201640593,0.042322402052364226,-0.00387448308959527,0.008623167531435784,0.025473472071463166,-0.040904152641056034,-0.046582494911318065,-0.037130629881175034,-0.01261068419896538
335.556396484375,1.208099365234375,-0.0037018145941166425,-0.021047179632483207,-0.03341333318134618,0.005730511826479524,0.025430075765893664,-0.18024729932578004,0.02135857735241822,-0.031956126030884636,-0.054102627918437424,-0.1529473272403688,-0.035459304928556944,0.5860235120591374,-0.1626400841230053,-0.18331615209504007,0.08257002333106467,-0.09900138686815053,-0.2547327023823143,-0.007732049303364744,0.1674636407388874,-0.343608450085368,0.368923799452184,-0.2364567222308835,0.05138536813230592,0.020029759808402586,-0.08250935090807608,0.08737464820822312,-0.31468078957163925,-0.610177564447154,-0.01598698523152926,-0.38308098754429937,0.303423205886334,0.303833204481838,-0.09774724458972128,-0.1904566818991624,0.2077157689186165,0.216984904323369,-0.15428087168695492,0.08175374975799207,0.20330302844848133,0.2885202767854514,-0.40166657644818277,-0.183726815869296,-0.19147269503624992,-0.135658596948994,-0.24910340299069272,-0.5799973350923227,-0.478380078271317,0.07531759152498871,-0.06274989158237253,-0.4543709713625548,0.17745094713925838,-0.12851112241475598,0.01941627475197847,-0.005804776124129871,0.07302570207959666,0.14551739768777533,0.1201571516262601,0.012840887709159476,0.021541863534501327,0.030792467912647573,-0.07027124479582449,-0.07622746495993772,-0.0024794206717138603,0.0881338072923363,-0.07899676097287182,0.04654175461391041,0.05825794379877833,0.06446448916105767,0.0061895984944314916,0.010949547268188281,-0.024754504712523343,-0.05600573505512163,0.02932372060091655,0.02344599258547094,-0.03850981268260861,0.02168302178346221,0.09151327056452062,0.17074705048795397,0.04710982410912461,0.07039636028629495,0.06374688091342795,-0.06232768633903596,-0.06553032450465131,-0.072552651883717,-0.094703891338416,-0.023380414810595926,-0.054883157535132496,0.005956196546087995,0.03788230932613286,0.05050299399903303,-0.036256305787382655,0.028024637464805796,-0.030378690453414396,-0.037220879919187294,-0.005515769543195874,0.011404021558153232,0.06559690416045175,-0.09933110527011027,0.006280591551151238,0.0549115682379681
336.7644958496094,1.249114990234375,0.06129708901367091,0.005616495446895601,0.01183275645416888,0.07484975259766613,-0.0940566372614485,-0.08053104198367027,0.04722542667737706,0.04065034293263375,0.024946566390538973,-0.03848585485001774,-0.11331317616750866,-0.3148679362279012,-0.11801789587136072,-0.037824127280819624,0.05770288245199941,-0.07520763142363426,-0.471088982367705,0.28040053955248123,0.1498021490974915,-0.10463311693430807,-0.22820841164119704,0.038687570920869135,0.20724681901913164,0.3784445590140775,0.37327776605914553,0.1455015126821089,0.1554074891683092,-0.03657127339192012,0.1317686676364643,-0.11831445986262173,0.2735068109074736,-0.007091292132936779,-0.2604924681864155,0.10230944280093165,0.1200552529674043,-0.3261174729895784,-0.012457354877549703,-0.2610751280979388,-0.21616829654065745,0.16526642852100334,-0.013749964719344645,0.08574996494891728,0.24777830101481904,0.041182803442311025,0.41340053167100893,-0.4077195005536019,-0.0768221928117877,0.0833250705755203,0.15558182719669336,-0.03902167441116405,-0.17212387294810444,0.0331806659097347,0.029569931358087824,-0.09988142004108125,-0.11652180242644435,0.06272798161427959,-0.08422750340444048,0.08815068445766823,-0.00015889041861747995,0.041812080969571924,0.021037965013575445,-0.04095653080245702,0.00811671613092481,-0.07698215652195721,0.0017438793465196299,-0.04201488690482585,-0.08832713106385605,-0.0031211729291266005,-0.02569220808294819,-0.06587560386554833,-0.026989753381612788,-0.027101862412974985,0.049803474222281804,0.003753953346040645,0.09002539838021968,0.13059817666918944,0.12384765536716513,0.04190211144567341,-0.20119957732603522,-0.07862552354842352,0.1680184743206153,0.11532692449662063,-0.008468083051006176,-0.1444155970656696,-0.028199828481586618,0.0005115979412551734,0.0026732946907566104,-0.1214495929211623,0.027157851634358538,-0.04301734531495296,-0.01734598130136509,0.0052283889659459765,-0.03359253455851512,0.017620319676554117,0.03017682699979301,0.006069205579667808,-0.007406803852728919,-0.032181129885509634,0.06828671241012194,0.09160884384242068
338.01361083984375,1.338287353515625,-0.04267862350812332,0.07928418625188033,-0.0651847759397456,-0.09667823554191712,-0.04191030348954106,0.07890668145055882,-0.0054924002765936175,-0.06828776343310211,0.049812781602903436,0.05070245530211678,-0.06179584675755865,0.1181339277626288,-0.25354041765736873,-0.47169439220215,-0.05853047289414653,0.043031434212300324,0.17655197512172643,-0.08629405992608706,-0.1850929709440641,0.10427270213721171,0.04438290596014027,0.010506225003098106,0.09648345807592651,0.14635217994563537,-0.14159227134295635,-0.3634388390637994,0.04157987206126784,-0.024915110739750636,-0.3408918074896378,0.14807146842407135,-0.124980505185837,0.14929298821882314,-0.06951470132339907,-0.18128028536940038,0.11086847781327891,0.2975315797575353,0.11920641888864048,0.356776283212985,0.16017241823489747,-0.10857517326610115,0.3912198326055076,-0.04850977539953252,-0.1486542491925101,-0.09043904864893235,0.11531723602046867,0.1958372085530433,0.26768597723744514,-0.061764302177979,0.048030688679899444,-0.07905267445344895,-0.2007244360460112,-0.1248540252822172,-0.1197099376827303,0.10834196768523005,-0.13905902105963544,-0.07227866082564495,0.1599574681364252,-0.01631736012675354,0.06439368970237644,-0.023095384687526598,0.014798426704116546,0.05537788416736045,0.018694970486341077,0.037405917643178556,-0.07532924588944007,0.028857319135427925,0.02356607116772064,-0.004702613013983691,0.04923299377239548,-0.07557213361472347,0.006951718834487017,-0.0498835447610162,0.0861331172873942,-0.06557869116753036,-0.00872391736463874,0.06423940648609211,-0.016032127848129324,0.03358181028695148,-0.10836305606078339,0.1413868061633277,0.1637278810123012,-0.15144681533214233,-0.002716221546436179,0.10882421993164754,-0.1900205901103612,-0.30329095680470836,-0.05413546000854913,0.07365326896305488,0.002698759272860302,0.0004167550127190416,0.006917424435984689,-0.009320242487473372,0.027721334099892254,0.05007896556977241,-0.0094297241926097,0.09628601738814885,0.22114952482071437,-0.0766561725227322,0.01680002324124856,-0.03308637322634756
343.2373962402344,1.228118896484375,-0.05694787883756851,-0.049158689024791855,0.05793817081429355,0.04914815073367852,-0.01949424208079043,-0.05634530679035097,0.14790095164743908,0.14731004917196056,-0.0024065108285999184,0.05108973457164026,-0.04219826198724481,-0.07643572163954793,0.03492243874418541,-0.1602225352695349,0.2144348146404741,0.13189069156648414,-0.3399807576372325,0.4127593015976987,0.0645940205583207,0.036058053513816,0.15746300934606888,-0.3418861279613007,0.057911361979052764,0.08461606510955193,-0.17546096743548165,-0.09148611263173084,-0.05211269265473421,0.019176532091595425,0.08689353898539304,0.12263123224958945,-0.09508956465289721,0.275521813882574,-0.039516536370083774,-0.012079055922238943,0.028602781054064066,0.28576897165991694,0.6811869916635306,0.20795885940363856,0.2707056750255155,-0.2337330801126834,0.42381051076254694,0.41978548369978064,-0.22391430499382667,0.4138930496510612,0.1906562470614613,0.03707975322780244,0.22521873356083744,-0.44824716378556173,0.09336579580220483,0.21763677536438486,-0.09928510599772089,0.2680002534783101,-0.1330589929577994,0.09678380448254303,-0.11607102849797794,-0.2603647332192421,0.0502026248947293,-0.02439871475906252,-0.011955516603340214,-0.0958719865378518,0.11945127119482678,0.06688075276911232,0.005719281245655326,-0.006687837705415436,0.05303267602163003,0.0413301562361556,0.0010486868086898443,-0.008776999230635168,-0.07888468206717641,0.053509385817929495,-0.06062215374668111,0.040127461871848805,-0.049792266729191084,-0.027905177788113158,0.07896323761556026,-0.02260938898464544,-0.029303290380900418,0.000285964838566956,-0.17919768892775492,0.08085228645287415,0.10099501135974512,0.03723462151014218,0.18994130405757298,0.14162984426235808,-0.02408808502063696,-0.029247954708108023,-0.012065660211620727,0.01270309602960274,-0.060151281459901146,0.060890904313839554,-0.06297925763560991,-0.001409545787648664,-0.05166070537010618,0.02213623028353924,-0.0436636751079995,0.04227567916759109,-0.05854733481133387,0.08299690517331651,-0.05516390170565801,0.013875374245010442
344.46551513671875,1.258575439453125,0.023882756334770043,-0.09869250092856506,-0.05894652079324941,-0.07254979337950873,0.08021321823367422,0.03179421811319991,-0.12449928843324634,0.04505897694948639,-0.010456252198875398,0.00810343970298005,-0.009744778492836387,0.19115765399008183,0.007208741799517748,-0.33183940198469875,-0.1821947174724493,0.08169966988406453,-0.16106387551002352,-0.44377772250173586,0.08053990338520103,0.04795588159255617,-0.01614276717718363,0.031575075313089764,0.13082576146138106,0.03593311043772661,0.0675225367941797,0.0071538046750987475,0.17226231742235845,-0.1292748635401641,-0.2568032620302017,0.08638234729098626,-0.010956434061010573,-0.17997211031126945,-0.03652570398471133,-0.23211702950795776,0.2845861668969012,0.20029394655434418,0.003657989925877639,0.20969656739650158,0.24394065427680447,0.061490796808419984,0.08252318877823464,0.07084039451132948,-0.029456484341423367,0.07782691152006388,0.1359724062132826,0.24207848859225078,-0.04086106936519973,-0.1754234803409136,-0.036347327985350564,0.204711644547308,0.07893198410343441,0.012089804002345592,0.2873739649694474,0.04070701803790724,-0.08096330130025883,-0.15124360003133624,-0.024828312371842978,0.06716994226661856,0.09701391603425868,-0.09414770804830407,0.036448932484079044,0.04099144427862562,-0.02593162129177485,-0.018422333209826565,-0.031338632895865456,-0.11459065128382112,-0.06603348726550394,0.06953429347415303,-0.00776869944370542,-0.058226334885172294,0.044050319424244186,-0.011906950279402527,-0.013129903062367092,0.050658504195373794,0.04067500271530444,-0.10197603361803899,-0.07333458781135903,0.06434568212873078,-0.06951064727692838,0.010716186878215614,-0.19327962280434116,-0.0008875447742608261,0.15314476120085752,0.1565904204821044,-0.01579558048094081,0.03808409084162398,0.015169649149566118,0.0029576420910556313,0.004898334046288167,0.00029438698038467204,-0.02136213383937114,0.0811135721780132,0.01719695028141572,0.03609960993644483,0.03389686242954147,-0.06752734204630283,0.038322860071053365,0.029220261017943977,0.048222862379045384,0.034206035591433266
345.7240905761719,1.239013671875,0.04096747857970329,0.036209192096354814,-0.023700683507208876,0.013306324343286253,0.05179801517946644,0.03663544036348411,0.11498331442490581,0.02930828814975159,-0.02170498972679628,0.11149626968161147,0.06723069064147695,-0.049363803666095316,0.13440265784654035,-0.012023891299095799,0.18534792789582244,0.09400150335181719,-0.11803521980843618,-0.16402189978333453,0.14349875730992787,-0.05384896681171114,-0.028384407419712473,-0.1803711350421723,-0.12810339102387705,-0.16720894096219718,-0.09216623397884317,0.10708007871943322,-0.012911724740046917,0.145654030285966,-0.14572587689524585,-0.08043819880941588,0.30754343796377315,0.09951719228389196,-0.1282706307845286,-0.2012694446130183,-0.31999209964837994,0.07029894010155811,-0.06775307511653114,-0.0542957589060481,0.10993893926931556,0.0035882601580776025,-0.09237187157505428,-0.20494841311763887,-0.5155166385530039,0.5930765097792879,0.4588991050578097,-0.2516427855217098,-0.5291646789139718,0.1633272884764649,-0.13123090163567594,0.2138784462145208,0.03955984662812332,-0.4120649546142656,0.023695537432025904,-0.46636758781311477,-0.06238368096459262,0.040694558855183395,-0.07944043827319049,0.12231961000163527,-0.18178681286293333,-0.007631648657559405,-0.05309474351978161,0.009032397199600833,0.003951821888576056,0.045111255554410014,0.036419934804666626,0.03748107205110066,-0.010298963779192857,-0.042384278678776345,0.09127011964403679,-0.03547188309891583,0.07346735411811467,0.0059311580839049765,-0.02575636221344034,-0.008951190448053965,-0.03392402744221306,-0.05438137043558679,0.1290895474253701,-0.045264978925467256,-0.04776535447918858,0.017362165997919635,-0.16023447133626495,0.07035046590012181,0.36528212850025443,0.03271302697023987,-0.06265153972414134,-0.04821146503357832,0.0470950272449474,-0.00688208084996022,-0.0003367682234680558,0.003786933278100861,-0.038391792271566194,0.01548617722331444,-0.055594141823728585,-0.01736944896691644,0.03462729995997842,-0.046406491569328454,-0.050350186503056935,0.02810626214317885,0.058108726101986814,0.028011019688648893
346.9631042480469,1.237884521484375,-0.1111695602681818,-0.013678405395410447,0.11835752240908914,0.009318840043258579,0.0035734484203968336,0.1679135959289078,-0.14913078655033368,-0.11125035141018935,-0.00571225325434677,-0.013102555311249516,0.045109610121458414,0.1684319898251913,-0.022946425550808353,0.009822667339315371,0.09651876828395464,-0.14801636969026,0.1471935071132227,0.07232465347559222,0.01542498094716907,0.19666923632797206,-0.027152569840199148,-0.008384904735852445,-0.2592943040727591,0.15129483598656557,0.019289523992640372,0.17720254489928425,-0.150314111099132,-0.03834262813967804,0.08680146865234792,-0.13387452459638058,-0.011595814076047428,-0.10093872758460912,-0.055319247900179294,-0.04341925862378345,-0.09816587288321578,-0.19016782490491432,0.2650267166199155,0.17851971546309373,-0.10638009284008038,-0.06189576976679234,0.24611636544398216,0.26945290544429584,0.1167663458844518,-0.12373471216841295,-0.28341360178122,0.3592912469630643,0.05778729528799255,0.21724065165847123,-0.11366900005751382,-0.04647712491418975,0.018060426419414077,0.14674989047888753,-0.07382913060552508,0.017536879484888718,0.046859516019150935,-0.08473678527989302,0.003794088884747751,-0.06806032085652333,0.022916268211342933,0.04295045646655271,0.0218799178790358,-0.023909528853776715,-0.0019359708335689894,0.04601404169393822,-0.054899492844030395,-0.053699620992359795,-0.007813543280644156,0.020620589558098,-0.07286200269206206,0.08429208677382671,0.0801147029545319,0.02856801438992311,-0.10113676651132184,-0.07264630173804339,0.03573393038754416,0.029933664725671376,0.08532435780883717,-0.04357776890299942,-0.07719419429910701,0.053952733260539995,0.0005166995524735762,-0.09486854826615936,-0.08383655930180686,0.02229263243106888,-0.014900963215277585,-0.008210700036928273,0.10280630225694744,0.016760064074742436,0.036919787536241644,0.047736935602679255,0.09114475053527635,-0.024696318703976636,0.004905492063994196,-0.06097231904231674,-0.00529430974029553,0.01779548400571077,0.017401908072669933,0.0014432551943768918,-0.0931155223843837,0.03653501069922699
348.20098876953125,1.49859619140625,0.04511501591557533,0.02882151589047412,0.03845190657988697,-0.05265150943944695,-0.0864031164272663,-0.03632955680873325,0.2959889878132865,0.043946909887457496,0.062097332456275856,-0.29177309984024274,0.14880407227080403,0.02952269891529867,-0.06405868271597738,-0.17960976801102452,0.07614101667755586,-0.06617638104088809,-0.1396497989708731,0.23029430235228637,-0.051979424174507544,-0.10481709880499203,-0.148217313983658,-0.021200926091969455,0.1085685736038068,0.3380168207817411,-0.2188056352125443,-0.061454487861620805,0.44248537466074706,-0.11176857608011273,-0.029305275375587934,0.015281952094677073,-0.09122000320090887,-0.026355723180486196,-0.33724375777178195,0.32463105953517996,0.4371442814414775,0.18849677684138716,0.20615890033366183,0.16350003538735083,0.0979448190857612,-0.60632100022515,-0.4413941105666592,0.6142462202251883,-0.27779875814044663,-0.06108063694538607,-0.32591529315637424,0.1289654653210081,0.1602538562702595,-0.027835490867532953,0.14313553679091517,0.024748408330447086,-0.3069155407159685,-0.1870677719961525,-0.020132669849273692,0.263886063189872,-0.2666392857269224,0.032252573321054065,-0.04672330570119127,-0.006296948121811716,0.010417689593903698,0.018544473644556168,-0.030374491682189128,-0.022805762210882694,-0.06582250515281625,0.06046026720769651,-0.0042637108732949125,0.01717819540762306,-0.07307744700583592,0.02008960863641837,-0.01108997736113129,-0.06172039997574387,-0.09252734665438489,-0.14455820290484878,-0.010634942213886958,0.06159514834048985,0.041203374787556486,0.09048915021873423,-0.09882366579078736,-0.05976393931944633,0.06941170358136556,0.007507698263046897,-0.05976820139723565,0.004118073768636755,0.03692536084888207,0.02017852554263717,0.12615082901843816,0.029794169464406994,0.08875395961874859,0.010373413972556698,-0.010757340245054722,-0.04831794044757801,0.02789227469926521,-0.10650574454635338,-0.10657455840351918,-0.015390814410158101,0.04501522918942942,-0.0566438315094195,-0.03600813434550808,0.06621448315036298,-0.1753675756957585,-0.17931735168883775
352.4461975097656,1.2388916015625,-0.0047266868837258155,0.07520114928236651,0.01169571804471686,0.10133197089224194,0.030920810783268842,0.023378250935938184,0.0408077456676815,0.09291338676984914,-0.028029640759882853,-0.018948176026724724,0.10161453606157056,-0.0036140641151336424,-0.21423840763537147,0.02917071758538564,0.0013088614449496272,0.008037759310662529,-0.2355877422233687,-0.07397096554842464,-0.09483205613200045,-0.21914823123084307,0.059625833475721396,-0.24787741535764268,-0.07034462379116138,-0.02945252962841389,-0.03894265831681625,0.41230785568010253,0.474046272242063,0.026897295334717894,-0.10413774024223299,-0.21878699453656805,-0.19934776517505615,-0.25469904631727247,-0.24884604326775622,0.019043304753744425,0.21291368656321336,0.15052591934970538,0.401569804089903,0.2652038735462076,0.18507951073482554,0.06928784407047436,-0.03900828698834697,-0.026637347934644118,-0.5020648146265314,0.5302617634515496,-0.09408172688291798,0.30177981455759056,0.0178334019710477,-0.25649093212306595,0.02959915622716769,0.1327457227150856,0.09441767219404185,-0.06383745157451057,0.02451129622940123,0.13947093045588288,0.04807730589901138,-0.21040753314881067,-0.1244821033655391,-0.024549698136017248,-0.12257946736585838,-0.003239077496820549,0.023056299880067542,-0.06852430806421857,0.004727138177220189,0.06890519403879627,-0.08257722315169129,-0.06926766282436121,-0.06788902750626237,0.05765626379538892,0.06532854635189699,-0.033060915121091924,0.009307852900163834,0.08307149724371574,-0.04253057404010416,0.0069734939954414505,-0.013361367045619035,-0.10011885075604848,-0.042683824102032614,0.0072634067049587225,-0.10565155069537677,0.12035765382225933,0.16692031226140075,0.06675290276305341,0.1597318472731621,0.04290231286828164,0.006778066718211226,0.07242145679966486,0.008816641791464625,-0.030708536316868488,-0.010245308497611214,-0.014348794967566164,-0.001118754227382721,-0.032295342923829226,0.03661724789536177,0.03955062355619135,0.04076397832386637,-0.002192001588521869,0.01134577045550999,9.929519805654784e-05,-0.009389348935878103,-0.023708426910930495
353.6850891113281,1.188812255859375,-0.013217889214719045,0.010997306777636868,-0.007744115675227231,0.06874384938379009,-0.025482825882983954,-0.03125527629400035,-0.06025211386834584,0.049622825262553516,-0.005534956766840656,-0.15154912037925694,-0.2137798147839672,-0.024437466522659393,-0.15472380025121715,-0.0213290913777367,0.284392385085227,0.002651090664520673,0.03897761425502702,-0.00860648905426372,0.036225909138035785,-0.26377982931541283,0.07236221166891996,-0.2214410966740864,-0.14475361269320758,0.1769755374555386,0.05339647679081955,-0.25651267699487607,0.29673872335461304,-0.1430003378952256,0.10319077256898897,-0.08053641186149565,0.08320965454872283,-0.09128958625103749,-0.27147209015943435,0.4103096315057073,-0.039941288389893,-0.42132877004704217,-0.09948649568134171,-0.42888355851822135,0.0820162638392895,-0.17121878595387352,0.22206410320359268,0.22303490196073106,-0.1964144732800923,-0.1048714073853261,-0.1381639616739585,-0.020131877072979542,0.05196662706861261,0.05273324425263998,-0.40540449658176636,0.146343409638473,-0.3062312310436407,0.12678889183892456,0.2538385076572342,0.14585709278113396,-0.22109807966929443,0.1478916306494189,-0.04972463889185622,-0.14721174354655067,-0.031595832385193215,-0.08618644608657396,-0.01639777883447063,0.023967863399384882,-0.02856682799362016,0.040322108664993334,-0.05269379446774899,-0.057060605014638846,0.022612386128892922,-0.02231444935203418,0.04735958319622473,-0.008098481668040863,0.029017436196028007,0.021266849414475535,0.02919270767026127,-0.03589553360373609,0.038488431682382744,-0.0016061712852652775,-0.005611400683164607,0.017749385261066973,0.05712172920645253,-0.01129348406988856,-0.034983549362377714,0.01643590785998749,-0.15170209884128616,-0.07077911382682367,0.06279398417942289,0.08880247375044327,0.005757195164525664,0.04993927501249945,-0.006500420870055001,-0.05646722221726354,-0.029956821069782903,0.03341149098216444,-0.03352047825899399,-0.04281437590506926,0.0011524283178723322,-0.003422762733745184,-0.10184114053107206,-0.05393295954269491,0.011700751566302103,-0.11172808157997098
354.8739013671875,1.20849609375,-0.10996262822607655,0.015259923645369223,-0.057160120835985345,0.13324669780406406,-0.038803056390407105,-0.09473630565001677,0.04325774571796258,-0.026620655137847067,0.006711949403356975,0.03565574917813575,-0.14658362311007472,-0.3624302745363941,0.11905030092976181,0.044097583451202474,0.04106640475648679,0.05013205875282532,0.04659968317977057,-0.10568180618151457,-0.13043209553791546,-0.24121199295921567,0.006994306514449359,0.09000082433067391,0.033626902279072265,0.08193519837150623,-0.06878080884298138,-0.07353035236517583,-0.13911093843611513,0.17195696497334925,-0.41040826868519215,0.18181598975082713,0.08489443210008576,0.06916324219627543,-0.07983768244753182,0.06134331164587149,0.26031905807599637,-0.10053807103419801,0.38854469751191256,0.09206341263645926,-0.1435481527903244,0.11790031634937387,0.16185398909719734,0.09783344041975732,0.3587258418446978,0.47445337000469806,0.3614601481216017,0.22141898362281207,0.6917402738725693,-0.22115785952312636,0.23820040343703563,0.045869146075703596,-0.3209568013249344,0.027562139211180336,0.1176849568021826,-0.11637722245769265,0.11470718333082539,-0.22622341383257188,0.030144661796930802,-0.027459001769536605,-0.01838953408492067,0.004589939191452301,0.016462874815496995,-0.006007744330943039,0.0017651061493613768,0.040704085735328334,-0.037892480077014165,-0.024784811590382025,0.048411753094244524,0.024398607682631787,0.02224480947049659,0.04657705031733239,-0.021602164175033474,0.013609969327854583,0.02865737115672682,-0.049641607186290404,0.05714046052178164,0.014066519781149605,0.11811950312008349,0.006515086729216331,0.09213962401789019,-0.2164624910651746,0.017743085487818586,-0.06283852594197725,0.47846286074433453,0.17313342342421412,-0.07779445484139028,0.06913668109989081,-0.042126403465951874,0.027700932010306534,-0.021272641205496337,-0.013789568646463614,-0.011543348120821237,-0.008752127865375695,-0.03527675489741661,0.058137566202408286,0.053562317619418556,-0.06829954990583036,-0.04285552646661456,0.029413612928190655,-0.032524041559053474,0.006662806808493196
356.0823974609375,1.248291015625,0.02202579341481148,0.051747141954236825,-0.0571609159138551,-0.0246405859877556,-0.012518273313724014,-0.013943233830245594,0.07594936342082124,-0.7301147788285943,-0.06959833672172669,-0.03537769049728039,-0.1565313362817327,0.051860734457411545,-0.051027822010943844,0.21246382742833408,-0.31123035118288445,-0.0864487777510028,0.039652093270503085,0.3197493534122971,-0.15180428776416346,0.0182052788135448,-0.0005952830961428023,0.17719240307023018,-0.03670825382564241,-0.16137373662702265,0.3265708091836422,-0.35057037846538996,0.3265237686816536,0.11850206980973516,0.09053229124695976,0.11293734003868156,-0.06807868603688025,-0.12844111943455003,-0.21034141847447865,-0.2963628929483527,-0.16841506944961074,0.053252685251324254,0.2567038829139012,0.27650998979271985,-0.06495148556350502,0.012377094440159025,-0.1013239748726273,-0.09566546454991519,0.052912975050960785,-0.305658438790672,0.24891584408954082,0.06218430215413921,-0.3859641414414325,0.1443362758803491,-0.1730658206880235,-0.17686190259205944,-0.09503897373465608,-0.40647229161644005,0.25937848291017673,0.19379173795535068,0.006686881570818105,0.13874165401747185,0.01064983372311338,-0.03081438106772423,-0.016789706918770825,0.04518874059992296,-0.018284257771630747,-0.009100683354829362,0.032937363223228384,-0.041127896122987874,0.08592586451124719,-0.004924660085228636,0.11677383916789535,-0.08299122739088477,-0.05023928732004373,-0.03870319633575474,0.04082269418257407,-0.010496329030796633,0.008463359496141652,-0.004007340880586678,-0.051335660488298566,0.13457668025704,-0.04130752398493654,-0.07601606782224989,0.013708063483151664,0.37632572305162576,0.2959750253669149,0.027520300962159776,-0.1278455936078178,-0.04407848141783562,-0.04430894289406869,-0.06073242960237976,-0.0016354004741999386,-0.08721614531516661,-0.041371921627237754,-0.005095148120572753,0.01933251853471806,0.04014927482959914,-0.014671305249139094,-0.0036300140075799514,0.05113344438665873,-0.036684352423990305,0.02965695848159062,0.006989555299432092,-0.08551946609154162,-0.041834136600093635
357.3306884765625,1.228515625,-0.03755973176860994,0.03153114225921946,0.030608961720595195,0.045864562878335506,0.001875984329618649,-0.054790360555479305,-0.062165804591442136,-0.036249605001131155,0.01366117315523407,-0.15431289089991743,0.09718022855608463,0.11426114321379673,-0.37002619241410295,-0.1321945188440198,-0.05291948121316942,0.0474092999768399,0.21673551114075948,0.1607020804123629,0.11672128899447631,-0.006980480295650446,0.1576110770725782,0.046983286128230245,0.3320941697244624,0.05248908630891663,0.06312132823151564,-0.2714850413078582,-0.024640726088403883,0.09169622448388151,0.342356582735233,-0.31352068525822185,0.07895803305254703,-0.1489584729498187,-0.08972963035763637,-0.015079551448431538,0.004595101503544386,-0.1410195422087072,0.41047672721654815,-0.09788276763947938,0.18459325063863005,0.0034174383031658987,0.10632807318388586,0.04124037129991956,-0.15003709437315715,-0.04468551059590835,-0.07256520419965752,0.10094503158948108,-0.27275565998747614,-0.5050869054962842,0.011753663792490654,-0.05304947586352808,-0.07717325095629148,-0.02841810107973702,0.003733534637011239,-0.1066053342005531,0.07909133493437052,-0.03483097349171385,0.03596066663696671,-0.09587205767088838,0.08765650245882,0.0253058443895975,0.03573124240289572,0.012314131102534796,-0.0422825552229117,0.07291254521640636,-0.0839370945296208,0.05514245917342017,-0.07437908534922341,-0.03257821231182828,-0.055769067572300546,-0.1116793095548792,-0.028282138315280415,0.04978095832503999,-0.089790735867858,-0.030445184609537754,-0.007003418773237263,-0.03793550406676272,-0.10359494789093615,-0.08490461275225882,-0.1738251260159597,0.18421641634501748,-0.012138131328278519,0.03343522976399683,-0.12214723502119373,-0.02812128505556333,-0.04786293650852666,-0.005285224786700401,-0.05252609895874691,0.0037820444580926142,0.021047118764938828,0.048670763594148785,0.009304903367205256,0.02369701976337115,0.03244880176945425,-0.04380762207508426,-0.008506162000778594,0.000692825913182149,-0.028785997810050267,0.06933817234838012,0.017934697884926788,-0.09089637196328862
358.5592041015625,1.41839599609375,-0.08204581579521426,0.01257180125032866,0.015876823668438053,0.036704760277221735,-0.012363896847015703,-0.38471397902490606,-0.22480802470822225,0.042338377607842786,0.10629314774380885,0.12017480154575204,0.1849273222706685,-0.5324729443152375,-0.4270428205501461,0.10920124020639857,0.12615940935021805,-0.13929589652068702,0.1816526942315687,-0.013713092142690647,-0.053817451808057054,-0.26335857494957,-0.02954158988445243,0.14174905098223847,-0.27006366517781394,0.049886776562524576,0.22742364597768258,0.1912977197083795,0.32965717697808494,0.15929364952729452,-0.21071037739225146,0.024776646603708045,0.021857804754533854,0.07949452934383061,-0.14035114909061608,0.05672493773341876,0.17158920476333062,-0.11885591264393627,0.2356554646361681,-0.3939539745313354,0.07624740982288253,-0.39475007352741853,-0.1899974123593847,0.08689597326433164,-0.1703894216953946,-0.016955032450361826,-0.18715394434988797,-0.3863054737390647,0.45846672689238455,0.16593220404163808,0.007380291722286545,0.12217750600302801,0.15959315192395707,0.22240622002235041,0.0005864367005535597,0.1963242137683249,0.019336495238427957,-0.05789975408395468,0.005702335968566457,-0.00972038923210167,0.018682633379952195,0.04516152832861799,0.025810859292608054,-0.03714026383542804,-0.0015773748868416117,0.09989345445645535,-0.007822979357835444,0.0020278997522324826,-0.03404658030293864,-0.020560505250549067,0.027777580614030642,-0.015279136441918043,0.01642486150921375,0.0019314197046321753,-0.011342493906594336,-0.15132503971465797,0.02778264905922543,0.11386345466336688,-0.028754427773586638,-0.09126750979658049,-0.0048502214488790685,0.07714897100285528,0.011732311374038476,0.10378958638189308,-0.06177661206476377,-0.35305542822444164,-0.05964599860603967,-0.029587228199566273,-0.0043435797833346265,0.005455938013447936,-0.10207053956206982,-0.1543250579815593,0.04336084089983711,0.2930667777857424,-0.20705235796228583,0.02180582392154254,0.11386399342885163,0.1675614693359364,0.0866477725709455,0.028397370349954015,0.03822260145050653,-0.08919921518198715
362.6044921875,1.228607177734375,-0.021893735313010417,0.0010148053451779332,-0.00011872814182791561,0.014866454887177014,-0.030974090673140355,-0.009612274720117168,0.1353540755285819,-0.02849772566579753,0.0013912152921439105,-0.15352663019063637,0.01834262074343044,-0.07783480838864434,0.29352799311210614,0.1220055850358595,0.26419636528568,-0.0058836022949271885,0.06790148782022327,0.04290506856426293,-0.0753818429984605,-0.15123616617444052,-0.02332676365838773,-0.4072554985088746,0.17718995298169563,-0.00923434212733125,-0.08624671369703464,0.102284181983721,0.023812372359703255,0.015630702973557224,0.029039394178141116,-0.03837754790065502,0.04882660953452779,0.013886529298121418,-0.2668660859266203,0.10151791498363308,0.5378342915513016,0.052474618382228624,-0.3385998778831961,-0.7513058057220962,0.26810398540088437,0.04727318847784425,0.12471610594810406,-0.6228966901138294,-0.873342996294585,0.33587917790623734,0.31492553836270815,-0.46257320268176333,0.39754743558197764,-0.11084769229268407,0.18420472777985655,-0.05653610622911877,0.02502715138561432,0.10465513252234446,-0.0038449642917362946,-0.4326288472899246,-0.06471489991133536,-0.004138135157116569,0.023340791437366393,0.008069908843340681,-0.0384403353366647,-0.05173941864701853,0.06499281901153103,-0.027303287731038538,0.05042253654258019,-0.013471781386393503,-0.0990399652461822,0.026579021898525845,0.019597302137923243,0.017451285225502308,0.0015976892997673563,-0.0804698478908189,0.040877749270926994,-0.030665904783037587,-0.04703797829216394,-0.05014143033844441,-0.05991128389112684,-0.0625134596783676,0.05251731390432024,0.028641432791500485,-0.034755658992130935,-0.10720636543038589,-0.15200281269257487,0.15383382899129927,-0.01214051842222992,-0.020282579290212946,-0.06581489127085019,-0.011123106771492976,-0.07423714650573024,-0.01200676807741937,-0.0377030126272212,-0.010077941332310074,-0.0699972754768263,0.015429785050758565,0.1024532401020067,-0.04503255149030076,0.02275675905223216,-0.027178250448190944,-0.05242550141502022,0.03794698658398836,-0.05876657954714861,-0.015194716417395789
363.8330993652344,1.228302001953125,-0.005228405487996329,0.009522820504141787,0.0011188302021756338,0.00510619379732518,-0.003593017576853673,-0.014476244252355205,0.022726309216294954,0.0594383925741711,0.08481046139024824,-0.0835523296216436,-0.2046180709420487,0.056506090541571054,-0.09966242711874158,0.08617897487838318,0.037489203059226726,-0.08564164928531584,-0.26377639739306663,0.06186077040221241,-0.11011043552201819,0.26427097654000853,-0.11600023327852368,0.174491977810218,-0.29984286032190066,-0.05274706737231026,0.13536396058616368,0.052431147491580954,-0.15899866596024534,0.1977335924559025,-0.3102413356572869,-0.1122970652625773,-0.004534383326935509,-0.12398614441105729,-0.06451207444967186,0.23583749354685052,0.1710163595260463,0.3440151002548892,0.10102739276013285,0.036691434630620134,-0.005231196534333467,0.28129000871917587,-0.30307369677182183,0.365884001676698,-0.11691137464142061,0.23380868790692755,0.12544988678186358,0.22599356141755014,-0.313139417883392,0.04374611288289229,-0.15735008392123656,-0.002865100922975712,0.12002822504819441,-0.0018700759306448413,-0.08156910917461178,0.02554396092065385,-0.06823929746080268,0.0017174541227115091,-0.156058420054763,0.006874163506271137,0.02092862173181139,-0.04983939737481163,0.06459906830168605,0.007175635136454694,0.0046618601276955385,6.671395153291104e-05,0.15751804559124774,0.07684808530351502,-0.0031602063964720215,-0.00639946501186174,-0.01736481850858161,-0.013983929219141912,-0.0004889770703915396,0.044935144877027225,-0.0047940511399740164,0.017214267229122615,0.016982076556235907,0.015743121804973365,0.006786649063048494,0.044882159242017376,0.04528410326312473,0.09020628694773837,0.016577686526436777,0.018726520651568754,0.22526840709589807,-0.12288408846883922,-0.13072958868163528,0.028843248095794687,-0.0023024339401181444,-0.0348144283379621,5.447073988573383e-05,0.05247736709504436,-0.007474149213463322,0.08007532517126612,0.0440272872977127,-0.017636773952773726,-0.02255684482954247,-0.04889858176651368,0.000747047979523718,-0.004823123076929068,0.029234942173480286,0.027986539791651277
365.0614013671875,1.188507080078125,-0.10970183340600172,-0.01693935841243909,-0.012380658690366341,0.007390586730773041,-0.04339807267791858,0.16744492475358685,-0.17552276782853074,-0.033672337020022494,-0.02417923644333141,-0.007855657784253213,-0.10382006637377307,0.18203568123940342,-0.22047347625649985,-0.017925274159001196,-0.3234351486140289,-0.3211026219046509,-0.06222678860285462,0.1252200814326403,0.11897624918078595,-0.12012918019200994,0.0165549821926916,-0.15925226495418562,-0.07778398100328089,0.1232582238498863,0.20157721731554717,-0.4254512738976508,-0.23832806943513382,-0.20419235095619906,0.049315773504585006,0.06497258029247081,-0.38953981979109426,0.19952045466490195,-0.04500166822941884,0.0829919160232451,0.2845005446578093,-0.0497646001654594,-0.3324558173691272,0.4800349152256459,0.30640369593404915,-0.37384125460353146,-0.259005272212928,-0.28629500903516003,-0.04555196318645546,0.0037177924120607164,-0.27665171094705576,-0.015843016792290443,-0.10602389533803602,0.3205834437519844,0.1384815399618117,0.23345729639304716,0.13882109833961928,0.005096775842722709,0.11490333427420572,0.08658131002086245,-0.008816853988051244,-0.1718990991016761,-0.10829507392830351,-0.07405957484388706,-0.043787315701827145,-0.040759738637163284,-0.03413137891731974,0.08559167254172406,0.0036617312327443335,0.04312431242452715,-0.0020641053205993996,0.0018826686848219453,-0.03454906374998305,-0.0073593588026449885,0.030044576158853982,0.08470657822768031,-0.031903531634712844,0.028513760027372978,0.038019403746473626,-0.016202538859251506,0.009533904562131709,0.052899166577286286,0.019748594943590398,0.0035140369263918364,-0.021477657879219986,0.07003344136627898,0.020966044089469227,0.09830301402991887,0.4151492786086825,0.11583568697488146,-0.011001386825375197,-0.0012212338688113783,0.005275966936734188,-0.08205856983109111,0.09377316979195102,-0.0020746951940224124,0.026979823388534885,0.06672846126179166,0.08735237226701492,-0.07050231694117895,0.05820605727783494,0.05444994608425045,-0.009701792643534133,0.038842003590479485,-0.00930706639310521,0.11870313464202296
366.2499084472656,1.20867919921875,-0.0156834512926627,0.05824936203612016,-0.044152060760271096,-0.03892441458681216,-0.020719747979057845,-0.40942054015348456,0.06510004817237477,0.03356775945381149,-0.06323482988335274,0.02894075072350302,0.0877630775955862,-0.14597941368466688,0.08130972052269446,0.260096654248053,-0.0762740140610211,-0.1273590177129953,-0.32697392326726227,-0.04582956742480082,-0.051019116200054934,0.05404833397529336,-0.09211548968689366,0.10310275335957998,0.19609858317187467,-0.059180319183842915,-0.14254609272882013,0.20592381309903157,-0.10561163801662211,0.21520287347085781,0.12088363100387314,-0.10530431500075257,-0.12252487609256568,-0.3602430296096308,0.14976314373791,0.03509263115285958,0.035542485089953786,-0.19452387658578518,-0.2698558712288234,-0.16983532724696482,-0.3685546225487222,-0.3846069582439133,0.3889457734943851,0.1113064087576742,-0.36134488215632016,0.2599839583557452,0.39194849817030447,-0.49608151689361346,-0.25006093056529505,-0.000720736248674847,0.08317615843021549,-0.08658501871150187,0.17895555166348148,0.0021191193856101576,-0.16034088796156387,-0.038429621789389544,-0.10060761326181943,0.004661170246937842,0.01786473698412472,-0.19616840073354436,-0.1027436843149472,-0.006417387212290716,0.04240014233931086,-0.009433180410682585,-0.06227647915097109,-0.009716787595140492,0.024060885565606472,0.05251693529965753,-0.024339281652810803,-0.017856670620870256,-0.010901124551980005,-0.0881209681170197,-0.07204122963109576,-0.026614324333558637,-0.0387961186659859,0.0007663043996249176,-0.049268030740478405,-0.0075625950920223005,0.03133873150656707,-0.08130862226755121,0.015010148915773803,-0.08757993086805343,0.1113121500261473,-0.037514565944772295,-0.2569155554393067,0.05561374774189998,0.026875570474304625,-0.0367668568310419,0.01804961711361923,0.0043878992495334085,0.026086554126050585,-0.03959556947616991,0.002834483786063933,-0.02441513226714421,0.01739204337694935,0.04484733640338353,0.034868342634483976,-0.03327988333658858,-0.01298082927129001,0.12437931688818052,0.101949375021022,0.003453615704311507
367.4585876464844,1.2689208984375,0.004099007488506574,-0.07496362429906077,-0.02498007119660421,0.04325998976989805,-0.08122426151553691,-0.12663002113795832,0.33785452351051604,0.10669472311580648,-0.030105927263926673,0.04457572871198019,-0.2267179368776433,-0.054197563411203395,-0.024581463348380763,-0.02049871311718983,0.08643921888903171,0.1009805655657617,0.06646419721851408,-0.25868013961693315,0.07171073947119191,-0.17269104482796957,-0.15444215242333612,0.07201571572976641,-0.04249629108390633,0.14875329396526088,0.13470397713926166,-0.09226638584756584,-0.4264334068568636,-0.2153871209447795,0.22455562019166755,-0.1323149525048403,0.0425921176484792,-0.15177341644288683,0.18835744804755614,0.35802821424664527,0.030235593224995798,0.6342852022536859,0.1674763565075246,-0.14540796515303853,-0.12662789481995657,-0.373987852713065,0.08235649930844659,-0.23921715565498078,-0.2678634246028448,0.05148774800744048,0.15727257742778808,0.17414210905797253,0.0715206667962886,0.09921880401074398,-0.036582614889973,-0.01266416393787056,-0.09754253258170072,0.027476208871210425,0.06154959697931231,0.016138437045343422,-0.08280423817652781,-0.14792715891279468,-0.04918839381905992,0.0029024944940272994,-0.020848590117751982,-0.025627843338169438,-0.05251577788553357,-0.021999983855951383,0.041815598886031737,0.03420707993123827,-0.01581035885334124,0.023392567595489397,0.05568480765872557,-0.07229694480918993,-0.030252230932903183,-0.028987600785953197,0.035071914176397864,0.04643794107184081,0.1469864619320692,-0.05549444853747511,0.012311559722508032,-0.002943914114705881,-0.20212930205218405,0.05088439435673781,-0.04383735630280482,-0.08175049039607163,0.15887088433337915,-0.08630295360410828,-0.1568397628985566,-0.004667370072918509,0.19746637898168656,0.21147922351824935,-0.01648652763259266,0.02258242399388643,0.042286818011156045,-0.03802152780657997,-0.012722171629448567,-0.008302355411053411,-0.03103391257049149,-0.07228269638722411,0.0730429802055022,0.06753530067839376,-0.021110323988988232,0.02163227954658536,-0.08440260038266273,-0.1644348280691287
368.7275085449219,1.398193359375,-0.15756859244546123,-0.05883641022661225,0.10790495486549279,0.07762734293282192,0.11671918963642496,-0.09993429082338716,0.1401794429568657,0.04325648404516644,-0.13304859095984997,-0.33507003911354366,-0.1586868219045382,0.11797135486878468,0.27541595438904043,0.37102717652615547,0.010731501444271218,0.2697042401080925,-0.027548958761989917,-0.026682130909914226,0.16532605411454912,0.056515908551542635,0.0710034665361725,0.015676258660856077,-0.00044132010902306015,-0.20748700834105094,-0.31991817434993775,-0.3416067897696921,0.07042617989362841,-0.12666499333012696,-0.1653077045465847,0.21443551516619147,-0.02533255556165029,-0.11822176236305162,0.34601811274925254,0.14358335349818938,0.11333234542759449,0.08338808588035915,0.08131270359307385,0.03946658005180005,0.22053355715518028,-0.01914336637467906,0.12452121211782245,0.018143459097752876,0.24930499941403733,0.0764172286807099,-0.46741042568693264,-0.3589883223922048,-0.5622115597370614,0.04402283875999629,-0.18831123134635433,0.2307470146491816,-0.00879487629399014,0.45472061834370936,0.009957477808019699,0.14373726347577975,-0.04636616922411216,-0.0014715087280162823,0.027569396462753457,-0.022290781027285267,0.030289329064243087,0.013885097076381775,0.013549292036545396,0.020653670202191568,0.03583787764930261,-0.04608936619483851,-0.024699200355916915,0.018425739070689874,0.008986164463676432,0.10467647892566749,-0.015149331147613323,0.04930685090942053,0.05451287767573539,-0.004057041153290994,-0.09231910731311863,0.07138062785499208,-0.0188232461337338,-0.009006890492866907,-0.060973379947764236,-0.19981770115866745,-0.3339254815151226,-0.02184169647737727,-0.03668552697101493,0.017411411943114515,-0.02625990689282734,-0.04693152488895669,0.05861142472137959,0.005072007198654119,0.032775945518975225,-0.02440913711445817,-0.12836564740989181,-0.0020556201093255835,0.014423177040291455,0.0897626948951427,-0.06948325560655885,-0.014273155132125077,0.007384497680740154,-0.07164763514559158,-0.2543768371430728,-0.018388640950111057,0.021329148421084174,0.03708109169724971
372.7726135253906,1.238494873046875,0.02839020576037414,0.07397032269635832,-0.054213471176805875,0.07694855160440504,0.11074624437316244,0.05293103405886989,0.10486300297423823,0.049552060426139806,0.022691134352232314,0.1344788601195708,0.12503427744832324,0.31808267383489236,-0.10636377797910485,0.1195830313628019,0.1599433324727237,0.12376007869653488,-0.06929178588129829,0.18263583635883385,-0.039848610618736346,0.012153395155549435,-0.47568145749387636,-0.11264541685226376,-0.12254082210798845,-0.04314763374797079,-0.19572569277835083,-0.3699265572227826,-0.013893971939998404,0.4339033601260503,-0.07700857990900165,-0.11328284399232592,-0.12960394169191708,-0.14725096332914883,-0.19595476913286314,0.08274994375714574,-0.3668166248727449,-0.39119558726306286,-0.27463106678696403,-0.4494049347274898,-0.3118072493368421,0.08922612635796714,-0.08819015538916705,0.14380019819390083,0.24034969564372263,-0.018751619967040396,-0.17715898680295855,0.27126519207214916,0.09060896867756704,0.17261309885015708,-0.05239784680941524,0.1524204594112131,-0.22976985114924517,-0.14446445381780754,-0.37274269742584343,0.05658303944248286,-0.08208477853567295,0.16128490130616108,0.07822956584710582,0.01960013625744034,0.028670214493845783,-0.008687776368610288,-0.01962237506359745,-0.027558114838895906,0.05167063882411811,-0.0017101733057200289,-0.00812650842443953,0.01679660272494224,0.05941566387791411,-0.04386655042686397,-0.006614632812583358,0.012681353586416578,-0.005938744142381999,-0.0017248255892962003,-0.05295608058443639,-0.0025494324197342802,-0.02240873357737795,-0.007599400287928399,0.0027232278208008135,0.005397353415847664,0.06613930042478527,0.01951316493627967,0.04148413548591431,0.0301258906783987,-0.016919068825815918,-0.014666812896449825,-0.010607551468444875,0.017587013065258582,0.06259438696006278,0.024546547519714315,-0.02301693536425788,0.0038244758703490584,0.01029833901996656,-0.015347376897124175,0.01458517330298397,0.0060750267622525,0.026517114762807534,0.060372481707635615,0.023070479225550104,-0.001281967331917785,-0.05375512051974756,0.02097166296292076
374.0111083984375,1.198577880859375,0.022013520534091918,-0.05752884218194042,-0.025320156254287175,0.028064657945414087,-0.03936003374691488,0.034044973393602476,0.04977946715970179,0.2421580636943185,-0.04396920999370476,0.10062467646057022,-0.024068669054190677,-0.029242374499315972,-0.0032622325314254977,0.3197746363908113,-0.27490583661696294,0.1443727908259802,0.09089552577487124,-0.1047165979659782,0.12242709849903621,-0.3625639513310965,0.4215576205309976,0.19444291361518912,-0.05415451438536888,0.022342983349659777,0.05877358362835742,0.10793977825634887,0.003727776079497022,-0.2356657659057929,0.10524387687861425,0.42356766034474436,-0.059958610833558926,-0.23166347132705392,-0.25691705069206494,-0.17434973944387092,0.07077570629248649,0.42730879176931724,-0.0078994020140334,-0.35039228715808957,-0.7159718801292213,-0.35709093175774853,0.26831001069327864,0.2848179868936127,-0.25957728087009313,-0.5395752991333929,0.7618763056980167,0.22089278261067852,0.17213289128935683,0.13459938922786188,-0.06821858989762214,-0.44079604053566057,0.6134382079971248,0.6506987813017012,-0.04957039577769479,-0.15658193773053117,0.25580400479540755,-0.1382697224503989,0.06611624995991876,0.040170918218278284,0.006186814388816282,0.051780185318771266,-0.02922774641289943,0.05439779617870925,-0.02303927815710099,-0.008255594203186892,-0.005321282589590362,0.04142559226615813,0.07923398657914199,0.013406722686191409,-0.048736514859942584,0.03295543262518,0.04373618623523703,-0.007552737944136675,0.04456426060338959,0.004763681556196678,-0.01210581445248317,-0.01150976294127945,-0.03919993069769504,-0.051044476521620114,0.022860602018812914,-0.00928325514161476,0.002672441407922139,-0.014869556458978651,-0.06501724452868451,-0.03718961532732804,0.0012282516266210741,-0.010779170758022344,-0.003979248471212498,0.024240466573045783,-0.01936465809323564,0.03593571291019766,0.062162625796474164,-0.09376132898541588,-0.02497385215378599,0.05354570839134311,-0.015699408333736314,-0.03761988750941829,-0.026036649708330053,-0.02007969652751227,-0.08698662892696167,0.07789158877337639
375.2096862792969,1.198822021484375,-0.05525236365964539,-0.13632626039879686,-0.0028997792339037487,-0.012593689870452816,-0.07263905740843316,-0.010355444845773791,0.5384240421915638,0.0396087355049763,-0.06704217079170129,0.03539952070595827,0.024633262983068976,0.021041049528176963,-0.15847118078892083,0.028258015254837707,-0.13198499524344734,-0.04996590903554128,-0.09504789655143167,0.24667986171568176,0.08347202775539134,0.11281202777958145,-0.005520499037542245,-0.10044576868145733,-0.09564279990778829,0.010630769721452191,0.04203376601748988,0.055774249382072746,-0.041741670060773395,0.04382301938326122,-0.30956162886635974,0.33877101770411944,-0.12205984815270245,-0.048944136424014906,0.3286406481725394,0.0036952830733469055,-0.12035398864813499,-0.34737359816627705,-0.05457106671651133,-0.2540162502188011,0.16404563320872306,0.06803218110697229,-0.05962409420794891,0.13935195788389168,0.1301666147433445,-0.13808353717420058,-0.26808227916606986,-0.27731983981365194,-0.013462172090152002,-0.10805348645652174,-0.23738660571299885,-0.10432881024064214,0.2641972854036401,-0.023843262075651878,-0.19780052010649563,-0.07945604018360497,0.09523448055374452,-0.13677279931366262,0.06625276692698175,0.06771935144676876,0.2674110114818598,-0.01931507150719991,0.03000290098278333,0.04161098055972209,0.009718659856752458,0.06363562074653688,0.062039953931583125,0.026436966894280343,0.041848682273281555,-0.0035161537285104214,0.0004632898831410659,-0.020971694856231564,0.022267594680964155,0.0063645483805356284,0.024503158148510687,-0.030762207134336438,0.001630012159185231,0.009801386089093572,-0.01785737689118812,0.0031991624944663947,-0.01896178131669647,0.04137001063273709,0.11439589380086435,0.1172287695341811,-0.14106388007992648,-0.1225701743839527,-0.11043403024025793,-0.0367092660505789,-0.041975576809596064,0.024009004245539606,-0.017055740157935494,0.007130446957576711,-0.04286439658827146,0.0025250424241005185,-0.06880958055419234,-0.12203433820247611,-0.02748725823341015,0.029037829701463912,0.004812662060602935,0.04845836235626794,-0.032406564507775265,-0.0684072565068212
376.40850830078125,1.198394775390625,-0.05468005964695115,0.0031167614031590565,-0.020807066249756617,-0.022650211920387707,0.005630447102098697,0.054636511781729666,0.031191780284939876,0.04719117728230021,0.03171484711022601,-0.03847541823946695,0.22758305563969555,-0.3521344653150472,0.19020446929045517,0.0862577952080733,-0.04647561843737047,0.07918913803926927,0.1454484907536268,0.038440454899812716,0.02153544054486483,0.1953708645814647,0.1470006226594634,-0.05466952582025357,0.1136158283661162,0.10969143620515637,0.11482262626449954,0.36018009273777996,-0.19859515558321172,0.049323652588581034,-0.12602922390795532,0.49269099823192036,0.11617106781822684,0.18165601156047215,0.1322948441992529,0.043220610252184,0.00868162499735051,-0.05580662923058754,0.200738137673584,-0.10691519429330144,-0.18215943386992012,0.4309803673782977,-0.0653674109443726,-0.24181535168471419,-0.07365471511289354,-0.2621613268042691,-0.29955609553873525,-0.04985728498571329,0.007296167631922701,0.3761560778368072,0.0719644464299751,-0.2792597981448748,-0.32422404259984505,0.5396612518513795,-0.04160802948152537,0.2631015010108307,0.048370206854334956,-0.1027276305055735,-0.01132981370120448,-0.022778443565452264,0.10947034452793297,0.039086259567344836,-0.06965656063692184,0.0687959112152974,-0.0035239582640005348,0.013908434499497926,-0.0186950427636709,-0.08614071955335767,0.028054943485929466,-0.05898515860018827,0.040901897827567854,-0.01388928905815521,-0.028332572083508135,0.039368288675429776,-0.07017483090574231,-0.011603659205476303,0.005368936017846751,0.013319799706054831,-0.015611418038793415,-0.0016947028116750516,0.020720562760666725,-0.053296066729271147,0.03179155381407507,-0.0019134826029272721,-0.24080631919057785,0.027053786450377218,0.04312443356211352,-0.009441535860569873,-0.05627953547301567,0.009194793593772416,-0.007782873332450667,-0.08023277263560777,0.01385684490988674,0.020390453416466555,0.007348833940693815,-0.0022269561740889694,0.043506884114195586,0.031103358139650678,0.024482950018114624,-0.016440891201631974,0.0042030724482842695,-0.0035741471225615856
377.6069030761719,1.20819091796875,0.005486959434760136,0.02456686433492044,0.06105701860023922,0.0750191095244378,0.03766851261089875,0.05388091728584124,-0.13312078725225315,-0.2961948118403554,-0.03197999481056344,-0.04826649289741213,0.2471598352285763,-0.1632566862706285,-0.011021953810646343,-0.04498205978560086,0.021639991764419955,0.16359465319118952,-0.15489442238610449,-0.3814880048088374,-0.030799295057969404,-0.11663218929087657,-0.16012797574148913,0.10261537009790746,-0.09693605127614167,0.011706713307316147,-0.07556046743691894,0.09762321112906466,0.04524642547719472,-0.02781151538093863,0.002268377852523207,0.13830207916445295,-0.3022988684481184,-0.1487513578528319,-0.06850267590522995,-0.16174254636907404,-0.09970758246627516,-0.08883365416826229,-0.15134765290572214,-0.32734802082358366,-0.42138470519454624,0.13225842346009906,0.2358804697773543,-0.24060690866198736,-0.14287398682478672,-0.19305239623745665,-0.024487716755997285,-0.1679300473802049,0.12906453925064942,-0.24069119782802617,0.44953143476588986,-0.11394287421307568,0.0035496156515619362,0.06838286458597916,-0.3007161889874677,0.33756398520945374,0.13812821471594378,0.11504323679037873,-0.03571197313316272,-0.02473956081843474,0.0023095853379015794,0.026535720871858962,0.003153894548849236,0.025752649405329942,-0.0759808976567226,0.05538661433849142,-0.03372640161575602,-0.013641997726389549,0.09015543858172934,0.009298860790140492,0.01164941876573151,-0.07082767416578882,-0.03942914012298753,0.0401293867115305,0.021600216148101772,0.006491478565657682,0.05238721274830105,0.00355728365582323,-0.10449381868395638,-0.06187653848088416,-0.13573429968895398,-0.15281792818981257,0.15503373171480042,0.015612910344676725,-0.0325915688357102,0.030230649991215802,0.015445507716897405,-0.05762777199254203,0.006212865315636595,-0.002833139091137187,0.045930271753259824,-0.005291568556019248,0.019013891799096655,-0.06465158807448018,-0.03789857880693066,0.09125598061440457,0.027396758818697922,-0.00025852632949233123,-0.03259829235576118,0.009122604697387356,0.037447554518668255,-0.0003450420765233886
378.8150939941406,1.40869140625,0.0015955550799678225,-0.028502863965650434,0.024528741898279804,-0.01346335062585207,0.049772316032953776,0.08285879554807073,0.09388384744009523,0.03825764987999611,0.038963957740255586,0.11884331665389763,0.48767499315472024,0.13746575496301042,0.3644880400208613,0.15852121907556832,0.02610666704764951,0.03588830789272046,-0.13566853075006452,0.08788566550824532,0.049313222572808346,0.1509906243192394,0.07347159537264737,0.05187958598093123,0.10161000356944926,-0.2720707964366892,-0.16192495515386673,0.13916523627275978,0.5121093175108212,0.1545743355657983,-0.281377541291978,-0.13292025718229294,-0.3482104619654633,-0.41379462459860855,-0.08209221173429758,-0.07601684335982117,0.173011705054866,0.0435148291007976,-0.27257494521397674,-0.018939604213158323,0.1013394260270391,-0.19120397208706924,0.09099377540577916,0.2867505689162168,-0.4895772745759292,0.19495880554348602,0.14187650096717364,-0.13190722185626666,0.03256746446025863,0.07014695285747428,0.12548542447476238,0.04182534476282256,0.03783950606661869,-0.10318464700392886,0.11681964213354487,-0.17949744264828216,0.05280301148184545,0.031990120073117204,0.00892593144197075,-0.022147561276415692,-0.003262232700766112,-0.041325370199263786,-0.008946196370976016,0.016550731493973136,-0.030946692957065564,-0.010096652852250863,0.08874286069828356,0.010837015009789577,0.04575770868092827,-0.03248651834839315,-0.008370551284728536,0.07485133349546208,-0.02818587711870011,0.009268763704395604,0.05347052282683361,-0.09759554951919654,-0.0272016575526076,0.26644287685120244,0.06014389147321493,0.10209422142915091,-0.11951351615500813,0.0029615058949722124,-0.029423229839948946,0.07658824205056305,0.024473612068963577,-0.01850865707932141,-0.053647560229697466,-0.03203241638573968,-0.24376992245156273,-0.024728634658879867,0.029513701173744557,0.033364227482560176,-0.00722469198608342,0.04618426382501307,0.07805943301587454,0.07937695010333884,0.08857696009790271,0.014263105364927545,-0.052961088852224586,0.0396081635832924,0.20250696712339672,0.1553928401601544
382.86090087890625,1.268310546875,0.06707186509533167,-0.004653009752186611,0.03827454357271273,0.06484710360532711,-0.023905621599302235,0.07407649891209778,0.034344645604819146,0.07128317752687378,-0.009445983418208521,0.043063964832036394,-0.03725562869533536,0.11834855429136612,-0.08885218664942082,0.028675090747196236,0.037831129443771906,-0.06673853884730077,0.10755627592739486,0.35730886080221297,-0.23812631584337612,0.06887377595810343,-0.03871716334645711,0.2928019139581136,0.004759243531872895,0.22705399873876292,0.01727449856314412,0.21058266885222335,0.019339965492912198,0.0969992726171501,0.12404142424339687,0.005882913061344294,0.3479656341896025,0.4086632264872762,0.3100825244016032,0.18373008127515975,0.2652674458630385,0.2404775028322008,0.39615053838608505,-0.5449520399985753,-0.16721552639943837,0.23170373581234188,0.1294751945315475,0.04753478093291673,-0.09879547947538128,-0.3536914084560554,-0.619045387777098,-0.4033894840338294,-0.09210169280448896,0.2603089288137929,0.01519186762197848,0.07427752587424984,0.08183682066797185,-0.3161077100139503,-0.2289505177555497,0.4729458930637632,-0.004335045526573756,-0.053822348922561214,0.1681523539465512,-0.01053252039144556,0.020783529852196662,-0.05628127819499261,-0.055267595671165015,0.020393998528985064,0.0493003826004038,-0.01650350256580116,-0.011807007100833895,0.028864289190444224,0.012747576887824304,-0.02180323113494969,-0.08495917355177227,-0.032490587136344715,0.06321084388872861,0.042786233431311646,-0.038870720781191,-0.06018109483561381,-0.05513211537486717,0.013812238084631967,0.056880043226429144,0.054759228668230533,0.04327475971818507,0.22560762436917367,0.3836285242506868,0.09598780178226878,-0.035839581664571185,-0.05054842586011593,-0.03415084224496251,-0.0584729714013934,-0.012557814706846807,0.029126897627052867,-0.006732048613244824,0.0044935797516468525,0.025911381369918676,0.024675000759847344,-0.08057834286457895,-0.016189777602388142,-0.04529887542604904,-0.04537332626957583,0.03927946547948882,-0.005691429653825932,0.048857813730873126,0.07472687920135163
384.12921142578125,1.238800048828125,-0.05527208208223866,0.037266325847264754,0.0815039974391694,0.02635004582369128,0.03732441545993829,0.0020226513810645413,0.202805822207788,-0.002088691008505136,0.025007010651455143,-0.048464855007233985,-0.04625842280816839,-0.07646411898295531,-0.07773024571603422,0.08180105552867202,0.005096002978151215,0.14357208186371476,-0.029049439978426975,-0.10794779116556841,-0.09456895435824722,0.21548166399403412,-0.03777342244576608,0.30578247521324586,0.10084297607984982,-0.06600105579384137,0.2448081114685754,0.40940354514227284,0.30545177872405127,-0.5493411462993271,-0.13254610639129025,0.04114684097461896,0.11094290971348643,-0.2900182880777407,0.13348307104592325,-0.16430785225222225,-0.40378364476535,-0.25253989499676094,-0.26806909064184764,0.105251125359707,-0.2538959531294672,-0.33040084377463314,-0.11919195801343067,0.09446546303381563,0.06098797336055356,0.2547813227153434,0.12805661751376504,0.1299006008035692,-0.3078604329326455,-0.5829285387247695,-0.2377444891811954,-0.0015548126953103952,-0.07168152862785733,0.07562245448473029,0.05433286824677249,0.23426786090511895,0.11645601109779385,-0.03766622819725828,-0.1006823198088751,0.17414093414730403,-0.019762540509561874,-0.005966681551250272,0.11906210861802241,0.1391745323193327,-0.012979148475230295,0.07519967863351365,-0.004146717469756891,0.031288792532571275,-0.08565870919251464,0.03419169080774465,0.04269669345251769,-0.045030082334854296,-0.03801390929757644,-0.0378426277873223,-0.029382084978218276,-0.024518792409271545,0.002980480133933091,-0.014608758899976976,-0.009282585545426318,0.012069676835027587,-0.03614912945943743,-0.07110573540871779,-0.0550750595970465,0.06536425740036199,0.0414890105660466,0.24182413973324565,-0.043531690525055705,-0.03565931545974416,-0.05810307913688572,0.00822586757153712,0.006615232064763502,-0.022701515070782465,0.04427398109849788,-0.02505106950554327,0.03290966806266646,0.0011234143673707446,-0.028537183737993743,-0.0008875583015125338,-0.05340937218118905,-0.005390963777473572,0.04144893731725959,0.009265839625773273
385.3680114746094,1.248077392578125,0.0125771571031715,-0.06962773315896509,0.13824696273917736,0.015423387161822918,0.011773743414581438,-0.008013885757447978,0.38504224394652065,0.02196739418716967,-0.01004250689355099,-0.07311229580314413,0.1404878624898666,0.02797381007825582,-0.40124646242292783,0.13793456207206123,-0.26975585857400614,-0.09303738903658369,0.24707744483819344,0.0552842857397269,-0.30123020358777547,0.19266993354628514,-0.01633854302538071,-0.12256711625967384,-0.07119531148190641,0.08028648665153856,-0.043907199362254165,0.03724328868926084,-0.36385292442424083,-0.31873847719545106,0.33549550738065204,0.2698245227654842,0.37551278976968633,-0.6353146103789101,-1.007247187170504,-0.17230313941140402,0.5592835242357244,0.6989782732673994,-0.4801352248956159,-0.58893013416148,0.06355999804840007,0.206561902827256,-0.05241626899815277,0.0006670804649354101,-0.21936725508623856,-0.3850898334566518,-0.2392807841746088,0.48032394758264524,0.02856045719494754,0.44492853484925915,-0.023780044129011225,-0.7994650488243359,-0.5029906359221441,0.2069521191224448,0.2452348158362466,0.1918469953941274,0.10063203917867095,-0.44310800818784263,-0.1456027148695404,-0.16737652861549915,-0.27346320556391096,-0.15769124414784913,0.02124866979714539,-0.23834017610513142,-0.021114897945009106,0.024860703255813306,0.05659524833658713,0.01322621603387257,-0.010518859151891746,0.028187528193492812,0.04269076601443017,0.02478025646009235,-0.0050886398462650865,-0.07592255802930988,0.026466464298256075,-0.04723162768754457,0.03299150831170323,-0.012341066207700068,-0.009987320319202478,0.04424972263879354,-0.09326564716620935,-0.11837039686315082,-0.18336784887161123,-0.10789344917907764,0.11451709368418593,-0.03825078072181132,-0.0999864294728002,-0.08361379591010626,0.007462440188755488,0.03103542274747456,-0.01148945593222991,-0.008679216200694742,0.04546822504783597,0.11751191770253033,0.007025393937075786,-0.00025368115557920356,5.04751384574802e-05,-0.05742300028221307,-0.049558541522471064,0.012327180603625983,-0.18233168711616476,-0.1474589375720977
386.6160888671875,1.2484130859375,0.005047931670598749,0.050215306365376966,0.024478791463982484,0.020404259450227342,-0.18977596341318,0.10715649069100383,-0.05225056954197387,-0.056059988418040704,0.04005195331878241,-0.052157615358874324,-0.0563078230984093,0.12305569500560834,-0.16925064891414043,0.05368872692545207,0.0020499242898328247,0.012425571961405526,0.12760925446702331,-0.08532413983131411,0.1761973196665934,-0.021658922138640808,-0.21763083936148248,-0.1352334864493834,-0.0635158173994344,-0.12870975906113363,-0.35704162787187066,-0.36962829643188005,-0.21149975146677752,-0.09045124645800519,-0.09818254726166736,0.22296446000882644,0.07376598786299007,0.06973902009251702,0.05292533176620989,0.09648089911734445,-0.07121623955969875,0.04036635629843623,-0.2126888150199574,0.005161132042789813,-0.03614620204278779,0.39751722820483304,0.20489193491196872,0.3518731819340131,0.40010128130664613,0.04457403539280484,-0.4644505300931299,0.23577253444540303,-0.046480230026246544,0.3697421996698875,0.3306399286542499,-0.3767010958594982,-0.33912455804333985,0.6570982683808676,-0.054511671947695475,-0.48084702526734124,0.121678370869862,-0.22014970212092747,0.17981676014931577,-0.027952715178030947,0.021815132060831424,-0.022287549780201314,-0.15503897993578253,-0.1921750893650162,-0.08815943235336926,-0.08792881962354866,-0.06391658708147212,-0.010339827931362709,-0.0006914335202332367,0.014271021108142184,0.05510244355515161,0.06444656668399643,0.014189658381617901,-0.040795653459876506,0.041374736948367546,0.017349124857105085,-0.056348642925219745,-0.03442800211485703,0.004287303337062783,0.027427018506946524,0.029608463770448835,-0.08008594432053433,0.02005007275801074,0.029851645984531047,-0.044095855569314446,-0.14520538131746927,-0.11935387206806211,0.040550627918982424,0.017732157824409494,-0.05166708282046925,-0.004191681802815539,0.021277297702941775,0.02815001240104208,0.04012544613700469,-0.01838322202286914,0.024740619019322976,0.056404030365463445,-0.022630399253841495,0.04209400438735321,-0.0416003690894637,0.04643087471377822,0.023661003221841396
