start,duration,0,1,2,3,4,5,6,7,8,9,10,11,12,13,14,15,16,17,18,19,20,21,22,23,24,25,26,27,28,29,30,31,32,33,34,35,36,37,38,39,40,41,42,43,44,45,46,47,48,49,50,51,52,53,54,55,56,57,58,59,60,61,62,63,64,65,66,67,68,69,70,71,72,73,74,75,76,77,78,79,80,81,82,83,84,85,86,87,88,89,90,91,92,93,94,95,96,97,98,99
17.073749542236328,1.0598011016845703,0.023553919284266686,-0.08093887975898437,0.0865559576360235,0.04566395268690022,0.15101996342053944,-0.06845518256549837,0.04408983045000136,0.11578690398236335,-0.06046110892857258,0.0767743910293464,0.07514712819830052,0.08879484830095147,0.06903314007407028,0.07037382841446639,0.0054918130071403715,-0.014611469500801298,-0.06776094018388257,-0.0009360509915966168,-0.005817132220107568,-0.01113155226755096,0.0019310374033154973,-0.0004174930954976914,-0.0005985160086618619,0.005289679394890684,0.006306158870243408,0.006841365472897953,0.0695275785959518,0.11975298805538985,0.06882333130198076,-0.05987352695570541,-0.056066730337332005,-0.01761705309960451,-0.02847007932096152,-0.024824270281871917,-0.013120706219869549,-0.013741413870913176,0.04085969041803843,0.013977217799043387,-0.05265485329379719,0.0034185315288056133,0.05629323466504734,0.08025019524061089,-0.03165261339981809,-0.051448874560743804,0.008109681872328262,0.006787255357554473,0.04019071147489028,-0.04813234656786438,-0.04961444262797149,-0.06093628164992692,0.03305838514949756,-0.0027897113825038735,-0.021265722138965198,0.05907178468361436,0.1033947194986764,0.06865242155253976,-0.04833946216366649,-0.10019410642351484,-0.05986560010849929,-0.07618015213533327,-0.06410089143693555,0.016993996917443892,0.0074200947825713015,0.06965867124547248,-0.04262261174430574,0.06061196490836167,0.0787173003768638,0.021908305742265793,0.09286696023560925,-0.03264041809085376,0.05450338200219003,-0.010125343869281104,-0.06298265578980113,-0.06890130660049426,0.04046605314697345,0.026221915808438568,0.022320035321304884,-0.05304066871032673,-0.023458707675731282,0.039969606352237334,-0.020030328379887843,0.05128463716558573,0.1210804976050114,0.1992496517453549,0.1314840004741569,-0.06330854088813853,-0.28072679841288695,-0.045408018711357814,-0.4384772617913442,-0.06870075911163992,-0.2320657899012057,-0.28220397295384547,-0.1798082068569261,0.2162670752810644,0.1515215968406205,0.24473075400970182,0.14424515171606553,0.15542158082314372,0.10654662740698277,0.046675285740726186
18.1335506439209,1.0697994232177734,0.18159016756034604,0.1199459168411065,0.042234191360654275,0.30388231713478403,0.0642576663708157,-0.014469786230841783,-0.13918295983397797,-0.09442485303743585,0.051832564501913675,-0.030449600113663274,0.25802000789140717,-0.05967709839376092,-0.16485706276837755,0.14295079395011426,0.02348370826984003,0.01841140689951586,-0.08826958418350568,-0.0328628746621239,0.0028197427367684974,0.022200544879711327,-0.02353288003335308,0.009053212472699391,0.021541289088552906,0.06949101404079351,0.05158067216794831,0.08172816563148466,-0.05293435009931294,-0.08832386303384519,-0.05841537208664897,-0.03448811607160981,-0.01523165536726247,-0.028614463541153684,-0.0003955844763532126,-0.0028264353541250045,0.05849246252987835,0.04465416919367116,0.01486056317587533,0.03864740138191571,0.0339718149109042,-0.031339256672709814,-0.06792127679384632,-0.03665518888734944,0.005026351790568571,-0.08441412759591943,-0.019668593048220148,0.05732547778493753,0.0475079052525852,-0.028257070978465137,-0.051567248448068426,-0.03218545086688017,-0.0010262396307851186,0.16674574024946812,0.038898839095897066,-0.029100180541253184,-0.138514761382743,-0.04880599172361813,-0.037316250193599305,-0.019872128571859132,0.023785802725019685,0.049563217849401583,0.014560487682396282,-0.007560056547312007,-0.07144952004381351,0.029283371480112744,-0.006724199700043202,0.13627728978998543,0.07255486754177431,0.02991607397135325,-0.008126585539252931,-0.0322268127379643,-0.06119749857430405,-0.08337587106309174,0.04741787618902071,-0.08388281370342232,0.06831053952004218,0.010974806693606655,-0.01876665959139707,0.016118628807731235,-0.02634620926738005,0.15511160507859867,0.0443270809471234,-0.007679352895918312,-0.1720807946791107,-0.020622148374940905,0.058293186412625965,-0.07582357316402241,-0.23401132228864285,0.047743668268130916,-0.242426073473618,0.8061553987261147,0.10440585777697131,-0.07666686837177286,0.01403536770189126,0.2534937633360565,-0.13866044620279427,-0.16886695133935778,-0.21017835598021684,-0.0594592918553209,-0.07805208997665077,-0.1928585452075959
19.203350067138672,1.1194000244140625,-0.1926363528600804,-0.219485419526434,0.084770549891698,0.09870226062565916,-0.1020200492667442,0.0531498529364682,-0.045000294138942486,-0.058128839037351276,-0.014860428090327171,-0.05506257016086001,-0.017482751989865344,0.00045169024330512716,0.02550871301569313,-0.06236800554683033,0.038834252648903216,0.039611665230195436,-0.01997442333537584,0.06428698895271291,0.16076842185809542,0.01751421200788436,0.032417447075082255,-0.08206028501929681,-0.04416512022785959,-0.03067946669620729,0.0008844084926773231,-0.03803975858523573,0.06413367479869078,-0.0272512286622972,-0.004939888660615575,0.005816725181390934,0.011230702463063789,0.023250383540028674,-0.07943649771582871,-0.050881864046587164,-0.003634512396973707,0.042363755386967496,-0.02912059998577649,-0.04558941031879527,-0.04803378148495166,0.050194379722144356,0.027066418523935997,-0.008892595740495052,0.06294689746616054,0.08403958219447505,0.0291877729814257,-0.024440650015156506,0.05277230628515743,-0.015305643504008185,-0.05302801732829822,-0.016535441750321622,-0.005789481564797733,-0.029571087427484502,-0.07654319013250929,-0.04125393943349637,0.04397735141302164,0.00371714733995126,0.004185536197474858,-0.10187260665583273,-0.06264103373358709,-0.07082618949099607,0.011912112040197365,-0.001104253936003333,0.0456630040933017,0.026598540544660054,0.0388416294212139,0.04538805380242042,-0.00714074481425854,0.0615461424267336,0.013829274035736434,-0.11769703817327515,-0.045631362386504844,-0.03239815216875965,-0.056574280170227656,0.02572783017543332,-0.053032310936560405,-0.009233318004172316,-0.004065234691031593,-0.1062218220970843,-0.059888272496461364,0.04270910561521962,-0.04363985482920285,-0.09153414012167749,-0.0006356545318226991,0.11394807631776745,0.10197597577454923,0.019033568672677283,0.04907737226791273,-0.3319717423539764,-0.023061484261919687,0.10069794103682592,0.09025789978964487,0.019060886609960713,-0.007254922521503736,0.08392501481715067,-0.13450120695995413,0.12443967022446521,-0.0038554452433006087,0.030719095849769465,-0.054512298858979465,0.21960166416601207
20.322750091552734,1.1298999786376953,0.22808571223199633,-0.050178399160000386,0.0013437251578143049,0.06328338350978598,-0.0320345228049492,0.09802372586910468,0.013640706309341817,-0.01879408360948595,-0.009852476510886546,-0.01876247116318467,-0.0019051470029450026,-0.21752337533105195,-0.06925766219366887,-0.039298563215512575,-0.03779031612143173,-0.06765348307025049,0.09859914207097233,0.06445936492636335,0.014573587926807414,-0.0779148361238593,-0.058740272244840436,-0.03935310800137818,-0.03463019612614195,-0.031044307088306834,-0.003092592446732804,0.04854869932155903,-0.024792936301571922,0.07524986263759394,-0.05678083275108363,-0.009467318631596071,-0.02648501263782997,0.012401026664506865,0.02389188518257392,-0.03247889992726126,-0.01659158219809347,0.05123694330067906,-0.0007862999503289864,0.023189904740839054,0.004949602718628816,-0.006959205144822553,0.11747545766975273,-0.045876434855058594,-0.002426269532670378,0.08044459843781618,-0.02016934693987881,0.012489603110093006,0.02886850674263556,0.019738181187353956,0.027143917340092374,-0.11568351666120304,-0.047135293816499564,0.053999190994730085,-0.016523640029149713,-0.001046062513544653,0.03346810570914434,0.09025231962198904,0.10617066680809985,0.006287602025990657,0.021410102916893135,0.025481126019119497,0.004020749135217718,-0.06502467775511997,0.0015577537861645712,-0.04482284557176267,-0.0735669186190124,-0.06543999399062622,0.04035009547193706,-0.07055739354985355,0.08448135102472455,-0.059481816346037386,0.050074415445173014,-0.008895726208109736,-0.006198513640105187,0.07314317975589336,0.010914027226390965,0.027369384849737343,-0.026399067971383267,-0.031964647054831964,0.03675298069457586,-0.057760127126292596,0.010311372653347148,-0.02068498345658697,-0.0030615288446767344,-0.040339367876391745,0.17961670733015547,0.30343440176914954,-0.04148083797275787,-0.014490655165876984,0.2106036088811176,-0.3528040806806262,0.3658035953112076,0.4048940085230338,-0.0593500316125534,-0.06846615575937413,0.023539884064739364,0.24576936968475516,0.11647131808641034,-0.01913474865336673,0.09790764089090168,-0.04228681151396334
24.91254997253418,1.0998001098632812,0.06608237524110411,-0.08983361467803289,-0.14590968414550395,0.41779737291879415,0.20677098981264616,0.042022907378578195,-0.20484999546512955,-0.1697128959722238,-0.01891935356871205,-0.11783266997683639,0.10128347661815791,-0.03125034155699083,0.06320080648801564,0.06805206146532529,-0.006785991419387249,-0.09989229309372517,-0.007690819080084086,0.016974431461367342,0.039411460685308514,0.004235771809127695,0.03493424772496189,0.017540542402717782,0.02333680845425768,0.1409180262834494,0.008890943284087556,-0.015348423835031478,-0.05491627173879163,-0.05130856950947084,0.07520162333987426,0.0593391427086187,0.07352622909591415,-0.07391353755683311,0.03493603522719448,0.0837405275206964,0.10637889524710212,-0.12756465242328205,-0.05134431793676568,-0.012856558070237915,0.0775297334901709,0.010230339255333693,0.0030759460510793313,0.064737359116136,0.0678080065682008,0.02226633070104708,-0.00436007289681084,-0.05010522502135688,0.008358777819287067,0.004313362592693243,-0.039450235720203154,-0.027416726200042117,0.010791498910079744,-0.017442190076838185,0.07449971879902934,0.06289326305233262,-0.03738010182673096,-0.08039563668436173,-0.012129596490776624,-0.008735799645502055,-0.047071175466786117,-0.056038036493349555,0.08177704417114381,-0.016433117557976874,0.09394983574427414,-0.03869323411196437,-0.1543117536133978,-0.0199549194418743,0.10545309445771064,0.0694136791221341,-0.03648945311547147,0.011275538555451195,-0.0009259378450647143,0.02667065314306136,0.049993815162243584,-0.03961564410258718,-0.08234366844808688,-0.07197854517215921,-0.033499091495229685,0.010026669379703288,-0.059614588518126975,0.0017741494754065811,0.03259167037782386,0.06990608603278863,0.2733802749268094,-0.05287324937605376,0.0566252828936792,0.01667240565354435,-0.0929984498117358,-0.19167299673091173,-0.4967893031353218,0.10660978345134844,-0.12781919938452777,0.14365414605920393,-0.7892328558374451,-0.05797868122959332,0.28995101868127476,0.2383856182031288,-0.14716156706930827,-0.04468821978259005,-0.07458604250148412,0.015975036392791075
26.01235008239746,1.1198005676269531,0.0008590456662443124,-0.03331135221424528,0.028723956444537267,-0.17505130702393362,-0.02288543673541742,-0.09913884569550019,-0.13993466066386606,0.05765774410199065,-0.020393601486703137,-0.06081382830677802,-0.15685977354293712,0.06439386971362819,-0.09387396499909254,-0.030525091158932892,0.05686590613991201,-0.02880929478449569,0.0007628385685779435,-0.01684467613179355,0.007083680322931472,0.11785551112176842,-0.022014568740355303,-0.08654174158662388,0.040749777992282916,0.03432029624284294,0.027752427254366663,0.012009474249048975,-0.0038817313960765095,-0.020047924361194472,0.10532495965000813,-0.053870692992867994,-0.07218574195648511,0.0240492762180243,-0.01011364140640239,-0.036650253148965466,0.004149431488044953,0.012514388436679732,-0.057605055886981865,0.08773846207375367,-0.022084993295016328,-0.020699300821871016,0.005164002827864587,0.010127335395206948,-0.032217983477351594,-0.019109124424040527,-0.032628300097181914,0.021393896790336858,0.012786152802844277,-0.025934263749787384,0.007661661020963989,0.02721814171537824,0.03405988902143839,0.06836863397837403,0.053190864884787525,0.03771030303251174,0.06720225316870451,0.026829053084986627,-0.04583592340086602,-0.06110038248318291,0.00016807993632247768,-0.04122578332881112,-0.014512537935877316,-0.014071074829403899,-0.030893529628981002,0.09785445389700612,-0.013626959755736884,-0.02876580175997733,0.005971727281747552,0.03748662393554925,-0.0659122228001792,0.006164807422050107,-0.050167846287547495,0.06745531589851905,0.07244442467349942,-0.01754175475567299,-0.1153089564120919,0.035948610145028426,-0.08731691618274955,-0.01513325052156052,0.019619716316135575,-0.05123714828513216,-0.001137914492678223,0.13121128520375905,0.04381707188568418,-0.04068768898954127,0.1311582930151482,0.09725507796681704,-0.058508930028126724,0.08235944306879492,-0.39293252101571485,-0.4408858391832799,-0.006208989542474702,-0.3603158138105714,0.23820372140343976,-0.2519358634802499,-0.3238230727064232,0.24120598230735726,0.012203153841513607,-0.07686894348446638,0.21475737885576202,-0.10892503729181528
27.132150650024414,1.1399002075195312,-0.1072360365286486,0.3037671022400365,0.07194609104509818,-0.04130996693027916,0.09978715512460601,0.51155910141751,-0.118982175728254,-0.029950545564229967,-0.13588906385353305,0.054141122971534214,0.11657621435620157,0.00015849528605483513,0.042892001067941304,0.018183705178407988,0.10799221532343128,0.014412407479946113,-0.018738594393559956,-0.01259161334719558,-0.2360105775003422,0.2218374709834795,0.033997424720515104,0.010268262735652803,-0.0012251541962385176,-0.09921421071514759,-0.051653091293688155,0.0933823776847512,-0.020540097865190385,0.15517165848821812,0.05761570015046563,-0.06381131495708371,0.011426556131869733,-0.07896465991676754,-0.04984525973872259,-0.03480379806091924,-0.022758736177092287,0.10123266295969252,0.02720674066834725,0.11894618603179342,-0.004446951570042069,-0.029793801081176026,-0.03219262919232273,0.0475072500059596,-0.008142301978432404,-0.010310828755359033,0.019825270568434493,-0.03454447156240398,-0.14863931934518732,-0.03818427924531402,0.08987154457330226,-0.016954685795522336,-0.008416610284388646,-0.0451460102816448,0.0657471799887671,0.06518021041324355,-0.05947807990732139,0.025034023364832222,0.03448339087297342,0.08462360867103175,0.010315133984967613,0.013869695446756147,0.004261633954520838,-0.09017354697847366,-0.07591889885093675,0.03727193387225678,-0.05777713598435204,-0.05090163574179202,-0.03484765762461532,0.10723121714804766,-0.05382890210856484,0.01578123509495756,0.00020620631366251307,0.05872838861222934,-0.047287214498553706,0.0006988019067346795,0.08268819208876318,-0.004992484097609179,-0.09436177873768317,-0.06741081722639192,-0.005695450843969315,0.0606849773094831,0.008353011735044996,-0.019397250040025703,0.10102497661751317,-0.09112486420063108,-0.15806902541524767,-0.03858062328669779,0.04680329015243956,-0.05736170340356068,-0.17861470279768,-0.15414590595617653,0.006182578649723103,-0.11439230457421898,0.07216946371872007,0.05197991550438638,0.041356714501520536,-0.01160924353319891,-0.05364946940948657,0.06022981110469111,0.027959233483315804,0.08980772750504973
28.272050857543945,1.2697982788085938,0.0891150209731125,0.045567287482282975,-0.020642479705508587,-0.2212668081919205,-0.07780769272209012,0.02960005486087399,-0.047936031096344395,0.08728759902541668,-0.1514657649683623,0.0177057228552656,0.03315026396950561,0.06523915899847853,-0.22343707470189955,-0.10883648344367065,0.07704134165821637,-0.01831850122746869,0.01455143211246513,-0.05095486183140424,0.06527037498247196,-0.025067086368016772,-0.036379479865322736,-0.028837121824649713,-0.014666430764560317,0.03423910861393624,0.1044364618147587,-0.01586162858918536,-0.012970624242920453,0.007947215398311105,0.012839553142289203,-0.08795515714622962,0.04766770570553351,0.02420284909174611,-0.03525214017697309,0.027550413780975867,0.005334828192786052,-0.04304943310724195,-0.026224886737879136,0.04509948038678471,-0.016160111660955885,-0.03321087066058768,-0.03853560690051543,-0.039476448123234156,-0.06368058900684481,-0.007437192887195508,0.016048390822275556,-0.03116086126632034,0.011271049217726084,0.1010431533466687,-0.004633499326317408,0.1321732177236197,0.17692511798695804,-0.05836882724799171,-0.06384695309903946,0.0037203426518365537,-0.011605735269405226,-0.0010747808666526294,0.01772416419384596,0.0352649418834603,-0.11465102194076857,-0.07309427524953122,0.07395635233148727,0.0585607954139412,0.05625603191680047,0.08422704926794539,-0.004089105010280482,0.006618420029639574,-0.014596241239354768,-0.011591733695082953,0.05327071483298809,0.1702209514444933,0.09229511802994969,-0.08822305098035693,-0.1140978659867654,0.1856574436903832,0.050516605837740466,0.014546850252382932,0.04512978853353257,-0.013706118688676494,-0.0006549118864877662,-0.032289281041810176,0.07119470144242734,0.10111185054444885,0.028236817508596634,0.003174273437089603,-0.17442540846023566,-0.018262260946877523,-0.06741299701018195,-0.11087554925602955,-0.058418487076236834,-0.1809270962247433,0.3298996415920487,0.14784916873797016,0.05288036197984957,0.25088843336752525,-0.20038885161434927,-0.0031117058218349,0.12809541605031305,-0.21258383055005292,0.1192530954242796,0.3470324770460562
33.011348724365234,1.0693016052246094,0.1799341187454515,0.1643540818232995,0.13091110863949726,0.0206259114587535,0.03391274914203286,-0.04022639874272164,0.036778956085216134,0.17309247952227244,-0.09872821161451954,0.0016759965969515532,0.02602734909847511,-0.06477171866889575,-0.09198444405864625,-0.013221384978549508,-0.01038000684153477,-0.03790724363771103,-0.013900244616364042,0.048705724453677636,-0.04228577538206496,-0.05065669957484753,0.03583156283758381,-0.030951092755227314,0.0075325013817679415,0.010682773220348562,0.028773788500399793,-0.07949225782835231,0.1032344955425444,0.01463387127930249,-0.0008400659420875425,-0.007923204598153807,-0.04589464072575905,-0.00010201771295937647,0.07618651702833099,-0.00991279356671043,0.050871236611319114,0.03027793724245273,0.08536530874664318,-0.05353783879140132,-0.12311124154957748,0.030313287531106382,0.020688420045497175,0.02465574596915758,0.06641067110521147,0.011848729706753205,0.02802270017211045,0.055341225717898845,0.1722274607245597,0.02386838554671791,-0.08502796251554025,0.007247173518644686,-0.09590440970419765,-0.03172343553027783,-0.014377630170059802,0.11375557380833591,0.036391784266816024,0.06326102196659916,0.03018855465570204,-0.021523897582052726,-0.027166640925493618,0.026605655311396744,0.021192552291695727,-0.018748721531089918,0.2878649395674636,0.06681666255056674,0.06364891903733647,0.050875635629655164,0.03507043151381119,-0.0809152176270298,-0.05706264851879319,0.027851297563608032,0.036481694596784485,-0.050566538059204684,-0.0051737626875184,0.04072066404485296,-0.0019655290995955026,0.0710279334944254,-0.007362516543898884,-0.0204424954948461,-0.005551422037045686,-0.07123275371196763,0.022212237033997242,-0.014360541636343205,0.11771986637821516,0.00036453333701300106,0.11421048096754632,0.07362375559017681,0.05361170040829184,0.16537865220227674,-0.2139739921647263,-0.5069393517711414,0.1527829871800422,0.42067812452587655,0.3449279238786703,0.15407312839844187,-0.07461452048866929,0.17842725959920175,0.13648349159325723,-0.09188636414828125,-0.06598246032993121,0.17029204486328592
34.080650329589844,1.1001014709472656,0.3204109363894288,-0.07292111834036419,-0.24986098668570092,-0.2353705105412972,0.040049594687049765,0.04409246896241544,0.010513528497627926,0.03208884336130412,-0.0012259259513716621,-0.04932445419271585,-0.037150689893434286,-0.13306664762456183,-0.010176851935071046,-0.007738269804508574,-0.04019693489313673,0.04007627689520307,0.007614284078259652,0.01915446063813178,0.022294312062780756,-0.0021330763284673343,0.006718435456443466,-0.10583051216143176,-0.05495630987629311,0.039447618229525305,0.012335048763252794,0.011568403520078456,0.005694042436634567,0.000565860076973933,-0.010719278327764023,-0.005984749380685429,0.013849457432741,0.11237505013569705,0.00783382961864278,-0.041526477807486493,-0.09417993195489728,-0.010286934712538406,-0.021907225136935535,0.020106720590583868,0.04585603880778194,-0.02038148213795337,-0.035932364943421724,0.017140075064888013,0.037560741494434224,0.05880228834624851,0.062217213985888316,-0.09885722648623103,-0.029024747063887933,-0.037605961535718525,0.015221674591742887,-0.034880792021399064,0.01158010725145383,0.042344640524172465,0.052526993928101125,0.03385386384544499,-0.06019016052320563,0.05240151795610221,0.005835494129263961,-0.02572556699371341,-0.021869052068204237,0.04446074540912634,-0.028523750967729675,0.03817700226144342,0.06301482857764247,-0.014515440676315348,0.027736107964622253,-0.028376076392985516,0.03899451882259745,0.04050718128409135,-0.01302426793773615,-0.0552406966030249,-0.11364692223310904,-0.053886948825108964,-0.0037295447310289435,0.02963311970408896,0.03270769389947145,-0.04303742793252081,-0.014856609221281736,0.017441714333037858,-0.006909431464993839,0.1718285416039485,0.05616688954187722,0.04190001276328878,0.009277044264960234,-0.07239640491604166,0.024074766731667127,0.059294962569513616,0.07575914491434176,-0.026048626005304464,0.11695303527408966,-0.17926808230914512,-0.1488424125515029,0.14570888854951636,0.09281871520295866,0.08394039285747704,-0.026691041535051915,-0.1596144313082428,-0.12618576332800274,-0.23010987322940277,-0.17592828682910255,-0.3874998824672814
35.18075180053711,1.1399993896484375,-0.22327691388248164,-0.05834823724968098,0.07154201794667989,0.1747913401738012,0.0644231424812323,-0.15579612298619405,-0.06466030694586326,-0.037648182304385984,0.05059182472851332,-0.05836579448742607,-0.11985451842799018,0.036527384158693506,0.06278350296740663,0.0029014180719560538,-0.04202712227211221,0.026759874881873015,0.05764402752125074,-0.05090728935222797,-0.031097437677566942,0.009333302586110238,0.04602100320884197,0.0006892947241039947,-0.028905511747982292,0.025881949197088652,-0.002455229710948195,-0.014290618244135078,-0.01343731821833207,0.00011269156972986333,-0.012084497621901705,0.11045934592264695,-0.0025035026711483564,-0.012215881018300425,-0.013043936050581989,-0.023701444742881047,-0.003567367082263331,0.004814355599603032,-0.028200178120678515,0.0010212272695542292,0.13345260647395635,-0.005667012158059487,-0.0759698171501601,0.004444455122998447,-0.11067158319010083,0.021560629097898795,0.01925292263483898,-0.01648376204108674,-0.013191359856796214,0.1583536839679999,-0.030456662046441905,-0.11306245421133548,-0.045590640233334305,-0.009846372122346563,0.005348877822290836,0.01451941112656744,-0.04507695731955869,-0.0032434900560799167,0.0035480515943864086,-0.010113853602465516,-0.08449450614878001,-0.035485383486499364,0.034888135729395815,0.04361402078757977,-0.004065764127733863,-0.006769557672978497,0.011402646991565686,0.05577171762519232,-0.056837489666829985,-0.012658665906668393,0.016140949848213723,-0.004036634663316014,-0.027794288416947782,-0.011421479124285332,0.013067922021230232,0.014603789639052001,0.07704976701460638,-0.06583920557162024,-0.04060358693828889,-0.0186849670258671,0.03106935893157712,-0.0019613932092783504,-0.008140230469625812,0.06732519195907269,0.03419917142207873,-0.013902889204451528,-0.09521613824330571,-0.14048847638709136,-0.0738242055536577,0.003520971324683631,0.16233599783558453,-0.027642657999341708,0.1188116637202267,-0.0461739099546693,0.05582194613828964,-0.11997641046620688,-0.12228237507043903,0.06446585181289965,-0.10678512580424679,-0.008580264448477235,0.04256034003639962,0.045219384900986995
36.32075119018555,2.31939697265625,-0.10338270277158282,0.09402578670693518,0.016155302133318894,0.13485854443528417,0.0018305266832748324,0.11824861128747194,-0.01508487520635543,0.0573955496117521,-0.05902085852545387,-0.05094873257738091,-0.05525493237649204,0.02666678230738294,-0.09260398150866823,-0.02484014528487917,0.0031439504221548314,0.030317537298552296,-0.03638880491410869,0.04612335576935837,-0.012060424712427234,-0.002293828400459772,0.13329387816667865,-0.08536410353043528,-0.04801915665062523,0.026232293161931573,0.011036814264084281,0.007200172146630673,0.00859324254406609,0.019669043721636546,-0.13732727955060545,0.018950484469558982,0.01788211743665862,0.007866022173293599,0.010613517387451562,0.04249372351421505,-0.07999079846042335,-0.012492139698042241,-0.010526332566914971,-0.0516319245156772,-0.01730341922703007,0.00285079687040184,0.028982297753961574,-0.122806293020205,-0.04457123642807164,0.011542544459275786,-0.0412727618206234,0.026857743532207195,0.009817457887495142,0.006675066521810835,-0.03322852508378057,-0.038890664353444716,0.06014321404510095,0.03662384465236074,0.01774799436223808,-0.02210519658637647,-0.06918201450079424,0.007944052153456678,0.03911569824217805,0.057320213967305564,-0.006606136348222366,0.07862103518794021,-0.028662491934509905,-0.021165009591610693,-0.020394738922684556,-0.025509853714264633,-0.021139798546489057,-0.03349716467251482,0.01927730450376819,-0.11489308182863833,0.013764502477245047,0.009214372575438178,0.02490106423143304,-0.038614394557476325,0.15550392412605774,-0.040541246435621923,0.014593438874622531,0.022165428073172927,0.04530896258184671,-0.0006024882441854314,-0.016423674114200273,0.06374673272879526,-0.10163392998058846,-0.0674734504427187,-0.06682687128492057,-0.03835913871382714,-0.01198126233577011,0.07324726060050137,0.11177158707959739,-0.12099887255689484,0.17010011861048144,-0.00228303748385162,-0.04455304666017356,-0.2349968718063075,-0.2440093258489722,-0.25935812762324395,0.028141729073902416,-0.011178353212645533,-0.10314756097262154,0.059292895126532144,0.0701186834139297,-0.010371811530730482
40.8598518371582,1.0698966979980469,-0.22448810529148766,0.0843393440988719,-0.06745895450082903,-0.0916684580863738,0.19876399959441687,0.07003752474383884,-0.2260776825364591,-0.08116892193448906,-0.09201819514917346,-0.02544901529790755,0.0026535476915097046,0.09371969920416921,-0.21742407734364125,-0.14445022980895916,-0.05427418186880049,0.0335304229694844,0.006475499029063671,-0.04441717428699479,0.017039378438070883,0.015539887227538535,0.027840534637889845,0.029527985795538718,-0.050559294123081716,-0.10814348446178294,-0.048002999957504476,-0.06398788417697444,-0.0683602412025868,0.03322693601492181,0.011052764173024657,0.01978350992936666,-0.11136833795227852,0.013613371521970393,0.07150284404617273,-0.1451917397064882,0.04486867306189104,-0.016269898826240473,-0.038295668785073775,0.014002899977083913,-0.013448594548363895,0.024836846989807062,0.09290025759033144,0.0080824000525942,-0.07715657052431307,-0.029270363539879357,-0.026960012593468703,0.04898753049367738,0.011318166396960748,-0.018504672272846495,-0.029659337170963578,0.05885959353337124,0.06708942827120505,0.05729552761075956,-0.08158588350376042,0.015597851215468564,-0.027729055217654223,0.03794094632428751,-0.030273232509277243,0.005917812402321351,-0.0006698971461165798,-0.03515138910521736,0.03959970953195153,-0.012055567323045156,-0.04867934975583561,-0.022045325550226137,0.0254338694340514,0.07224687852635668,-0.014820304299829152,-0.07949389489121497,-0.005995024191014596,0.05992654652189209,0.029896045285695644,-0.015089600174123446,-0.031528326013117475,0.03490202792988947,0.04470104465359202,-0.010751465032129546,0.010235642983801052,0.02664474878171149,-0.042669050392285135,0.11554014228791586,0.05221072292249123,-0.05151528072819261,-0.037259080522482495,-0.15108008398403955,-0.169992379735977,0.06420463084640993,0.014389747182479547,-0.09401082751886833,0.03437218070940702,0.017288339617524996,0.13190669268702765,-0.1791134783993457,0.0351034834936374,-0.1454457244923035,0.01681962770840066,-0.3157256064460148,-0.019279390499097774,0.08038933016949892,-0.056657845069163694,-0.1617152104666139
41.92974853515625,1.0796012878417969,-0.30001066935002035,0.06548695330588472,-0.2988250617235235,0.18499057800572194,0.01600798825066196,0.2307026820371063,-0.019055012085135097,-0.06822083479857541,0.13865977082597045,-0.07406597722222187,0.021887715025005847,0.019571247493943355,0.08776989263213425,-0.006424730377947753,-0.03993050188283562,-0.03550025151192767,0.014155422747668157,0.002081637223860255,-0.12348574164671769,0.015016324182923447,-0.0663819915189778,-0.027973373908367186,-0.05450285193533119,0.12797690438952955,-0.02399243440641394,-0.025351626161271235,-0.03268896726750666,-0.11753532041221278,-0.0022547130002096953,-0.02600966921330828,0.07716085008888111,-0.026618044544707124,-0.02367809638058723,-0.018661486133493044,-0.01951153129734508,0.09990456891207668,0.13185247665671582,-0.019964478012036047,-0.011118637883236117,-0.0014794791956101987,0.07693503159416025,-0.07533450754356538,-0.0010855317105487594,-0.013727035732665371,-0.0015520157897775545,0.05577394787275821,0.003479507773966104,-0.0107842618981802,0.01030167721508815,-0.05517031179695181,-0.07421300044732534,0.05178247413138073,-0.07073999896749902,0.026209769003307116,-0.03378903574985175,-0.006471221630669963,-0.011322101365370468,0.04011574492515472,-0.019711837597864018,0.09459859549749253,0.08310852984651072,0.0014509738422848525,-0.05141705684444845,-0.07764514864275626,-0.0595208834439617,-0.05148830669174166,-0.011871835435072763,0.006472848467335916,-0.004983169935807526,0.018301263232285907,-0.01156872282603675,0.0038150492983899525,0.05629682577848434,0.06048835785587436,-0.05833694628254186,-0.039582809975525844,0.005077041222568631,0.012435011587624521,-0.006280271738346874,-0.010762381033784098,0.017395311637328686,-0.040680381502743064,0.0815207082030209,0.08043471049970281,0.11664568734423389,-0.07995163117071617,-0.029841496179867325,-0.1420063928570737,-0.1534154794690798,-0.09062616329728597,-0.2533124347645961,-0.23307374061046562,0.15012963183845807,-0.11217831549502412,0.03797732007273094,-0.16878580403067311,0.03911644862761862,-0.011089211880978667,-0.05643775265380289,-0.03487012660868219
43.00934982299805,1.1301002502441406,-0.035773072385123034,0.006882788463341406,0.011347492960791128,-0.125500531432905,-0.21017690184892127,-0.36549744253631705,0.12858293378707336,0.17252729574517953,0.2020396073467798,0.191763422526857,-0.12153157820212855,0.03433495773140458,-0.02695445679206259,-0.030619635797795107,0.005350148861573391,0.0227828548879589,0.1580617314654853,0.024963748079518816,0.002370865110495654,0.1495102760725728,0.034179137926319325,-0.12879891207570535,-0.08792754522109716,-0.006242399797746187,-0.025445639865650446,0.04808178781230811,0.024640650493906284,0.039976973153591,0.010852985869214793,0.01313957458285259,0.03829688075300165,-0.013507979576725705,-0.01605884439087433,0.009080380484519649,0.002074295034206369,-0.059741621266489096,-0.03902922938796762,-0.016633757666082417,-0.038871194688668176,-0.07939921617249746,0.010879196371396192,0.052108605393897986,0.03029629341188681,-0.07392769927672528,0.04404401411844764,-0.010892915729946141,0.008145975882634956,0.03355745255512952,-0.0304951418250897,0.015568518897903859,0.04073321125206305,0.10190156759780973,-0.021502842601596014,-0.004054867695611701,-0.006919352464699824,0.0030520185752835674,0.02563983996452794,-0.047775186946650235,-0.061932512216372096,0.024647385005003603,-0.008141141310632434,0.04319389094488168,0.1320318663268229,-0.01019562162036352,-0.03381688680885751,0.019818724653672126,-0.08891414366705652,-0.01111461102970629,-0.07111989508031738,-0.014049832528075169,-0.022093380702670376,-0.07437652896080138,0.0037584902269953667,0.12002928903596648,-0.01970547290369311,-0.11587330279363305,-0.05030539245213533,-0.0002100685455980536,0.026850687906325114,-0.03863973338991246,-0.010082829963473153,0.021451252577534222,0.015862983634811825,0.10131389404276701,0.12757689115976006,0.14246775012828258,-0.1184236689486747,-0.2162255516240491,-0.2855088386823094,0.21899607863081894,0.07634462803187989,0.1042454059567056,0.14553321084024468,0.3647380859460728,0.14479473107586446,0.05124710557719378,0.10769141814718018,-0.14738076094395341,0.007372342085698131,0.26224916176448737
44.13945007324219,1.1697006225585938,0.10524398516783687,0.00563451791403987,0.1154547867716998,-0.015906985282743334,0.18140272146213107,-0.20005704525804127,-0.14981380508903108,0.024962063845227273,-0.04079321787332478,0.00698354192343785,-0.051423728597233126,0.055985365083523114,-0.05374595397302253,-0.05008942796934203,-0.03599591010142505,0.12223934437721827,-0.005051455967896226,-0.007799392169328583,0.035909538511386674,-0.06278024226307724,0.0064218179526675245,-0.011405769143280987,-0.006261159538397617,0.06291148158542546,0.006946303445132058,0.0754403473059921,-0.029792553827050695,0.058744846656077356,-0.07693172743708458,0.003893961540021981,0.002810694321243753,0.007733942552377072,-0.009472191818783088,-0.010757363996962895,0.0017604406304920204,0.047145873541160115,-0.0020850096934499057,0.01705989119027245,-0.032420298512443366,-0.04336979466700047,-0.12468449139509873,-0.009077411254932678,0.00635312198297396,-0.03537974278167327,-0.01764872278510895,-0.009732972897300405,0.033814589048443255,-0.0011420723661730962,-0.029101352036121873,0.03830228983985636,-0.022121092217682048,-0.011055666074697908,0.0049887562923525836,0.02981305929977434,-0.061673631146513606,0.05107135987248448,0.017650290239606358,-0.042247208619738776,-0.012529399570108445,-0.026097770043410747,0.043388346364296566,-0.07295879871821953,0.01582050146637273,0.0010976083998843222,0.0016309987294433805,0.024957291721824804,0.05567850422492959,0.07016935898268095,0.04768708427942625,-0.030982723995943744,-0.03773243085771052,0.05382640498099704,0.061421872088155124,-0.002346119283712306,-0.06112137622579192,-0.10319311527176234,0.013075097832457826,0.03935637259366979,0.037559284339241265,-0.019091075609522903,-0.05032592019504842,-0.024797384238508722,-0.011362572294358506,0.12533539720824063,-0.06146870771101481,-0.08403537005572294,-0.017577175464836142,-0.07882398906984554,0.010621543794420008,0.0022400163462158035,-0.17455464079987432,0.12967706301278034,-0.15199874566205795,-0.05337077125034717,0.10351486902216368,0.25083762140860366,-0.10664879845815331,-0.27083391372582943,0.23136239721841,-0.26232602191646986
48.71855163574219,1.079498291015625,0.23252318165686878,0.05850992593001942,-0.21156889886453112,-0.2981295301045984,0.00930398788769786,0.1376322223387893,-0.04138478729057387,-0.05352930188196289,0.0022910610188518706,0.07083039432138614,0.020174381262592057,-0.002033261267096409,-0.1598352880771962,0.0643299075724465,0.1088894390371495,0.017948095228266705,-0.15139026963134428,0.194690834939744,0.017977786492714955,-0.05453611076257459,-0.03882087330175657,-0.03786491472587589,-0.030105579037184527,0.10604883566632539,0.02508309772169218,-0.04416741305935536,0.0022186733008122284,-0.01631739335429668,-0.03637634291484435,-0.09274020113178275,0.011344205851212185,-0.004175205423350609,0.07083971677976256,-0.0013089661889849466,-0.015539960196380681,0.015355245834256437,0.057343824880468686,0.0037824028820226197,0.037741878283066924,0.015520276433660295,0.10373529554335649,-0.000608210075126118,0.006673714989404261,-0.01919420035721872,0.0008678770854315859,0.030430173838842785,-0.02195130127489749,-0.03631880933692318,0.01514779094374808,0.02667582595370306,0.01259621492868826,-0.07164819874122724,-0.054944315059070985,-0.04425367752820544,0.033403457578695686,0.004433337656598792,0.002238224462123537,0.014296778848898645,0.13626889424233868,-0.03212611043325862,-0.1104633951230937,0.014030758564762064,0.018398160384723874,0.013837225353329007,0.027599586679636835,0.005617801707059956,-0.003503343852595273,0.14499891878818358,0.02824680288952307,-0.08305513717123839,0.00787706949564018,0.03029448246350998,0.03425517292063082,-0.06202290919268773,0.003149089747612374,-0.02381236542586854,0.00938975841438547,-0.008411349852580536,-0.08509671492472198,-0.03122703047107593,-0.01634819435149555,0.038499395974286414,-0.022209868267091724,-0.06577330705532591,0.0546682333739578,0.049484280496992925,-0.16063717996367471,0.030928435108484267,-0.08631349505809952,0.739374347241318,0.22724149783978448,-0.03975154746693309,-0.09862669955168815,-0.422815448302822,0.040167834594692545,-0.03915964986297752,0.08208846094672126,0.028893896469356556,-0.09964095152181299,0.27835488078448933
49.79804992675781,1.1300010681152344,0.1283498817248785,-0.05515701071178604,-0.007267685438383435,0.2703356363562786,0.0775944474345555,0.1350084947326438,0.021933877865119418,-0.06334005076951855,0.005123275445364395,-0.06277556184958978,-0.09841632671913647,0.12847317947437786,0.02651257125295527,0.06921087928814161,0.047350506439821485,0.12002215482834044,0.024536276592021938,-0.10993252406147899,-0.0194456189384717,-0.003346582567466766,0.0006409328677909811,0.035020868683957686,0.02639230985467401,-0.004050899851497866,-0.048364324375606234,0.013280703277252427,0.1256537047451621,-0.044950930844469134,-0.08751124009302243,0.004819344209591101,-0.026405350646664567,0.040147834057232906,-0.009828753053112808,0.036116508786983276,0.000565039253370471,0.031987474137421444,0.11281070570934361,0.05564448882765584,0.01001818789465556,-0.049548021644681924,-0.00012377861243425517,-0.012087302551852143,0.05006032200414433,-0.020067125153816062,0.03271828150644705,0.02201488623497894,0.039148273748939456,0.08638106500142582,0.01582577517404948,-0.060283692665988674,-0.027072509070222833,-0.030385459753096145,-0.0201083480388607,-0.025868234153531358,0.008206025022644007,0.027799054375315057,-0.07622189009801376,0.004686108200718003,0.06808352093015275,0.029250030159815234,-0.08322189315723857,0.012758781245086734,-0.020413775232110905,0.008693391447379406,0.028939757441677313,0.01778406032622789,-0.07851016684376459,0.04112588922567189,0.024711204786151776,0.07702756409861004,-0.058475522486392595,-0.04072639717963317,0.019509841228388086,-0.06456584084662001,-0.00544735538498155,-0.033769001440154905,0.020057279688849728,0.0024957890350742425,-0.009375542710927678,-0.02489845838345735,0.10184663046892217,0.016711901693860533,-0.1629740604648395,-0.005718855865210408,0.1623134612328319,0.08423084141133275,-0.01794292848492988,0.08823787280983218,-0.04020958408009359,-0.13588819134129573,-0.4915044923249501,0.13435689025355224,-0.006134507788237584,-0.1265084192110972,-0.03134266469252877,-0.03115161440835098,0.0908806000103029,-0.013545519222383007,-0.11381231643775408,0.2474881819039031
50.92805099487305,1.45989990234375,0.10005860263354571,0.18819113867862924,-0.02994094076047258,-0.0466190945798867,-0.11703553527248373,0.0896054933800451,-0.11485800089666018,-0.01519480458858795,0.2294604014947626,0.018950993488609413,-0.018639044995028938,-0.05218686695535514,-0.008937397820096005,-0.01373281142828382,-0.033448929126406055,0.13358274779654752,0.05176384156055195,-0.008241535982460113,-0.07172573287367229,0.03484621363577886,-0.002537327138621398,-0.005656738532485097,0.012276020987046195,0.014370410883269178,-0.10451733505386522,-0.06557609521161785,0.0368789466309629,0.060969556854001544,-0.02147762519568911,0.12926713043223845,-0.00029042152738707923,-0.03539388544497508,0.003945484865412998,-0.024432324682692682,-0.003947009188820268,0.004236354974556404,0.11235129094910248,0.006960748558716673,-0.06316693512919337,0.009224213322015742,-0.03837248577527906,0.014746706612738485,0.05018855280160834,0.16801396239600583,-0.08677340741024409,-0.02112796910988636,0.016553447099475857,-0.005704918072365917,-0.018302174241185486,0.02035045069143869,0.10640592015166397,-0.04637024730399379,-0.04787815469905893,-0.03556016992312914,0.03366929880568538,0.08459181009619897,-0.015161037907932582,0.10415733829002372,-0.05084054335607427,-0.04554458318674456,0.03975660564332553,0.043825549604215745,0.02610634064476797,0.014437391884509515,0.11760128233671738,-0.011682051734335574,-0.0571596914125703,0.02708853038514905,0.06340789713153727,-0.025104450309725815,-0.0076238342883133085,0.0616457122653462,-0.03028138395554312,0.045559752391855904,-0.009973421991381163,0.08585928302997388,-0.00474132703806129,-0.03270051763102166,0.038429850197642786,-0.0023757342591055,-0.03149463235958795,-0.0449324351114779,0.003592606005601024,-0.037340784870197194,0.05946504172638632,0.0020862559383148576,0.0021193733895219576,-0.22297287552855885,0.0010090325244183213,0.008667242665991472,-0.08700155006595275,-0.011709248405294099,0.2006059434228502,0.20818321127154507,-0.034456482580406955,-0.033051870739084305,0.009780190007350191,0.15888905998921507,0.09916299497941461,0.20694541337737515
55.7176513671875,1.0993995666503906,0.16634701863445234,0.04463670876147093,-0.1416238012780184,0.04393433077760069,0.15593528921309688,0.10408058480028712,0.48118710321839786,0.03157535460479687,0.09155503924628437,0.1459133844960231,-0.04146743651195872,0.06103976913208839,0.03872416606165218,-0.06819818593935131,-0.055222661198824054,0.0035225545290005177,-0.008577580119832584,-0.019511628372689934,0.04114327324508899,-0.020619017704945595,-0.04871268631596254,0.02841309277780315,0.05471621191925754,-0.07083102538559398,-0.026623384634981206,0.028158578636243842,0.002214422929239506,-0.013142980419983397,0.059129630163225394,0.02065879859175275,0.10275363924119155,0.017827352569419586,-0.07676783351050241,-0.11887916977688782,0.003870598022663578,0.020321896303206355,0.06570963800002037,-0.007578978535631843,-0.01513236977624828,-0.03777716449792326,0.05002826145258927,-0.002957380983280133,-0.03597681435360925,-0.05367166384093226,-0.014544540534081609,0.01564095133957665,0.08996248543576277,0.014974830476318974,0.045800363541366816,0.03034769358270568,0.09496462878615791,-0.013010505352687881,-0.1085696130754235,0.025264139394634955,-0.019656111992294202,-0.0021117355635789704,0.01737083811964782,0.010652952780259543,-0.009855529820184871,0.012710672690137356,0.08412868389689784,-0.0028924032218542927,-0.11957730994967573,-0.07156708861673632,-0.020213475730020705,0.005124018859573476,0.09404931508813939,-0.06678872037783302,-0.008728672861868991,0.06573303800768551,-0.0022060909393368557,-0.049807357172655393,-0.08751715813452292,0.04085972195175639,-0.06621134027812163,-0.14870900039425256,0.09596439035351166,-0.07199847895718606,-0.04416085545062027,0.09087776597156041,0.04912331893373606,-0.016035135568015637,-0.05580675983198738,-0.015839128106855935,-0.3028008295471934,-0.014723191752579504,-0.09080058304331447,0.025077696173063938,0.14521447988734956,0.04884522779668583,-0.011729741435985888,-0.5714142070976796,0.04151317912961319,-0.22860226520960228,0.1396662500186045,-0.10645817108717877,-0.009594629729854184,0.1660385572971044,0.027964258008239228,0.3012850507022589
56.81705093383789,1.0995979309082031,0.2873052725043129,0.07877456536111647,-0.09879289605973438,-0.23947559732109364,0.03585753889025782,0.08502459761403659,0.1329827471775256,-0.014111930481152113,0.1439185723014818,-0.004010540927173867,-0.08925301934474231,-0.012429051998106688,-0.07183297116681915,0.1284731714830348,-0.05286521320331091,-0.003984056412605394,0.05919494773823643,0.10267863410630856,-0.0426770193427964,-0.15169207815276445,-0.021370471311084153,0.009801948641432027,-0.0017218905456933297,0.003194456878561369,-0.0036536376259769156,-0.033314268201123355,0.13722422865439488,0.003451858348326548,-0.05460231921733377,0.0012315488012708126,0.004902930294491839,-0.0038493982461083134,-0.00864449701710253,-0.019076674549636574,-0.06993198513133213,0.07417667598002976,-0.01903576818897993,-0.023152767477011473,0.06194850136813097,0.003246179406523856,0.029757729686259955,-0.01139530323857792,0.05894322931092354,0.030611293448646916,0.09980094582167529,-0.01911122273297802,-0.0315707857939328,0.03289911688745819,-0.05224096547012898,-0.08451425375606111,0.11398472351771963,-0.14749723808912107,0.2305193352115636,0.03882778090617468,0.0009794909314223986,-0.004467704580269405,-0.003947583952865995,0.0072520446267668156,-0.007767235552765974,-0.008649241368431159,-0.015558415365082814,0.06722232150180187,0.0611423396104448,-0.09612351982367569,-0.08229493652980853,-0.08478004578950271,0.040051844754026754,-0.004864448708906179,0.026125838493559393,-0.12597156575914256,0.05858568433708706,-0.01354673134250577,-0.10976036136285389,-0.04635869475185366,0.0026281190617737644,0.012089092405896416,0.0165112010717095,0.01748381977068547,-0.0018898464384323871,0.05702125241414309,0.013248303313063557,-0.03147778951241002,-0.08291483485074183,-0.13475101651124652,0.0676670309178504,0.11563673291109723,-0.028066159126600876,-0.11499347468608546,0.0024372306030710084,0.5522807936419667,0.09719679490571406,0.1512705662964627,0.0844443645312558,-0.4641839292653198,0.0781359160558948,-0.10308399270606297,-0.04751615247131376,-0.00810371521622269,-0.07374896999013716,-0.03563701316875685
57.916648864746094,1.5303001403808594,-0.036032886781142026,0.024125141885698895,-0.02334231433546876,0.02528425989154415,-0.05027684733475938,-0.11315147555267491,0.06301761111812207,0.09191883211267274,-0.11094015533027914,-0.04580927031315269,-0.003493675576914129,0.024630319417356154,-0.07560473271867255,-0.03636970541777428,0.06388177847656025,0.021522050023588098,0.13936502333146328,-0.08510579919454447,0.04001405062169959,0.07573738706942065,-0.034768312892541633,-0.013052476529226961,-0.05882389674632282,0.06918170735429022,0.13713344771071723,-0.007200447132879467,-0.019016410019870155,-0.011917061495253012,-0.04033235071684693,-0.005231246913677439,-0.009322480919255163,-0.009579658410444097,-0.015442439523091107,0.04026438551359501,0.01809023035370504,-0.03345143177169882,0.0012889481012266625,0.08222986492403087,0.005605364576456111,-0.02976610809136944,0.00234974868657662,0.0002918371638260253,0.09117132922740569,-0.0017647992443351474,-0.11835099285846927,-0.031376970183118774,0.0030946454246455145,-0.03540827529750908,-0.03523600825974142,0.005919075108902173,-0.07810500812913214,0.14456685333585578,0.061492954494126464,-0.06317968364726334,0.0045383030512620975,-0.027247202734983468,0.044183519458868434,0.022952450247073437,0.029147507459821184,-0.0307581362516567,0.09683594144387961,-0.0034963676742678232,-0.02917773227582578,-0.02777808139106036,0.017432396936234218,0.018567629514361163,-0.030023829363636706,-0.03360845048084456,0.03515727501160866,0.025647406869078578,-0.045650057861458856,0.008279545251266932,0.012667203476469217,0.020723499550908894,0.02490322635150386,-0.023295368661524762,0.011784573798103375,0.04508273521994538,0.029184192533777867,-0.043523927799204526,-0.08612080257400341,0.04447193009908041,-0.12942238740126472,-0.04116256408022218,0.08828817081236066,-0.03842124242334233,0.10230760086068519,-0.18024374654736458,-0.521247835098073,0.17280751439199146,-0.026746626785445652,-0.3603238201334214,-0.3342043000403099,0.22307418045341243,0.006181991932935047,0.1427611620687691,0.20589890206657316,-0.056250033959727816,0.02245033382067047,0.017734307968029155
62.71604919433594,1.0900001525878906,-0.07477802874363071,0.016873750200684347,-0.023062432296705442,-0.00038880385238348564,0.014054861046013138,0.04789798593034654,-0.03089750165406056,-0.019228901777391436,-0.03381318142741459,-0.042047301480586115,0.11778515385124869,-0.03200314089308595,-0.03255858064414545,-0.1033798147098899,-0.04645232371238922,-0.029236798522563164,0.019372610688665554,0.0647265873075105,0.08984359586006095,0.03691902457272796,0.03108176974994827,0.042446579765119334,-0.055219324698633665,-0.04571482074925491,0.10290021960613208,0.03715397827156143,-0.010146550527144239,-0.12933687751813058,-0.02258425817877946,0.0006995684089536029,0.004314812174029687,0.0029894757814829436,0.025935646131369564,0.05946342324858891,-0.0036953188417317307,0.060177121935934504,0.04662147130128429,0.05590724887068192,0.0397033454775027,0.0003354719767817843,0.030128484562272365,-0.11818510618779762,-0.04431852864752366,0.055240596147969376,-0.001536431069564928,-0.04168853771721369,-0.025244956739043745,7.992813341643843e-05,0.0157313903274782,0.04262919276108516,-0.07610446084207946,0.047129926799923776,0.05711047329278607,0.03344926747905565,0.030063687892398612,0.014902535238397975,-0.07021952690036025,-0.049092741169383815,-0.0173508293085679,0.022110564195016853,-0.054298234806579346,-0.020464632719142426,0.04291972426984926,-0.020337798182596803,-0.0203771052118419,-0.02979173930035246,0.07038744742985609,0.05303044139048158,-0.041303039299969896,-0.06907228504686361,-0.06466452017825335,-0.07564695723846494,0.009119649787250071,0.0035217718477614235,-0.0034738270440203742,0.012498297821509956,-0.08478930389466827,-0.04503835233990392,-0.0012236154021143465,0.08359297733258766,0.09233913847784311,-0.0005703000211508425,0.028312108032454986,-0.22409396111850138,0.15863113025135786,-0.03538146341171695,-0.062288362357963784,-0.13353055365083796,0.14534110809793183,0.11483185209725047,0.0730454366405066,0.0661851297536778,0.16823070434890297,-0.0033596485208998994,0.08120627385209986,0.03458970031294453,0.07080286622930781,-0.04480164685877247,0.11634566783997337,-0.008044373710350251
63.80604934692383,1.1296043395996094,0.11363330005106176,0.10960563922898868,0.12626481198075606,-0.11226413835206223,-0.05871108334080846,0.04282924946552424,0.04179855319969922,-0.1512949560549632,-0.0482857714574927,-0.021314981515367332,-0.013034304004567327,0.04945128483248497,0.11471611536137998,0.030098829783468783,-0.016059905544664133,0.12186937872615305,0.001184340481839877,-0.038427430678078106,0.011145107183826032,0.03730892276912091,-0.01850489421729971,-0.02399054466920136,-0.0287012722090879,-0.006339373314535874,0.08326396031460263,0.04401409423044915,-0.004434787939259408,-0.15027286121461367,-0.06190297417827581,0.010195944571559262,-0.017737771946781566,-0.03137254810108332,0.10320504114476611,-0.019097119739187877,0.00833395766686707,0.08478583819789513,-0.002850860516298705,-0.07132395989130792,0.10686468483071919,0.027099558563378014,-0.05750343489212943,-0.02201798172266745,-0.04026520145998426,0.029296070376707176,0.07601125259738327,0.12269754834641682,-0.08714925696397013,-0.04615684955975079,0.005821201435966761,0.008496909541200613,0.009593984496233568,-0.09489588538198088,-0.0587404215005151,-0.0012815809872364914,0.09855534162073387,0.007974899359912422,-0.03968731437771453,-0.004904097145874996,0.0001831322773931509,-0.017676969228730584,0.0036964745535439185,0.01543823739921838,-0.006908616466198492,-0.039490138459078825,0.08668050903808716,-0.03745781345011398,-0.1489557511490809,-0.026982006315701933,-0.08968260768730635,0.003060501333310886,-0.0132701189216302,-0.028783958030111,0.05117710569569235,0.030877126946945766,0.021551397284862772,-0.05840953639507811,0.0003969872787533274,-0.013959377270422815,-0.051442887961227965,-0.00898176765239042,0.039386720037618506,-8.085922638332937e-05,-0.07258071910879833,0.18586966490959111,-0.12085625344844554,-0.24712930814533446,-0.29307513612464,-0.11425161372834698,-0.2509012875270604,-0.36447148472133084,-0.16715218947179822,-0.06895411732106221,0.40794060994908293,0.7867292312857996,0.09444496848281306,-0.03158898166732393,-0.03368241739492528,-0.03660571611120107,0.135889457317237,-0.09188326104372652
64.93565368652344,1.5796966552734375,0.04658957443446671,-0.10353404631430749,0.018374785308735014,-0.037143879041945035,-0.10725904986077116,0.042277668105185635,0.03751050766743012,-0.09316197810877423,0.005167715140508927,0.10011509387686693,-0.008430022460949706,-0.10570562106782669,-0.08467363890346287,-0.07543655437738789,0.09689751407887089,-0.0073136693776829995,0.029805507423558822,0.06190393617164585,-0.05164410238285048,-0.007085701674227903,-0.0063704221294569804,-0.034460678803928974,0.11878250253569081,0.09172848807914553,0.03151595243523653,-0.08881793804505056,-0.02421364475145714,-0.0033070010051588932,0.004289772548991086,0.003939767262861468,0.030610232913177268,0.08229674263002448,-0.07732386090143259,0.038217998844638376,-0.05704788309725946,0.049264467600810206,0.029850637421138318,0.052412983627649665,0.027790680093995573,-0.010732465002493558,-0.04036507312010697,0.009268190412346776,-0.013906241217702453,-0.03906132551149705,0.08076003739969072,-0.037320324628751976,-0.005648759495962023,-0.06677264742871883,0.04328318324848596,0.03820236296293231,-0.044911252993242855,0.029717310152247465,0.016073913806407103,-0.059733461176370004,0.05984702732795243,-0.024467840973105535,-0.027557149387090592,-0.052071703069998206,-0.00544733541897377,0.01357382568752618,-0.05416751783826519,-0.07671413832877258,-0.03662499366261698,-0.011671535708502705,0.07187841567545887,0.13877904578719208,-0.004063604792468159,-0.08379631806055564,0.037437750686503256,-0.08823230712429234,0.08273708014300377,-0.060412733055216196,0.0736943440650196,0.023019283749439543,-0.0272637986994132,-0.044864231090821195,0.02339063415043668,-0.0036752068443744205,0.009327719491920036,0.094394689969365,-0.03363298175710945,-0.057052041497529,0.03703133808257811,0.021885075291600126,-0.002193096003978281,-0.010664879131929404,-0.011014825774224213,-0.2963783498939825,0.001876183811944987,0.10101446165509806,0.05801291855078846,-0.042512216647712195,-0.054660802447086564,0.03291304850287845,0.09743286960122542,-0.005872183970039718,0.06331311807724044,0.1490361209603373,-0.12992264291141115,-0.17874257329011148
69.86524963378906,1.0998001098632812,-0.028659638087618157,-0.19934812866103768,-0.032024942035049936,0.10972460544975278,0.0016781768407325521,0.12768041331107277,-0.16406438362720988,0.0069242368549010044,0.017597620460831253,0.0027726039762388443,0.056695734563577745,-0.04000282181546725,0.046437626433369364,0.04412928564328423,-0.05826459286839209,0.03535645952030365,0.04311178811816237,0.046678826897989904,0.0165686434080953,0.03469266381598154,0.014059848903203075,0.06522344910385604,-0.08687023084034509,0.006012087970897806,0.004624863030020644,-0.00037277393407994796,-0.004463686005723931,0.025646196388031645,0.060169020516492096,0.07026593396885891,0.03572289200720302,-0.06842992379797096,-0.05228420676441408,-0.019020878988698066,-0.005647827303898582,0.10498761782886028,0.04203870703695321,-0.04606066012418947,0.06811806735589356,-0.004392144648462451,-0.12303568956147949,-0.044628789220302736,-0.025588123065265707,0.022000283661375398,-0.024292211296468486,-0.05547021727565095,-0.01426277260225429,0.16103089039028076,0.023905006833432968,-0.009523956374132902,0.03740520531350457,0.037500404208002186,0.0375921637655043,0.002069267855097181,0.01719084975757298,0.06315669473157688,0.0995896352349626,-0.04790187686395133,-0.04589423276650392,-0.010935935300705454,0.002102742704472629,0.015723567788661484,0.0030751247357645407,-0.03228857640819861,0.005492606994355564,0.06926253281061752,-0.03033727833028181,-0.05254934042569587,0.010780330987309631,-0.07872609191931766,0.057228211040772185,0.02539866206526915,0.0022927593101906216,0.053391878053950306,0.054312245070973875,-0.06609683365978497,-0.07643394385590142,-0.025158187403940446,0.02430080419569267,-0.025760639691485312,0.024149595898927248,0.00422312978251585,0.17200649189885125,-0.015981984213391417,-0.05556758280514512,0.11125210161961557,0.08725134739817378,-0.22266057952917184,0.07020329090769122,0.24185784332965485,0.33204782848033465,-0.07604236629805318,-0.35655093400074295,0.08586138103314028,-0.11939585851198614,0.4831654791536697,0.004057554999966636,0.03875278442997776,0.028952500311447985,0.0016653554414576693
70.96504974365234,1.1298980712890625,0.14377726270983418,0.02055385076209917,-0.034921381156902666,-0.029069706358295564,-0.11509519272520914,0.21790066660957752,-0.02153217829069635,0.05896563741756942,-0.060215024501831256,0.08696505086232265,0.0544833831811887,-0.13238765094150007,-0.0012992899978642551,-0.033448034805473294,-0.05936115777298982,0.06707079776450808,-0.016367838548031047,-0.05877471409052049,0.1264222065942882,-0.01218172585182159,-0.03547688168000062,-0.05107462315109174,0.00214485310918405,-0.011520612556853492,-0.023220761530555065,-0.0654581563356705,-0.06904185980747504,0.04480594154277433,-0.021172230241177793,-0.04087255630108756,-0.06673719437110949,0.0347186454740973,0.023960966113288924,0.02744532786743254,-0.03211958267664342,-0.046198670817487776,0.04823622876828676,0.013861429134095417,-0.05427640601341741,0.029973551886317718,-0.04892321051497947,0.0024350890311644006,0.02819152998496282,0.02912168947435205,0.014668211975538427,0.10814813884424887,-0.0228103949867974,-0.08345526423468191,-0.04713082025430897,0.0245963090950563,0.0790671067599439,0.0005045843055631548,0.021068776653381013,0.01650425579900244,0.10156482935705378,-0.016593058702770308,0.014335498240793932,0.006253444474431168,0.00027274774382203505,-0.01117419067992409,-0.012007649237452067,-0.022738014684376875,0.0328419059158643,0.05687621665001883,-0.023233533835700516,-0.03840733124521138,0.030321169849894806,0.042885842115910774,-0.011854722177978819,-0.03778170303580605,0.01169384061097455,0.03868147527661869,0.024871568596564586,-0.05668274758809674,-0.029513862250696292,0.024509722647883623,-0.057813304831260806,-0.005781776450036898,-0.051519816465690656,-0.0159435511885755,-0.035205372700632266,0.0520588219241129,-0.11129101629997228,0.037638885112045405,-0.04618352889909145,0.10729492450497329,-0.08569220271635455,0.06527386425545895,-0.17467554582014166,0.28120260986560036,-0.43792896253073565,0.05366012529039615,-0.12368785138205067,-0.26491923264868805,-0.437533969955679,0.11629316110912125,0.15431398194655038,-0.009597938214661136,-0.0031079262653097555,0.10446307489806872
72.0949478149414,1.5896987915039062,0.10551555125798195,0.0443300981938906,-0.10778509180081021,-0.007441229540845884,0.055780669521529845,-0.015122387317719919,0.04202187019066614,0.031216545271724842,-0.11028084733613312,0.09724092296990168,0.06973414182354591,0.018518136639125327,0.10059688211767441,0.20658386216419164,0.021476415375599828,-0.03791978868530712,0.06904058645561682,0.02597748114915907,-0.04347800323519831,0.02503367321049533,0.09380950612833397,-0.011269310656571267,0.09224322876023064,-0.0017374240005499492,0.00045012324020735246,0.03098856614533914,-0.0007527700796605134,0.07375081202412767,-0.029137674558752297,-0.012970178218364057,0.01109776798268051,-0.00885039184833633,0.07107943802180587,0.027058901282028883,0.10147046887659507,0.011144721856933059,-0.04088488746237191,-0.004829284873725228,-0.015770896471653577,0.004914633346717143,0.026889259665122928,0.11737993715686577,0.004148223608606616,-0.03474885482035843,-0.008319292941630384,-0.010107742292837788,-0.01498110381496822,0.013914841778970777,0.028099725904499433,-0.07627397037765199,-0.05729883984497988,0.009702249913391742,0.03384542153898165,0.015680141120606547,0.03987347073874002,0.04179313053088421,-0.035389018156292584,-0.0225331252605084,-0.06186790975277214,0.027969667349027585,-0.04146396879047472,-0.028163820801428083,0.10706508400481102,-0.05502621523079802,0.0023807813643279057,0.02234535049920644,0.012133377987021974,0.005311672946000064,0.10093450969618079,0.09606213932805996,-0.07290293696624438,-0.054232857574800314,0.13430689143239083,-0.04191079200913221,0.05444834421398912,0.009360060960842423,0.10577075068758039,0.014729688979197611,-0.011292551287484803,-0.07598812394834675,0.049707234329739676,0.017081976107670274,0.017280743596592495,0.005602045883799853,-0.29157579827199936,-0.09954172021531661,0.11148604582017174,0.11004935504265818,-0.3380588055096645,0.01673608160568571,0.12674012534925191,0.14042078837335792,0.09905943364822282,0.06090506128058798,0.1212064229578725,-0.04393874174688617,0.031865029472734986,-0.12521741852561583,-0.16609911947185146,0.10283679751113026
77.0040512084961,1.05999755859375,-0.013337745372377918,0.00041828340609931236,-0.056139697331808944,0.12244709976721825,0.11794464764694701,0.0422851026270708,0.08982642279542752,-0.03140974479693016,0.007634095443726763,-0.02639757522477328,0.06818557984528416,-0.0730620674707039,-0.16128523096778494,0.00909571687784608,0.03567487720297202,-0.0025507295217842255,-0.034329406047223045,0.07654601955968905,0.040775906515624905,0.015817562223981535,0.04884374064491942,0.015240780114583635,-0.0006401319341827808,-0.004220762408066311,-0.04371631834133259,0.04154838753117379,0.022191915893586257,-0.006024169653253178,-0.027567288045207212,-0.04254048377528811,0.08828762085709937,0.07482184755638419,-0.010263352087655709,-0.04219681489421861,-0.03578743594911711,-0.05388779665114111,-0.01678191456387065,0.005497532640126288,0.006072970183229933,-0.06167681349143342,0.03356902085048172,0.011169200696105948,0.14585035880232156,-0.002804549402929703,-0.11294714513187097,0.033091349261371875,-0.0380159979423856,0.03273059231926785,-0.017781619180227907,0.015836851820649155,-0.05590172126909466,0.029703714284771896,0.001978589850722319,0.10767720269129315,0.0164210333965977,-0.0119964720613751,-0.06955170743852178,-0.06887237531543572,0.029339018245094904,0.030365121589910872,0.1013257317516814,0.025686853620401462,-0.012682353129508816,0.09955654740136952,0.07561036366464216,0.050828254752295805,0.018327760724960007,-0.018772157101627676,0.04721851439995442,0.019408291094451538,0.00023027152506780064,-0.024356340057092595,-0.04233141388996421,-0.040347759054150736,0.16294297426035184,0.059547587716556556,-0.05531007744330508,-0.05462543161727086,0.006137666414120721,-0.03500869675459072,0.03512884944257316,-0.012566759440330045,-0.01920669457525999,0.016777949646259047,0.033922554028334495,-0.0075729731557904285,0.00024395480535873798,-0.15103358387439453,-0.12642269733903422,0.5523746493376089,0.6907923178379011,0.44130531752109303,-0.14543006820383886,-0.13308667344386224,0.2750822548427585,-0.14602227108905302,0.1733500461946929,-0.010790456083165931,-0.08391502262782011,-0.16636454620204194
78.06404876708984,1.1399002075195312,-0.040100936044083664,-0.03350470072889738,-0.12076904414952921,0.19262640311661527,-0.16758269007968324,0.10360713340843791,0.023895811853805876,-0.05258897659919654,-0.07335958935407616,0.049703354932171775,0.022403492639643002,-0.06560463880013251,-0.07874762423230071,-0.13206528539881718,-0.035718408651679516,0.04636621656710538,-0.010404683038536075,0.003501455941570253,0.0371264602026397,-0.024439058524473214,-0.007006351424879145,0.01276841632607503,0.0038672430660309553,0.08343808719099938,-0.0019444530736451582,-0.10563165943958014,-0.1378213133897508,-0.0496983107799212,0.01934912354483543,-0.015504674523411706,-0.01009371451063143,-0.027725794344371713,-0.013033414541611395,0.012109221169541903,0.03571020031609134,-0.051297551918631244,0.07152681690628299,0.0987745256130701,-0.013175408087239278,-0.08305318511855055,-0.06454177296022676,-0.12804769856754278,-0.02537644399727361,-0.023214830044985757,-0.004576033176585598,-0.011587454251178266,0.0008508038821218138,0.029425292186775927,-0.0461108562616714,0.027698100311484848,0.13278485227808487,0.0008847051039194698,-0.01065715643366494,-0.07248105117156042,-0.04203663590291584,0.06094274592256271,-0.01978072132157184,-0.06970665448663678,0.1267343459986229,0.0517694328899632,-0.02656260827229405,0.047693505325508166,-0.03250399380089414,0.012486875229343636,0.12495449762186289,0.02732812009454628,0.07516493098055475,-0.08381101647317277,-0.05778832429772243,-0.057957157455455426,-0.0038791795707362724,-0.004958671602045798,-0.07975074928530292,0.01644638067877872,-0.00374768616980967,-0.019850035322699605,-0.016390371392439606,0.014699163997790771,0.04764376531866589,-0.007000855536047512,-0.10728142229931363,-0.11474106102709572,0.026212548665103932,0.16068730236051385,-0.02735723880482173,0.04682493677876263,-0.07984353674610552,0.1506239917628854,-0.2694594501910258,-0.39241506986423524,-0.13821249609054403,-0.213588333777304,0.07624180210049102,0.22313000484933454,-0.18215034362385285,0.11737304613525514,0.12994454563050697,0.01714892371952818,0.08233734662169072,0.008064888456399334
79.20394897460938,2.1791000366210938,0.13232047397468716,0.04920286671596005,-0.028893371493023415,0.3394625911207306,0.0658921103176687,-0.14879770138223974,0.06593503413413468,-0.07077118543719549,0.49728258239539586,0.21290225053605694,-0.018223078519931556,-0.01457732435108413,-0.012844479034525218,0.01740365869597177,-0.035435836124505675,0.0014028726452064632,0.07992131585793487,-0.04250177776974185,0.048609413744598144,0.009524481768324574,-0.03811053756882476,-0.07730826037899281,0.10100337118288048,-0.001997919110141813,-0.02533896564523571,-0.019769219906965698,-0.008670326504695722,-0.0029474523472808375,0.013065680293757088,0.004208796532632381,-0.11806553280616772,0.014606160287976205,-0.05297235829673244,0.008996393164312284,-0.04150230791349124,0.0724565005583653,0.03974434067553942,-0.05199487928386695,-0.05149070316588448,0.03391915830462923,0.019469228221700864,-0.03840493560537014,0.006871094768955049,-0.04492444007348954,-0.05610124457982567,-0.045850921803431914,0.017642935543885137,-0.07785421340522783,0.01609645590054134,-0.04675765211909946,0.03818157026817949,0.007896058306206957,0.05917373351021113,-0.00452605918336038,0.07655363474849877,0.044904236561860655,-0.019347997901793028,-0.1094685821316277,-0.008879420816706672,0.051227095572874894,-0.011495997055374078,0.06140017338195646,-0.07527963421693924,-0.006089381947851779,-0.045800402458140835,-0.02955042433108295,-0.029627332632517097,0.020827511278935184,0.006627739259906485,-0.11625386125360095,0.06045103164584065,0.03114690705805343,-0.07938928616641978,0.006260648767616311,0.042033609194521024,-0.04938800231544705,-0.018801465919973538,-0.02066626091488255,-0.04344902226505757,0.026373891457738732,-0.023473468660505217,0.07049171357531919,-0.11464336261180982,-0.029435527098021566,-0.019363354857547636,-0.00806720683029471,-0.0034690950996075897,0.21508202961387493,0.25848360688135896,-0.08778912349461729,0.0039029916207391283,0.21308848428688407,-0.08954957764603352,-0.23256467326243604,0.13156393197961205,0.006090648449755382,-0.01886961681939861,0.024960149816399702,-0.15524101195515885,-0.2685614236993976
83.66304779052734,1.0694046020507812,0.21995383463834517,0.2524789767571852,-0.18270792654424867,0.0013954061160937475,-0.09004924494882618,-0.2504190242126998,-0.13536404965658258,-0.08993079529220925,-0.07064934112278926,0.039467108807806336,-0.04160497307848217,-0.02093104809800231,0.1157701702640153,0.014161118029288898,0.016030496088663273,-0.11218636554557108,-0.036274884481851115,0.009691324906416282,-0.011556316202662658,0.0392945953414699,0.029472798430736708,-0.014408591166503198,0.08313881034251598,0.09225535081828455,-0.12403505410594551,0.09170344507461342,-0.0040370297327620664,0.0361986172343728,-0.006704067522536413,-0.06133654192014736,-0.008368400036517832,0.1294032921096807,0.06427409423227812,-0.09949576208188471,-0.05649483502710553,-0.012686674149672792,0.006638745857271328,0.06452054870758851,-0.004220726871696083,-0.08247663240311265,0.12365678083744262,0.029524682270574268,-0.09306537303206695,0.005758279128048584,-0.03154631425178611,-0.05884732983287294,0.0154228798570566,-0.013545419351280615,0.03409364269776208,0.09302420238564092,0.019143911296072843,-0.04105454812325814,0.048971614478737165,-0.025973414866290498,-0.009282817865262501,0.007489040524489676,0.0927987067461239,-0.013393336892434046,0.07678300055785231,-0.08434942617780429,-0.007846344956883883,-0.04961415363267936,0.01091355486945898,0.022421715315857314,0.0017677546183569393,-0.033606833842333726,0.03255371969646868,0.02239672559984532,0.024058632360233187,-0.060737105606730915,0.02504958887685164,0.021788976620509687,0.042065742722786084,0.008751103467344293,-0.011980053032603265,-0.0046880654957658086,0.01580316792157539,-0.05800060512202333,-0.0326911900024191,0.001475164857526135,-0.03079253853709646,0.05578080080897361,-0.013703767903434916,-0.00840200766937968,0.2030199096619327,0.16002144220445388,-0.27444789593047947,-0.192078833047534,-0.07125133105741266,-0.40040633218541233,0.05077377627470753,0.11492518050124687,0.5102922813226591,0.16349702020226087,0.4004581225205989,-0.12903998061238145,-0.047745306939482424,-0.09267475179707263,-0.29897922908793995,-0.46196139744860915
84.73245239257812,1.110198974609375,-0.3062122059580428,-0.1919736066911652,-0.25511242828015246,-0.3668500366633768,-0.017903943635999273,-0.05242993196713634,0.24595041721168925,-0.5315208959496854,-0.4399843113228372,-0.149107556462517,-0.15209285368201594,0.3778561455806929,-0.002094865383287358,-0.07626977673555586,-0.06514843433273235,-0.06186695452999041,-0.04486394540330452,0.059355822437360074,-0.03467718196950542,-0.07557986126945639,-0.06563113133258351,-0.15641193391794594,0.09598319382933364,0.022294128611922905,-0.06546887710452198,-0.12373973002334138,0.24994251151285185,-0.18103477021826603,0.11572481166742352,-0.02081860465197593,-0.02519363247957341,-0.019021098029570416,-0.022512823590520745,0.02439594144025543,-0.03733869599601536,-0.01125921891060046,-0.026722593514868005,-0.010378995752704429,-0.05838321057921868,-0.05743234371615483,0.10678339129285422,0.004266459444143431,-0.10013641669806701,-0.10588472090059851,-0.02840431571723538,0.012181058540100896,-0.007198151629572579,-0.04598544138834668,0.0033207184136045433,0.033630796833461644,0.03423561027721568,0.004422951529178207,0.07249148820456919,0.01984281507253101,0.009773254677648304,-0.030299757887206874,0.018935233499233168,0.02910467615872887,-0.0455840557500887,0.026539592781213428,-0.023883073104128124,0.0193665719197689,-0.03238986394542681,-0.1352843994965188,0.11095631472468606,0.05379149134814003,-0.047301572710171214,-0.13391373222417574,-0.013826557779337275,0.01463478085851929,-0.039661732438079064,-0.017176824351682767,0.00277813045043249,-0.0006322554698074195,-0.025737279505457185,0.005797013338047041,-0.001472248715003406,0.13792363367536467,0.022812061142984452,-0.11675521627403868,-0.004253543693870055,-0.07053368398653531,0.0030319431432417623,0.009252428524458933,0.060137293404370656,0.04761884641709585,-0.061346003520942397,0.09074069776404207,-0.3216380357437013,0.02067980523656342,-0.22672230896798248,-0.5337027082981818,-0.19702146015909092,-0.5303204497992065,0.5128454681797162,-0.4406008945899064,-0.09279693438252165,0.3618294779422194,-0.17458115481828332,-0.3939062573456819
85.8426513671875,1.1197967529296875,-0.24486433630228427,-0.07811712064448123,-0.33681549414658707,0.028979558791894802,0.12421839708163626,0.3600445015427094,0.0029693204862837512,-0.00735995073224029,-0.038016366883988156,0.15823709451825746,0.011330274808819096,-0.03750366220893057,-0.006534853325203829,-0.01096293836341427,0.027630534290628377,0.011669529834518366,0.02042062081288773,0.05627874558340555,-0.013985827607135102,-0.11045498344271418,0.05253136522655715,-0.0329864769046735,0.022901539948948633,0.0003574889646115653,-0.03433332703408187,0.004717648944610832,-0.02831463127498722,-0.12115127811257646,-0.05301902349455287,0.03542582420574458,-0.02428428665610936,-0.04667990821005115,0.08542292805107336,0.002788218331063505,-0.0040174448576471644,-0.009010119808587158,0.002974742994101623,0.009660384821117633,-0.004523285136987786,-0.02356597684158725,-0.02061191102151485,0.014250142321099975,-0.022432232986777365,-0.053641430266875824,-0.03923138605902315,0.0007378179200528325,-0.01406853638052892,0.04903783832487919,0.04894377146031469,-0.04615347722209517,0.046889398232295376,-0.08365835921461746,-0.0002877029232954175,0.005649037336441107,-0.029124495547537536,-0.009312442473577527,-0.04261474676393677,-0.020109263851454895,0.046798173170420676,-0.001610292875760021,-0.025232792778064297,-0.021119807770334672,-0.009168122661125195,-0.0021505282086718234,0.058921878198545996,-0.0429359386637481,0.11274633887213925,-0.034813755636240534,-0.05115605958555426,-0.0014374943301152894,0.04967792356087843,-0.007841907404487279,-0.03890181375999154,-0.062851963176699,0.0698993125936169,-0.0515187452852089,-0.013988140363878437,0.04155496981381067,-0.07935238031297683,0.0023101202955687263,-0.046772762032104745,0.025456445376901535,0.1001354664965082,-0.07349515543536028,-0.10352975035661452,-0.0657600239317431,-0.07359865199016948,-0.1927967376084585,0.017223782971385097,0.05079604294398416,0.2911902806577461,-0.013839721214481229,0.026073873890743175,0.17181585292094304,-0.25893643809337513,-0.11649255136998037,-0.014714955897123707,0.22904322427669754,0.2028994435820268,-0.21298095988728294
86.96244812011719,1.08990478515625,-0.21848785277244145,-0.1039043093497237,0.052670980335347034,-0.256597991468119,-0.16567700281986625,0.2659220828931123,-0.04627585252855469,0.09133374121095444,0.026444663921942085,0.03644584380086491,0.055070133530979594,0.03556763126971712,-0.05664802652704147,0.03281912132525906,0.09037405345591391,0.010831145406263525,-0.06905478207882133,-0.012198112128645825,-0.0010731617724986588,-0.08427235909166952,0.027893866261240283,0.06005984869312938,0.006804854028177251,-0.014703069145064756,-0.03334345844134594,-0.023349846768304268,-0.004526792650926852,-0.0011947419150644195,0.008808320396885255,0.020799071215340515,0.03646500099728342,-0.042662816704900235,-0.008724929863312844,0.0298843811997123,0.003598400654486175,-0.016902262231721372,-0.03625529767865058,-0.04109816315479993,-0.06726446465856817,-0.07915657399657838,0.07223424763137666,-0.0026596411059971025,-0.057570900184913544,-0.009789259948798618,0.0820781326335104,-0.03418622596348987,-0.08449893566730586,0.016601914394584867,0.0029727112586571524,0.012445915580395832,-0.024177511589246827,-0.024405720664793108,-0.0459081230521004,-0.08849240962097625,-0.014338154305884294,-0.023048042817777198,-0.027993990206365442,-0.0025337268649335,0.04870025853400356,0.16737941301678516,-0.05795232882564895,-0.1019660795054304,-0.04106271411681806,0.01742294291891497,-0.07112311676829497,0.03534039766888333,0.014338651460329694,0.04932182656778255,-0.051936099740195835,0.02329037337659548,-0.03842643673191654,-0.007751065226252373,-0.05917956298259386,-0.03277666962446106,0.02809761117613614,-0.020452741173093116,-0.12082124734105237,-0.03968741797400261,0.06190931066362729,0.02351161414553921,-0.004227721754297207,0.03440157226727144,0.04588996916580846,-0.16339202552724355,0.14291404120180504,-0.1024782448413678,-0.008788125937191499,0.10234187341007332,-0.011532167536800518,-0.5984543920977055,-0.10804231400054351,0.019686531113762333,-0.09043495163811252,0.02742932058839668,0.1061738976876754,0.18378267012412525,0.05376201833828124,0.011095326400868397,-0.059088897008542224,-0.061726806756930305
92.58155059814453,1.0597991943359375,-0.09730872194066723,0.18991649226414342,0.018479246423616813,0.2724235606052644,-0.07039567711291439,-0.05022129424290751,0.28594930673864544,0.14169948493508402,0.002793919571229476,0.014445257900324561,0.03928047198303061,-0.10262236179603132,0.03136672325432743,0.004268180532030746,-0.015646762415714856,0.03720235957805801,-0.06799767970618448,-0.007346844617423097,-0.0077595525881557804,0.10435609857845396,-0.001611917292676738,-0.13364258682588412,-0.10737698493829621,-0.0028947458631088524,0.009810373880549117,0.042525716173943275,-0.007826004215055372,0.11629865556028644,0.033544099859903906,0.021326255809011173,0.11458824836606891,0.0028839398410093636,-0.1099087022796992,-0.07577415670159676,0.04482550664199131,0.040221931353949705,0.03253941450520826,-0.04090793131704433,-0.04243160393903222,-0.0055671170573220324,0.11221404942188849,-0.0365309698107989,-0.01562635901739111,-0.020922987960435405,-0.009806650538937194,-0.08450396507592267,-0.046036026931648835,0.035295016734679635,-0.05025692396318314,-0.026208078119905318,0.024257365635053152,0.09062173136280569,-0.039128596010955106,-0.017426167074776896,-0.04110009269025704,0.03788354324406919,0.0034424141507063658,0.002767267798006507,-0.02241957846884713,0.0048259611067936106,0.027207216892745745,0.023722717206423608,0.044152130300593215,-0.030041481966329026,-0.10022818442835267,-0.02509989868298215,0.010066176068198825,0.03552411404892238,-0.04448392807807358,0.024749051399256098,-0.020933267548847286,-0.048201050135940685,-0.06834253652917403,0.07033624632310961,-0.03203678016280053,-0.11768184852528123,0.03364979183878251,-0.07845149057946717,-0.018256970781841252,0.004206482023861702,0.011552841774978157,-0.016474070581172416,-0.059942648559436686,0.01648048060243744,0.11688528890618022,-0.09843013401267565,-0.06990130660470611,0.035571301915912484,0.05254782314731093,-0.4632206710972415,-0.7562080403062166,0.09197599609821312,0.25470513783383786,-0.0728270629482353,0.14657097881137215,-0.010806529630083592,-0.10508276470410755,-0.017573450442796998,-0.13260303967848683,-0.14304695752530822
93.64134979248047,1.0994033813476562,-0.2754927190665093,-0.10214474509349013,0.07020599320549334,-0.19223345724582142,0.041410565233068936,-0.035624323767757746,0.05033403519742823,0.06029878816563877,0.008349459500999839,-0.12392377872181312,-0.011163153213106167,0.09672871197533425,-0.01734859155760602,-0.07916202504211957,-0.026070399010327004,-0.01013883394825046,-0.016932672578790872,0.026300796492147754,0.023008919773163987,0.03384287849555927,0.06475873344006705,0.09249548654149785,-0.005680238678076169,-0.0531201566741529,-0.04538393786620468,0.031239957095035367,0.002518152932266666,0.007983555041994474,-0.000535523210529218,0.03402810683410101,0.00641754955097386,0.0024530467367992193,0.013488815246042703,0.022303919171701138,0.06421873966563403,0.11272438679935587,-0.03508882093278176,-0.055148289262577616,-0.008259892896335585,-0.044147133826668586,0.020624600238551543,0.011803438650855766,0.041164969985321785,0.039812391452227876,0.01451499838255734,-0.03508301958730154,-0.014949602830595566,0.038597500987353026,0.13551252952198625,0.10454622577858597,0.045400542488437556,0.02295156958634846,-0.07935799255466933,-0.004351207776065569,0.04944947791966997,-0.05305745659568943,-0.02607913367052439,-0.031248197330420908,0.05204573708051599,0.046597051329623856,-0.06206919754538547,-0.008294382147134204,0.06915498433672265,0.011996374219998824,-0.04330630700757711,-0.10029879072913087,-0.038530310137619185,0.035189919389621446,0.035249861700106105,-0.008709796954273603,-0.03769039318666078,0.06789819565578754,0.015591343141012069,-0.01429702927840839,-0.03077231198330829,0.02998034767764858,0.07728083501690791,-0.029902148540564912,-0.04619821280340571,-0.0033906781377824346,-0.041820264115734966,-0.06011669481798986,0.021606321086929933,0.03032274174026626,0.009314130606210627,0.24188903171270568,0.19945834610241014,0.1186534079317852,-0.012335652445861389,-0.664844628867842,-0.020934693447253294,0.43270766219799056,0.21778984742412194,-0.1740117900967334,0.11605516343574401,-0.30933295475353545,0.09668136431669631,-0.09808927477294813,-0.027892587058142293,0.055434210246195756
94.74075317382812,1.1201934814453125,0.051702976666697625,0.15003818613889489,0.025168250786631235,0.06421949807212725,-0.12335325419804766,-0.07759220094909393,0.11689178852473182,-0.03279504964502637,0.001505977359080462,0.05883367338938353,0.006116823391676433,0.01137157822969718,-0.047613929307277286,-0.06368033922275211,0.0614174634159917,0.08810154158486604,0.014351213624115889,0.03372640694204698,-0.08541717902658534,0.017628966367688056,0.04385284574724874,0.0012776248645500544,-0.009095318335220584,-0.014723382046382906,-0.00520039586611805,0.09128963218979695,-0.04696867514889806,0.0014537982791316892,0.026616147411284288,0.0062092848896508875,0.01565268820385744,-0.11936261972310067,-0.05335187105851877,-0.010341888416059389,0.0330172734750756,-0.00578702987333378,-0.03393588962126874,-0.2166403302174387,0.2895089088298547,-0.029063168875396797,-0.07502801845054982,-0.041993285013952754,-0.05421895380177133,-0.015195849851410946,-0.04438286987261297,-0.007633657283975194,0.033982948197285354,0.08820897938238692,-0.033362954216022256,-0.04786207473058755,0.014176438637197522,0.03639485387506291,0.026567423540884236,-0.039910551590322495,-0.0076197686089361115,-0.05206632133458487,0.06132508846282956,0.01827261431796591,-0.07105629250074438,0.02132106790904146,-0.0448287692827834,-0.07497883426944123,0.03190510521270182,0.028028672457592947,0.057843518219365724,0.059832442029921565,0.017754600817406624,-0.06519269480149316,-0.02773668187495871,0.0393954635466883,-0.0124367195530628,0.024227159772165108,0.045629854169170134,-0.059156137044498375,0.06435893109174512,0.030911338100898817,-0.031648168188397205,0.00782152182837127,-0.033109182062042,0.032542170372952046,0.08800365197746679,-0.12804573717599443,-0.022164643061935232,0.1719171960422804,-0.050077703419847755,0.014545792596777709,0.06231197280790977,-0.1406264091395758,0.07042798488700798,-0.18949587466968273,0.06700422555960947,0.06119248890080268,-0.11467106714920305,-0.34849060306393886,-0.11777276592631247,0.2919199294864777,0.0009718443010550762,-0.04216589972814252,0.014132552989919153,-0.07211569161203568
95.86094665527344,1.2793045043945312,-0.08648195950104581,0.1374499386077774,0.029067924838710877,-0.11409695636041507,0.17471434096766084,0.04184626944262301,-0.049746337692686535,0.01963424386737235,0.05447098553588277,-0.0492876361780898,-0.012298485494917457,-0.011098281302441018,-0.10330224033774915,0.021921359979392357,0.019493980792136552,0.027052726336843316,0.011444008809623932,-0.013960632896052233,0.007255400178410567,-0.10188401418182404,0.055996192647546204,0.08218717063757314,-0.03552018402469099,0.09629097485086145,0.06131167334518606,-0.11784749919730049,-4.047344990143866e-05,0.09619381402817075,0.04616501374002519,0.03578786228440599,-0.08155520642530915,0.02440850912699008,-0.11011329362322297,-0.10549768678890185,-0.024871754829956412,0.03405754288359503,-0.0016831388755211667,0.062039015752936216,0.04790235264140924,-0.05731391627134147,-0.0636703245960474,-0.0413572487703555,-0.03594669080405685,0.0200820264071971,0.003442986717658802,-0.01745513022313172,0.0033265345634629906,-0.043055940644970134,-0.017868704286347126,-0.028274092052748414,0.0640417763327696,-0.001352714694057999,-0.0926297535612057,0.04749037586114405,0.006293231884289671,-0.11194109837269686,0.012044263855467769,0.10611176992487048,0.055752815866610045,0.006487406464781038,0.007162652204365183,0.06810999240435181,-0.09946476789669026,-0.04724665483315546,-0.07193419819317681,0.017878254055023524,0.001589244727025026,-0.028173314400830325,0.03715243467333801,0.03322026760660536,-0.04560671755296292,0.04324267068532632,0.03547361806243127,-0.11151043616006989,0.036087428016279226,-0.030758016454502792,0.020946997810571716,-0.0980464083374067,-0.02298580344863856,-0.040390782279094144,0.040981869088187864,-0.12748329870267028,0.07319657318337834,0.13396270412546157,0.15246929167067858,0.10491859594298612,-0.20643394366681922,0.1757932890349656,0.03471653020179269,-0.513610057949166,0.3492083644983724,0.06541908534010525,-0.13520588768575514,-0.2735706412506251,-0.06396436020765195,-0.3374079182864352,-0.08531775663672996,0.0007929840032181723,0.05198922912024082,-0.06274514022328055
100.4697494506836,1.0702972412109375,0.15700256824323655,-0.1167817927371406,0.07049273204828381,0.1254829058623271,0.09773965596765412,0.020725053108901735,0.0020252487296639307,-0.008570923573460565,0.05755030818839886,-0.01226690888532583,0.023208855243780052,0.08186241871874418,0.16116722000349543,-0.05170618856383865,0.049304252224163014,-0.05228414057923965,0.08286306081918843,-0.06906419709597238,-0.021822583812407457,-0.0502320542456161,-0.0375747098462835,0.03317159972824503,0.03150860079707727,-0.0015007449420401248,-0.02600805353445243,-0.057638351083396364,0.025386653716667977,-0.008438432792232988,-0.047729901143658576,0.038749546750971746,0.05268497415384864,-0.00207275570293179,-0.04407771511299687,-0.06581323514049273,0.03948684941504515,0.07616183851763408,0.0256949736626165,0.018222124414201006,0.01694702691455422,0.036708206660433784,0.032660860376842654,0.018551741003115886,-0.006757224966670033,0.08495386392945978,0.013905830563654006,0.0010575734063554033,-0.02846599478600091,-0.05087477703453225,0.01217560638999279,-0.013119867175726128,0.020473228170548318,-0.018187450640449517,0.004648584002257182,-0.003696778289040765,-0.013658922511534643,0.014472047023003622,0.03254545909624581,0.05191597004640084,0.006646698603375404,-0.05185999956589607,-0.03832214313323964,-0.08789990038995782,-0.06292295118088281,-0.03682307985076084,0.01765932329178431,0.015192529098787608,-0.025887761892488977,0.036396655855474,0.06690737857052782,0.00993022069748501,-0.018082927461608077,0.02234523504931195,0.014113289214870983,0.002333299499586633,-0.025750155900764026,-0.11477896317251463,-0.03141658111379687,-0.006542594296600491,-0.014807898318510326,0.01279610746760139,0.0232066182590865,0.0607912492726748,0.19528585714483815,-0.06299658716319355,-0.2050758972978928,-0.0776928448299973,0.004260947327514239,0.13291573446594515,-0.11119340474724823,0.296893928278548,0.03677447379032961,-0.02621844068766074,-0.09911809659123778,0.136292546174814,-0.36149856882424114,0.07684031361300495,0.0807958007262313,0.028071560647015457,-0.07052177607503389,-0.02879811935357495
101.54004669189453,1.119903564453125,-0.03360117812256351,0.0012029553067696248,-0.040636734320126974,0.03310196827772506,0.021009030726246793,-0.038014598595269906,0.00796320931456626,0.01547389104758076,-0.014290043446179578,-0.08605214685362034,0.13084145568655772,0.11105150522055138,0.08982162219337739,0.023594377052597256,-0.016383756976614615,-0.027219391694929755,-0.00949895999633318,0.004039903546713616,-0.029193148474274018,-0.007480029943255143,-0.011840020478122704,-0.057042856300156694,0.020218585165316477,0.007036006226955761,0.06205091835201474,-0.011776675871652119,-0.031433987833298094,-0.0630025067352101,-0.07544310128426034,0.017384488938852475,0.014690126050576601,0.03804939720305976,0.006573421864401528,0.07483516241074278,-0.03662684872015092,-0.0527591754414221,0.053750767402172314,-0.07182754529331252,-0.015438638837012445,-0.05664821549206086,-0.031282496877820046,0.022417483182794337,-0.019547044995463288,-0.03215769945625015,0.016951661454218933,0.03801580448105505,-0.059305808485167845,-0.029797069950850217,0.06951943562660765,0.1263241424512116,-0.03200389261428467,-0.0013986559673965127,0.008370912027084213,-0.011451188447588016,-0.042709940546481036,-0.038098840451891165,0.006790184875803842,-0.02331013259915134,-0.025644251796735774,-0.011884268108667275,0.1365896303284914,0.043754845496955394,-0.08336350135203956,-0.026211144440620896,0.042299299730797435,-0.009269671526865645,0.08121418153246389,0.00893049781467411,0.05649420702718339,0.008713568549266137,-0.07391782468127066,0.0027149238934098844,0.12109877569417084,0.06174155713261068,-0.06605055881069902,0.05389911784299306,-0.040377562121066045,-0.03891721846897162,0.014110577678229177,-0.038751082124278496,0.07820808093842024,-0.006605254091739421,0.03173064635253327,0.05280458518538922,0.08675237920580635,-0.0111981506933517,-0.10274363175424782,-0.01389855310524788,0.2092850748363131,-0.36821303474665734,-0.28099326120528056,-0.1523267711870365,-0.5115167267856359,0.2252238664013616,-0.046821598666789976,0.3967827390746501,0.5065765715014935,0.014608758659398681,-0.045709705802796576,-0.07411008626495742
102.65995025634766,1.1093978881835938,0.07167233652603422,0.04099109494415958,0.006593942660470746,-0.12634762763614815,0.019280088997411383,0.06943041113231545,0.04145728009816161,-0.11711494528115837,-0.03683142885574958,-0.008797461811123314,-0.030612111073597348,0.08965366524510993,-0.02890606472652842,0.09393923526095968,-0.12134904860133364,0.016699372065021784,0.02286761511857093,-0.07022302083313077,0.029410724027134474,-0.014725119015324074,0.02494859850770363,0.06068401851473555,-0.06737371222730486,-0.012834967656775288,-0.0714069221596626,0.057446100098237966,0.03913857010137427,0.011817289342355099,0.01144668912183687,-0.02911682923155386,-0.015349599498274077,-0.010598791350246257,0.00726854812699908,0.009561818093276412,0.014199259251215103,0.1039769519468047,-0.06799732256539905,-0.07346609806134416,0.0061817366159527525,-0.005164284157580772,-0.03403754683464449,-0.03616741628374602,0.06220924570380461,0.09741849011583338,-0.13009980530954476,-0.06775779935858693,-0.03736192113089586,-0.006193949785880119,-0.03979787319801226,0.09497728876159713,0.05163895409883312,0.0186615329626629,-0.01221271895510562,0.025617639759378336,-0.0011737912409088087,-0.02945884171396148,-0.0012022846445527541,0.056628517441782836,0.04384374676777892,-0.037926943030382174,0.044368418837116466,-0.06686158488698868,0.08046842587260701,-0.04586475389074325,0.004235681817564285,0.020912433683581436,-0.05146291832481727,-0.006498780062557878,-0.008226079105242173,0.029752056298830966,0.015974886813351043,-0.027855906819113766,-0.053420370910429275,0.05524999634398568,-0.08069405051163873,-0.029752206071643833,0.0547499489171899,-0.05046100587436504,-0.008790564694394645,0.017237119506201663,0.030121900518683027,0.06379563904848198,-0.1452957367015851,0.1543646666618772,-0.024700087279869425,-0.09403040210925531,0.03708964129920578,0.03646685435745589,0.004889288789982071,-0.09928983127430757,0.23680058450410096,0.1698961503167965,-0.49738826285869936,0.08222695147155869,-0.345778559041328,0.28830383359150363,0.07376667612535948,-0.03360694186967791,-0.01674826580972968,0.1222874744994296
108.35884857177734,1.0699005126953125,-0.20388028662199598,-0.037323019219375836,-0.029745906629399164,0.07446771880380817,-0.04184561467361552,-0.032825832833325325,0.008121006578106724,0.12456078720133025,-0.03765728231251421,-0.03593510228525518,-8.13606333412431e-05,-0.05618356111335609,-0.012534747416074805,0.12543371597666383,-0.056080542405843425,0.0007268229535749543,-0.033526967322608715,0.01745097013612928,0.0047803035530638235,0.14298787815821506,0.02787240361835491,-0.004331965038894051,-0.06985031952519283,-0.07882568544826052,-0.07884217546050273,-0.021515785530830802,0.07524513297208918,0.050940010420830656,0.04230997999827393,0.014895535583451226,0.011991462046438818,0.04441955884615375,0.014852225115658625,-0.003320524821655909,-0.011774973963974394,-0.014624341037977256,-0.03814918958235987,-0.09471532701600238,0.08116714789676964,0.003745418162640195,-0.06653492178302013,0.029627107035634016,-0.058089782760241,0.060561959210993416,0.10174139883704132,0.008734412599770841,-0.01581670064899179,-0.03639799386868486,-0.01833971202576918,-0.014542855145120865,0.004999431701597923,-0.001749228810044122,0.06636808787730095,-0.045149118683253844,-0.029476546940185866,0.04853118614140373,0.0698195754628467,-0.05120866731363563,-0.07957925747518939,0.07906078534189533,0.014892238656633172,0.07373179869472504,0.04275176294539275,0.05111623914101018,0.05559652238901496,-0.012038328551276851,0.05807963985846425,0.07315843865052636,0.07397125369516402,-0.019490855681938285,-0.09321127188610687,-0.01510730841882225,-0.021224959230112944,-0.028898574021883762,0.04108623894599664,0.0125737046123171,-0.02061523238412416,0.015898689931654445,-0.015490284013597429,0.10777933905603913,-0.016259832333237908,-0.09747130877853928,0.0004383114088503744,-0.04590091055885777,-0.0741075033911354,0.1579622649139404,0.08226893953179897,-0.1619565970417471,-0.17808245925114263,0.0799726799773854,-0.09874402498934384,0.3945934503158845,0.13241993293680182,0.21266508437991513,-0.5002882322912133,-0.04431744529526972,0.07814329300757075,0.10718677857115597,-0.028184988915705766,0.16070168527976525
109.42874908447266,1.119903564453125,0.014479936774643043,0.31163486022269676,0.09432834499819334,0.04010461763791783,-0.08679572189368115,0.009926821815224928,-0.11993445845453012,0.03150456260611252,0.04040491953909371,0.05307609777424076,0.05128875179441832,0.07812875216254085,0.034127783037944545,0.006959811302505295,0.06105692408783477,0.021135904365983896,0.147042867516423,0.014973462578813504,-0.032487526447370685,-0.008294500849729717,0.029695336564555613,-0.03180675022516722,0.013026667074768024,-0.019861866763859117,0.04033988373901603,0.00266475263049469,0.0010655207205414602,0.004096569335902623,0.11627513295270465,0.02894244260831682,-0.0630932147754516,-0.09651097764393723,-0.021252212994583113,3.538243713918242e-05,0.024526245573453898,-0.02331164765248581,-0.10780540062389415,0.028504032848415795,-0.04776963020008497,-0.03026904560897252,0.1237579803150206,0.05729457921902869,-0.038936776639745485,-0.11883439677469346,-0.03720417541046389,0.007117188711052201,0.03989521132199725,0.04708014878328679,-0.009550957628297656,-0.07157717191924426,-0.09153629656011038,0.007825792680654826,0.03431855618302611,0.03197000511201152,-0.047505032240393735,-0.04457739576202412,0.039121251234987234,0.024091499997752786,0.0031332202797545714,-0.04986811701220427,0.023464806774308882,0.015538410526072112,-0.042280045654606184,-0.016464282733969108,0.03836643066763476,0.05113021002631541,-0.00997879495404091,-0.10718025246764573,0.008281255379740865,-0.05474256382997736,0.0166753420087962,0.06381150154270289,-0.015349699548603823,-0.020669943955349268,0.06443515681294547,-0.012453737908360678,0.05436766386612106,0.0816288468204329,-0.01582779161683493,-0.09035412318214085,-0.012086730457754017,-0.08308134311701454,0.004926505587677448,-0.07058526009865602,-0.1669800254276304,-0.14920530411969393,-0.037285037336020524,-0.17936042986693518,-0.1889109226588445,-0.1631580472348133,-0.008809561996939691,0.048522787032026796,-0.1084666714085413,-0.15119329200049117,-0.1208389131858727,0.14580956969276895,0.03310941852182259,-0.12741932776627415,-0.05036337153088227,-0.06182121036585496
110.54865264892578,1.1092987060546875,0.0824457495449543,0.06551847129367337,-0.0007105595176376645,-0.10923297105910208,0.026419467489242406,-0.07660636007797539,0.06317479969812673,0.08070342669968053,0.0522090489181365,-0.004800910988314245,-0.15223921006451438,-0.033799445094050966,-0.08225832643326404,0.009020518693803964,0.06100075884628978,0.016527357557097586,0.008375873281605944,-0.06580843944605734,0.011395631299842423,-0.06652553833138322,-0.03352889942242892,0.03430463062425087,0.004021058839681229,0.13142003429149562,0.0030054097793210804,-0.10177246318357921,0.051149522033504174,0.030123246300479134,-0.008394187064935478,-0.016546974604478668,-0.01051560808384439,0.12849762730794603,0.0005182037257498274,-0.04676423660823231,-0.006607940394177224,-0.025465389679371984,-0.004145467570172545,0.006239322908974465,0.09951751969602728,-0.04862807960544189,-0.04641777881270672,0.008984989782010186,-0.014459348844264905,-0.06160152191507988,0.04722272952479955,0.03809862988732681,0.12546946306207624,0.05702352951415651,-0.07747179662050163,-0.030248456418193147,-0.011666980149438747,0.03148553614207317,-0.07889131891252009,0.0008406994810579715,0.018381051247751298,-0.1336599171665912,-0.03108642026553099,-0.030956443021714956,-0.010761320581939945,0.08799431167248875,-0.0107180693823202,0.08053433325432484,-0.06898570961976296,-0.007262826321022195,-0.012360076658556424,0.014814166097826594,-0.059470073193689,-0.025387774143698742,0.07805770893583625,0.03462238329112951,-0.14066932438463506,0.048721086985392736,-0.05859374149791744,0.01345176143470336,-0.0037619508170408794,0.05225046841255005,0.004178414541673642,-0.03516260438472416,-0.03642463129874158,0.017878638275790733,-0.013484895290097967,-0.004073197778258195,0.02005903045625068,0.061012658280489136,0.1223556705734262,-0.05968592391659147,0.009341539639227278,-0.15099271684636928,-0.6033208618957742,-0.03908300511740171,-0.043892154003851686,0.08976805790296791,0.022858113842004077,-0.03920647801520834,-0.13020651439065115,0.2853377840352564,0.17199993242746595,-0.2349128450551943,0.2801762377338807,0.03334441249563024
115.32734680175781,1.1202011108398438,0.08007836275884127,0.0448510976213066,-0.04622584468631563,-0.31261807574058226,-0.37972492320475937,0.04265960007484518,-0.05085926842299686,-0.01631097617262032,-0.003930301797608142,-0.05737190387012536,0.02724066556210319,-0.021160262783807723,-0.035735403195160456,-0.002785253418220909,-0.045386938857443715,0.02870601416509196,0.14132868096246176,-0.1151487475254733,-0.07081247399560758,0.06660153052498366,-0.040878255508778265,-0.046414538717605584,-0.07735845145227033,0.006413971114229246,0.020303042335718398,-0.11552778358091036,-0.01135315930952338,-0.019010182992120865,-0.08197580361645333,0.03424709883637006,0.03969146281402434,0.07337625335260958,-0.01837828516175749,-0.018584585006210214,0.0170441223114694,-0.027346429551999032,0.07861927955914474,-0.026943865425528866,-0.049815720907507036,0.026994014810185873,0.009381316910669946,0.0355334551235167,-0.013105447795222672,-0.023601382836638096,0.029366767119543023,-0.050499595076196745,0.09409858912398428,0.004481754351609142,-0.009703634356926644,0.049375953280118734,-0.024456843406883345,0.030726246326764156,0.04745016795624169,0.03158110132087571,-0.015221141031672094,-0.05650020052816046,0.0498557641436933,-0.04056606975516214,-0.04509023353655883,-0.02367455190385686,0.0370865902468555,-0.025978152155705002,-0.024705734261117704,-0.10410050825558882,0.011211647547838946,-0.04559767317120816,0.00570242899911716,0.02271634208551725,0.0043226221208647764,0.13684805805406203,-0.12414592681873657,-0.054044628013257406,0.013991844675005045,-0.003607942482185278,0.04121557583124679,-0.0003054355064159575,0.024727276981470963,0.07458678771442018,-0.09839811275828404,0.011621774800385318,-0.038569011050824865,0.05870881164491694,0.05186915239601686,0.09233447618949832,0.08041034175505407,-0.03211931110806737,-0.06806018231550026,0.05049193949140668,-0.038810658785804975,0.3241740491753611,0.21855320409921675,-0.27112218925191334,-0.0779348165093296,0.20019158566275613,0.21618117426293418,0.19662251429793912,-0.021131518719766276,-0.041066588146215194,0.17058148433389417,0.15187879001798316
116.44754791259766,1.119903564453125,0.1587412794642371,-0.10031354397807886,0.01362131294024847,-0.06876102354426675,0.16460190293216279,-0.025764337933350895,0.0481519515273419,0.07661105125699016,-0.05520427066287824,-0.13475444885340265,-0.04483899022635997,-0.044949943828651855,0.050111288673742184,0.004889798992616097,0.003238758459611349,0.052951073788588425,-0.08818874368415641,-0.022401770275089338,0.017349378337133632,0.10034880219700788,0.026146459979855485,0.004292254142216141,0.03720353926742184,-0.06306647485843565,-0.026144703030492464,-0.00018175746756607757,0.0016501068295578594,0.014297003749433006,-0.008100979403604202,-0.002767865481204339,0.005075527883503968,-0.0647404369493628,0.01816086652704559,-0.024253608542460586,0.005606382298431806,-0.07542936995442819,-0.01610037599612429,0.06737502460191425,0.06489709277131242,-0.0640037972615475,0.08579297020170304,0.03750440857029863,-0.06941820260900183,0.022859697055949566,0.032821058287719904,0.0033143865736299516,0.001817388450340668,0.02354131296464545,-0.015977635999037905,0.023860785411181164,-0.006896014643641606,-0.014673196147620145,0.08608821789312143,-0.03157341938557702,-0.029325531488692193,-0.006407961681304207,-0.006339912402291397,0.03305615901406159,0.0032355528357862614,-0.049701924480762334,0.07283138600352998,-0.08801680608268604,-0.04779875968765767,0.03842364582123537,-0.01919438224042084,0.02085387196037917,-0.00225408487426106,0.11811162426618033,-0.04463074738535335,-0.01060735112871218,0.003654449814327291,-0.008268554914003648,0.017772097156716737,0.0637858878854068,0.0534242439504482,-0.01151094985607376,-0.09009068932823847,0.07567065859805909,-0.01057485487960568,0.04741466506916831,0.022523400053987765,0.010337930166825004,0.1394890588242689,-0.016567624494325403,-0.10011816580388587,-0.06135755069577887,-0.06994601431424731,0.09996188996166887,0.043785707695058164,-0.0013870444749229795,-0.20744936608181885,-0.08216030189386904,0.24656432844721526,0.20869272511577286,0.3760658523099279,0.012514612069774876,-0.07105667999776427,-0.08784581484428065,-0.05710908889527237,-0.1420337112952522
117.56745147705078,1.1496963500976562,-0.13612259708311145,0.08992290323958205,0.059421626534996025,-0.1107799923004356,-0.19623746037624648,-0.002129018085260323,-0.07705838220681807,-0.06075802589992847,-0.15452149553212247,-0.26913301280501756,0.02337334416232632,0.03474131314564135,-0.012397397296426324,0.06001957723860547,-0.048632005698958654,-0.037792024849286454,0.10159789782607237,0.10414268822218357,0.05594169881755221,-0.03670315811895006,0.10037233208532814,0.0023272510395792607,-0.0808349934215616,0.0013539316234892212,-0.021697379673652605,-0.03557718924830687,0.05211517443039192,0.04512773413045622,0.020838321061523318,-0.06483071221407355,-0.045217823133047466,0.08714142031314702,-0.003514288529176506,0.03404504547226459,0.041371562998195194,0.042973928831607694,0.063455838626382,-0.09681472375319213,0.03086656390540981,0.0178655490236179,0.012826525192421376,0.023823077773426196,0.02755271221043036,0.019075048222231855,-0.05378573993513814,-0.025662671403313644,0.0022375084984991023,0.04009755718828401,0.04943300924358523,-0.042450514097484,0.08834024753380094,0.01746508217889636,-0.12230459719035991,-0.037965538674304876,-0.027295370268680536,0.04079753448837212,-0.03947830665844859,-0.006034644939151506,0.08316403960736696,-0.07853619625196862,-0.06516487803877537,-0.04058825631591724,-0.013178903709740853,0.018577251109759746,0.06093758808277266,0.062439382784537104,0.052307587952184646,-0.05926924676186343,0.002297202986135564,0.03658318009231581,-0.016022657652653944,-0.05856625448372524,-0.004694786923932187,0.06364164981982484,-0.09966143453263744,-0.05698843742644664,0.013931698608132148,0.007743238644718533,0.07400649759567436,0.005595805416197705,0.007152876280136151,0.01078781184065715,-0.037933757422436654,0.11278493516964376,-0.019707384998147795,-0.08455075968460128,-0.029877496101100205,0.31968865554590187,0.3095822676901216,-0.03545376930937574,0.1861534868311192,-0.06939432178082121,0.055941317793784834,-0.13569636797450077,-0.18151433278672569,0.16841132716421983,-0.048712940875974615,-0.1088777958901787,0.044954937757166136,-0.0010128625049700204
118.71714782714844,1.2295989990234375,0.0011563736100265506,-0.08870338106023867,0.06715174139086154,0.07232026740009297,-0.07817167177898299,-0.09041274890944907,0.0063547659987032434,-0.0530343142966664,-0.04176125221689015,0.0442677711587634,-0.04849171324849553,-0.11544305865478058,-0.03643074551006935,-0.10732027255883538,0.03188791393612976,0.11186033194985653,-0.061017682841451135,-0.08142855536555728,0.06852778053397143,0.02441343665437653,0.01557093324525299,0.10958633114980249,-0.005359406047455517,-0.001894532332209783,0.0009230332683904927,-0.02874682527634108,-0.07256759000687102,0.0505958105971689,-0.04718536930472484,-0.018053164343088214,0.0013434541384994378,0.011840295920426704,0.010981469488716165,0.04335751565064214,-0.034542775838979856,-0.07723832500626428,0.03948254243088255,0.027205878635325476,-0.007402964559228308,-0.02820627910815208,0.06903430650555639,-0.07715467459768191,0.005804788975935166,-0.03983000566510866,0.035660782914905625,0.03448926957016342,0.037810037733281524,-0.06586799071031875,0.0025353377899290344,0.014360410752137906,0.02462784278350383,0.02803702881474662,0.06703414463168497,-0.06057291478289761,-0.037225336097020875,-0.006625506123257676,0.02473390224534469,0.054497688928018345,0.09588157990886398,-0.10522040316107502,-0.030974988860234115,-0.05306416361187209,-0.03830733711228519,-0.013277526413023436,0.10780321192399692,-0.07271217661365169,0.07160481734381624,0.04182633645013701,0.02825213821087903,0.005407450480573547,0.06670314319135331,-0.02518454024343482,-0.06897713276092314,0.03028655136748317,0.019285732624874177,0.01960600086224499,0.112592458433883,0.009046096110053477,0.005533892727308136,-0.05284127562916027,-0.002677564798743424,0.11072422912897482,0.041838287708573216,-0.002870488682873065,-0.06001284531600673,0.06589781393874983,-0.005408612615637569,-0.021377906592254373,0.28979113818241786,-0.05551284106607719,0.3612246040918234,0.004926664974153902,0.13418647115827148,-0.19030475089990012,0.05648059317310181,-0.2412128977027841,-0.1400527807037172,-0.051571756077701675,-0.13198341401335612,-0.15019004382850726
123.43595123291016,1.1001968383789062,-0.17832233455739302,-0.049035321073960206,0.2615322123237848,-0.006442496869652538,-0.16897277927840101,0.15933428225114374,0.06558473204802812,0.029717061565982545,-0.40208445183366875,-0.13219326752792587,0.08528408397671931,0.040277363348699295,-0.0037970248359608027,0.0619406992844902,-0.005386905986470444,0.02214188937857664,0.10169835908436292,0.0468969102092317,0.004311063958549789,-0.023193849879756544,-0.08183313797108126,0.0005343805778181901,0.011619510609584893,-0.008228443566720922,-0.06041626123275863,-0.004160123326627787,-0.04381739859322571,0.07193055706953747,-0.020995935051053703,-0.1151696885421325,-0.0059252935397085035,-0.01969550070973959,-0.006745117818804842,0.09983262522600671,0.01162671360139447,0.01095557835913023,0.04485555642502646,-0.06998331419280632,0.07519568841998081,0.06736448325111437,-0.026202928116091533,0.0092785066484799,-0.047132348586604866,0.013705150892779079,0.04159590760833556,-0.008807380763275642,-0.029271657074257842,0.0031813831633005097,0.05410596649330988,0.09000291199949155,0.07602176680037112,-0.009621384271118496,-0.015584951733573618,0.07223191508508764,0.009166425229112665,0.011794184420201373,-0.04648397265282016,-0.006364733053048997,0.02680080075938176,0.04849664852830799,0.0934499326264102,0.011855379804277958,-0.09950731300429888,-0.059347626057619646,-0.008941022554596945,-0.021454017299230153,-0.09701523933076887,-0.02390370335238886,0.07119388460242773,-0.007486896260103751,0.11081269167856435,0.06479619972722664,-0.08320045774597608,-0.05534261328566292,0.024400615994398363,-0.011105813146617974,-0.04739871700252629,-0.016732615109825558,0.06576267824863297,0.045513359415271,0.04162678579147865,0.012557586942304765,0.01593312057426617,-0.03316815060734599,-0.07001331588020501,0.1420781957923426,-0.16806931642132533,-0.09438928820410827,0.017269284623076184,-0.06387964339890845,-0.12722260446393344,-0.09847157144630878,0.34637632537724516,0.021977644663757366,-0.14669649990650457,-0.0011082820224512435,0.05500493211050379,-0.04430682799772197,0.026989734837653455,0.067680141105418
124.53614807128906,1.1399993896484375,0.04985059432443235,0.06640816729669184,0.17957743266905052,-0.011501850099379166,-0.11737860065800512,-0.283921290458586,0.012318047594735327,0.09985893223447465,0.07361735790070076,0.03258508751701235,-0.0028517715701211355,0.033755585549427716,0.06693645727209595,-0.015429878103486446,-0.0326693756243759,0.003255407160143612,0.011555787653347388,0.009994859399171642,0.06896653646690003,-0.015421312239087583,0.07219631085609804,0.03876880066262635,-0.03627427895977421,-0.10608370105611115,-0.00892336700471675,0.039838091434723756,0.01096527192343866,0.030070170378141886,0.009913735286173371,0.13623319938065842,0.09538691872713811,0.00019677426114336825,-0.020483618796435045,0.05376765635802116,-0.07378099971717003,0.055778813394112774,-0.009749474070620377,0.05402717130370878,0.04158890176885115,0.02126489832394303,-0.09103057342094008,0.03419059722362873,0.013188586970675858,-0.035396790999806894,0.025899351771938292,-0.00880816283947175,-0.01050903379470661,0.11111479848162581,-0.01850608607311643,-0.01909112895553643,0.0004200095414106375,-0.008240531392792247,0.0893382290568144,-0.04865133655205849,0.022067084794630522,0.018523385692594416,0.04502691647831481,-0.02358781373158235,-0.2025650838694832,0.2533195543218947,0.0952102814811798,-0.003371739788017379,-0.031159995789281487,0.019313848637532653,-0.03904077260403463,0.06974713912536515,0.006096786399678676,-0.01261322489410531,0.034448384629849435,0.02489535340543527,0.08026628524169718,-0.00041950731464591995,0.019048314146229935,-0.045036633407586936,0.012280383681696108,-0.1096263528074933,-0.08058662803443178,-0.001133363991067066,0.0112069565501543,0.0023241832388827587,0.0006890683873371252,0.016366576255486646,0.027551561410804906,-0.09294803190510459,-0.014217760885244457,6.899685291690766e-05,0.02532351980010164,-0.2923518100553142,-0.06477488402465002,-0.1559329579233963,0.025190696817139563,-0.12623890236386814,-0.5874732615097802,-0.249289157590466,0.266419695061117,0.10301228271319435,0.15596529888412478,-0.0162555574904734,-0.004404179585338022,0.02084430098710413
125.6761474609375,1.4496002197265625,-0.10894903876786455,-0.031159649522392474,-0.06922135898343612,-0.1120901135745643,-0.05351089834589115,0.23122623740017528,0.05618409840725839,0.022820668362619423,-0.07437138547330382,0.025366343916375884,0.061533096255253994,0.005201868918300046,-0.01399502319724285,0.03546073759565761,0.019925170969363297,-0.018113128866994954,0.022165971870639622,0.11058233192662323,0.033262875370476286,0.04296652975422389,0.10609978692804573,-0.02092605149698375,-0.04502756517436124,0.018489369343393527,0.024336236119581703,0.014176159986966757,-0.025104539956104274,0.012972955128319216,-0.134555141086531,0.0015931949212404104,-0.08352609386007256,0.012327961255645052,0.023918088093772463,0.10179658247628462,-0.017653529079550555,-0.02189789985277045,0.019837178932886813,-0.011615609499105017,0.029514551727151582,0.04563452524655085,0.007690531480201132,-0.02465257274290373,0.054249782100668886,0.10419847287299272,-0.011324625805141842,-0.08379923343380884,0.16750207103963832,0.03771098374453938,0.056760009268084,-0.02328023116009077,0.018104565859500855,0.058873051991984504,0.04079502905228783,0.10273152377315384,-0.022592089801351096,-0.07953015295404457,-0.03308938265270106,0.047206491352589516,0.05512188758084941,0.031672402123833994,-0.06619895545955526,-0.037426860797875584,0.029099804495509175,-0.06780755556761063,-0.02234054029822574,-0.02628815552111672,0.058219797898577175,-0.07161371181964751,-0.07754396931193613,-0.11739577537119202,-0.16258135219917857,0.08371910509912663,0.024062237335486854,-0.08998483964100239,-0.05257100931155513,-0.03339998920229966,0.05482033821130301,0.019731421978573086,-0.007736366017277944,-0.03935757545464752,-0.09086852080961998,0.11753841265418578,-0.02578671328877078,0.026790245756956613,-0.036816409938782185,0.07714046823800161,-0.19922835824453639,0.3746309733790128,0.036159822358865834,0.4653368922259749,-0.22757147369408418,0.040023519477191,-0.07286717265182867,-0.35155033597159496,-0.00966315817834542,0.14531638010702527,0.10099494979851112,0.04227330671485115,-0.05322058964761897,0.02825078965347834
130.4353485107422,1.12939453125,0.018899513905300154,0.12009337152551583,-0.10835225708913368,-0.060659772384611864,0.027762554837531057,-0.17138883434922592,-0.20918525431647972,0.0057442458092876,-0.006145291131200065,0.08195635388592633,-0.05228724094889141,-0.003610638113351619,0.006353150431993637,-0.02654540491534937,-0.0718116313353773,-0.056904801902395157,-0.12248678543259232,0.09596453417712339,-0.05407878494513898,-0.17553377859701966,-0.010681981076441624,0.05747458278917922,-0.002326560622523108,0.017154802584581463,-0.10169522409785947,0.018454829537520902,0.044266655514956024,-0.10065021739331262,-0.020864643832826633,-0.016052499019391372,-0.011253142497839003,-0.006125585353473026,0.01103618458632892,0.04442488740223937,0.0378679701430804,-0.11275242696038511,0.0012037811242439625,-0.006363782292994181,0.052398061236196225,0.01126480356138767,-0.08318608417864423,-0.022942694585950142,0.08821318204920635,-0.1269461950274922,0.023299153146508943,-0.043458426907513066,0.005931644171465467,0.042139629899689016,0.03595731809972037,-0.04878228374967264,0.11045205753845785,-0.04320123763928168,-0.016605821723398584,-0.02721889299765336,-0.09739710875179533,0.0955048636513986,0.010722411024609042,0.0037520177201450927,0.10917317008925341,0.042867958114000494,-0.06541365772193664,-0.07507289103127093,-0.010992932407720795,-0.008650261901138614,0.04013627233323747,0.005991156570850031,0.10702664854505206,-0.01029624618284591,-0.0561796523628242,-0.05177253228651624,-0.002328433197479421,-0.056069529078181676,-0.11241836707133404,-0.00043353399937361343,0.1164759086186587,-0.027926099775532728,-0.016550923225935658,-0.03606574936875791,-0.03820420084302125,-0.028880373389737816,-0.005401045859449187,-0.010696737207758851,0.10137857762182134,0.005317731464896259,-0.15951099091222048,0.11642988506384304,-0.05123323815838984,0.14690248092351144,-0.3048132472241632,-0.016761146711520746,-0.21553750586148135,-0.4144360028454006,-0.3207603168351454,0.11873214554009054,0.06324662433604603,-0.03810878017351399,0.16101326376287184,-0.18464190161828853,0.012936132702579248,0.17691341903101016
131.5647430419922,1.1201019287109375,0.031008050494301012,0.09131384949895861,0.10220002686839644,0.1095771888898893,0.09129754059251789,0.02792143250800108,0.10535278389051457,-0.3130517937292503,-0.04825842015679461,-0.05428155377528322,0.051527739372392224,-0.014352379731032663,-0.050298937047949764,0.1297183891421195,0.010096120487895197,-0.11827358574637571,-0.016514722737119552,-0.00021947047511082637,0.009677896558682203,0.02470023349688398,0.04185022008849691,-0.062069130163384986,-0.029777196227835385,0.004011194809370081,0.010110359405095838,0.020393081984275193,0.014873962087241788,0.11287648262553633,-0.06204014876927921,-0.10419979272088478,0.013226646582305017,0.027157353556460415,0.01690276842313834,0.03077348714269039,0.12841069996967813,0.06427249161893005,-0.01812247181406265,-0.053275617973275485,0.003062875481683586,0.002939949904736218,-0.006199191012434942,0.12601491440371881,-0.001549512226092474,-0.0012928718454502575,-0.00701140725237553,-0.009330367807103864,0.0014795857358941317,-0.08094038777505842,0.1531199221307466,0.03945720844692492,-0.07252922895386356,0.06851199334796722,0.016239102026295204,0.045452027044896474,-0.018496160829539213,-0.00857956076408737,0.024659514188142197,-0.11467779545377764,-0.011974169199548107,-0.03462110998919622,-0.0013822084084348495,0.009413581387930874,0.08383805199153821,-0.001660069921550907,-0.06330976694881842,0.026385650127755123,-0.04642195596968491,0.0361417421931548,-0.04602306996560247,0.046831683238484266,-0.07088886900950535,-0.047507582869398546,0.01317647741625314,0.05679130635652583,-0.0038356319714685115,-0.007928590899590051,0.09024163786016746,-0.0021167796594707897,0.020919083973853392,-0.047743174729359614,0.05452227242402023,0.039835536624761185,-0.04860354176019438,0.06709802541097504,0.12518668207573577,0.009739054791952095,0.07821577324636386,-0.10438047544227787,0.2585754428468291,1.0780331053528827,0.14764399088437116,-0.20626971219033524,-0.6926165185878839,-0.07226795609221989,-0.153182775139006,0.036464236424397264,-0.09153535326081061,0.15625423939190408,0.0002484161861630932,-0.16429795232736544
132.68484497070312,1.1298980712890625,-0.17747676383791203,-0.03385560154854075,-0.03482003807534791,0.17573772060824144,0.10807087307264117,0.1703930412620226,0.018582174398479347,-0.04074231153794461,-0.09167367822725724,0.05544039313092811,0.005158732753749847,0.017298759285130434,0.09959481569578782,0.03970823916586866,-0.04308075738074559,-0.01100492938964781,0.013020020795552284,0.006999963868246639,-0.006715976981933191,-0.060101683116155824,0.027070257377128874,-0.0173817538170148,0.031220681379818073,-0.07744793200138242,0.2224438317684032,0.20594375409407895,-0.027791448663941454,-3.4328664439077245e-05,-0.04665731318309146,-0.01538893274044395,-0.012665665675580664,0.03442236897270422,0.04907305500837166,0.060232403480177873,0.004754442174530235,0.044383888080549445,0.03677901120796017,-0.03594563153666051,0.03208982857527112,0.047899165753948744,0.014481650557938718,0.03738640512399431,0.0017352221091415758,0.0054607910945966565,-0.09277935329359141,0.0023376837075836493,-0.011885291231680022,-0.014091696699218998,-0.00158766497764737,-0.046642881951913254,0.034180276729399564,0.057040501882377644,-0.09501484877345409,-0.04126038218992843,-0.03942440697701527,-0.048444870260243855,0.008535626895623155,0.010001533594650065,0.014207312894446532,-0.06790466209775692,-0.07162577692722796,-0.030064630532309004,-0.02718417627518392,-0.026491674852999567,-0.059929342825829186,0.07680602577543244,-0.06864360308536799,-0.02756701173268941,-0.05855900424109209,-0.011669275918426307,-0.005056914684255354,0.018341414774762532,0.024417010717682812,0.0778862039167327,-0.03803560674784121,-0.056041985974052334,0.036722320404065215,0.0610769331302307,0.07461025336473759,-0.03174221492795218,0.126137659130707,0.02006030067547355,-0.08107082262536291,-0.029842402287394442,0.04274455576381024,0.012725945163083084,-0.1929328929754721,0.24738383053350624,-0.041723461398375884,-0.26404765017342746,-0.1287307293503208,0.15520798696716082,-0.09641469176175793,-0.3030705933759625,-0.19631393300523753,0.16505264472649012,0.03884795114817535,0.04742300108196533,-0.0004971395306425147,-0.069260114552797
133.8147430419922,1.289306640625,0.06738314657579647,0.08161153802700793,-0.03584982765939007,0.1242903237057977,-0.17684370793569315,-0.04169201298366404,-0.04016630517918752,0.0395677926999414,-0.07597546040118448,-0.059166764348821704,0.05353197989934216,-0.01372962139613667,-0.1400442859102096,-0.06293597492267919,-0.010288787498567108,0.04988672364992442,-0.006063362697017101,0.09269368285836849,0.012648010567308937,0.011129276641146976,-0.01591942258438401,0.009772075567974273,-0.023847414429976732,0.018615871881239685,0.08098677921415401,-0.0357532595899671,-0.011663930435008078,-0.036258919736952146,0.04559200812120709,-0.05497331846312385,0.05667166594403512,0.06681055238744474,-0.02286212806535802,-0.014744391131816366,-0.019197149909272272,-0.03100921689664894,-0.02901751097177936,-0.023923288323951353,0.11088751547944492,-0.055023280627648635,-0.018777442140508274,0.01294294284357044,0.017352638833665713,-0.05420324544654273,-0.0196560997160607,0.046343027179255765,-0.031577792655031446,-0.027397269742531028,-0.03027860957652642,0.012482101345563008,-0.0355753271978374,0.05067572135124825,0.008426744407995707,-0.06424430174839514,0.012245215123318743,-0.012399585205735463,-0.062760173274022,0.02849654370296787,0.0969909234902004,0.05298928484555204,-0.11021901947809654,-0.07024203226068561,-0.05405167484087462,-0.03674129645278443,0.0007617415255964266,-0.029090162491038216,0.0875297766954208,-0.05451096377521923,-0.057621801532072345,-0.03940436038620738,0.032802211568142454,-0.03556027207536975,0.05819045353383375,0.13530880785047275,-0.07643000789439841,-0.02145016151399194,-0.052016662506894684,-0.03595190511954831,-0.003703962738597744,0.0049284031755030735,0.04595167122372534,-0.029668412803762034,0.03772970923413696,-0.030523169073978937,0.17682065205411224,0.33095380553895243,0.022909869407335182,0.12260419343987977,0.051437829490876885,0.060820810009274896,0.10793662663366722,-0.043470493098966195,-0.26927098644224023,-0.023774372344382302,-0.1877834516368846,-0.11540311818470649,-0.021934171712647922,0.09266837110200242,0.04220136058229729,0.0044096446045908885
