start,duration,0,1,2,3,4,5,6,7,8,9,10,11,12,13,14,15,16,17,18,19,20,21,22,23,24,25,26,27,28,29,30,31,32,33,34,35,36,37,38,39,40,41,42,43,44,45,46,47,48,49,50,51,52,53,54,55,56,57,58,59,60,61,62,63,64,65,66,67,68,69,70,71,72,73,74,75,76,77,78,79,80,81,82,83,84,85,86,87,88,89,90,91,92,93,94,95,96,97,98,99
20.17799949645996,1.3197002410888672,0.10451542026361801,0.11919162172750629,0.2689948552150756,0.19402751475611119,-0.030141630908259887,0.3439049680511632,-0.06502015465188193,0.06288498829243759,0.05815316013198314,-0.017825807892833345,-0.05477025443337578,-0.07329162823001424,-0.10175147649796339,-0.048535553762771716,0.033846331346859576,-0.07766496214254978,-0.06222512610146548,-0.11181656005808481,0.08364620652960891,0.2957672742534434,0.04113778985690505,-0.11305194022538054,0.04886136549456418,0.033015303558645764,0.07708201072999078,0.014595648564247355,0.014657561037510971,-0.03138850451871586,-0.10430701202840166,0.03142736431163438,-0.007445793474375091,0.013504423981136913,-0.07390195341433929,-0.06038673232361756,0.07245968698552785,0.06503855496334984,-0.03776613829616934,-0.08235135987672337,0.023055386511019457,0.00805476414174685,-0.0002118489108932515,-0.0020865759159821367,-0.006065939801264431,-0.019770650225498707,-0.03203976346701378,0.06115378689515606,0.030224034144697595,-0.0005349511709829588,-0.003088793137530191,-0.03425565676869497,-0.09900942326681812,-0.007966301002700472,-0.0459547919078903,-0.08745432370649067,-0.007194829424643847,-0.05688410246574284,0.0584969926214068,0.016206119927734845,-0.007857660486402983,0.041259681796414,-0.0251307730205986,0.0012831743524015378,0.00880380073408775,-0.0017743683055666498,0.007830080843770237,-0.11068222562912916,0.04524298617724658,0.04592823013270662,0.009008265337942734,-0.04981240605024977,0.028444280289385407,0.06981197114502599,0.0361356593262739,0.010733446124552409,-0.030557306746730482,0.06252938473031945,0.07754474327104653,-0.060586438989051805,-0.07335539043079384,0.0422403052784946,0.12456661006216621,-0.023349386239561735,0.005548935725519143,-0.0016365125457954242,0.013466078305619494,-0.0014997437531179753,0.012780644236130723,0.10370928514284106,0.0010252172912646115,-0.04973064165643625,0.04948655713937323,-0.23112393195020453,0.10393889587994255,0.18650358764920216,-0.2453590411189097,-0.2680287249675152,0.11693785972810966,-0.04842322935804292,-0.05939627090147703,-0.18610181809703083
21.497699737548828,1.2893009185791016,-0.17042618616094285,0.012015728308288582,-0.2568404219059536,0.007453714273417483,0.05646319251445533,0.01969918014418426,-0.03647975496607708,-0.17051618371837232,0.312080475935391,0.16055969301501713,-0.14136508909406253,-0.02221094884332568,-0.05823098239116002,-0.0926146418756186,0.16809044833408737,0.0029543896553268466,-0.01715695664564587,-0.28131415507149987,-0.040381629299959906,0.05522717670144551,0.03598133302177809,-0.07726326666975471,0.024388989886368256,-0.0630199328044787,-0.005073518500031399,0.002194507162939746,0.0015215003943622764,0.0032721756892317437,0.02042337089816377,-0.033478713626076774,-0.012349722271744683,0.010858795952308209,0.032040517624786505,0.017979945935973355,-0.002966428463472203,-0.0011900804187489206,-0.031313241592086316,0.0605972346967666,0.023625158838751714,-0.005003454871564281,0.0174988871841497,0.005390473580625829,0.0014988735983284438,-0.004958533467255117,-0.0015236766405273359,-0.03404913139468535,-0.06867665169226433,-0.12563009810755868,-0.0003465064384168371,-0.0023288369531431173,-0.02700595330943503,-0.017252728434487143,-0.03915485423634396,-0.021471849132407628,0.08823664553477809,-0.03058485915309767,-0.05117635307949673,-0.013673222892457973,0.07973456517933722,-0.01081996922552031,-0.02029763761231386,0.048695294327554206,0.0035131773256548357,-0.0006795622105093581,-0.0874083221586041,-0.0022311023040818374,-0.005213578682696895,0.008234476012792766,-0.06774387846755085,-0.02347124697440691,-0.022225175173139787,-0.03569340120832709,0.06346222167744509,-0.039004485774639025,-0.02257319352146583,0.06321106593369474,-0.07099581526965938,-0.034550222762514744,-0.024139182295266903,0.0005450125172271011,0.0013131435253970337,0.023506232839329122,-0.009029744149389885,0.028983131413961125,-0.008647487643802756,-0.10118376283702092,0.005646478471644282,-0.0007907642034291409,0.02917781164325724,-0.0011948262330232096,0.12515807974191337,0.10223836981100055,-0.2538978182911676,0.0021573942775042136,-0.005835794057214371,-0.0526227055982884,0.14005205549943553,-0.09139244315672079,-0.14807192994791446,0.11405124361814291
22.78700065612793,1.2888984680175781,-0.015283579496697064,-0.1636207789831779,-0.17012478895070324,-0.0850281108713549,-0.18464534506951297,-0.3028126856206578,-0.3123440678293253,0.043558688447114205,0.07790533884212433,0.3122782260846767,-0.0393116336513354,-0.09320270300763911,-0.14582511767786388,-0.23751032042502704,0.2415853507216243,0.03200806777029766,-0.014274575928404351,0.02652480915805381,-0.017672095968465123,0.010582842479475716,-0.013538097531241574,-0.023828456090741936,-0.05242172315923858,-0.06178630186127197,-0.0024419522408556053,-0.040478512637413665,-0.08513810440134068,0.010654338405168747,0.041375450801049124,0.0905040717622673,0.018189294625370472,0.015511220302084317,0.07621885068497634,0.007857894658190293,-0.027865249655045957,0.027479824682211093,-0.002553147337912366,0.0036862965733560097,-0.04045864818422972,-0.04956029909684751,0.024243467486793444,0.021566723969950137,-0.0015353118530795238,0.01856100187378494,-0.047306752585906914,0.004315063111376435,-0.0028497289357980976,-0.02484582269960155,-0.00566646679447963,-0.053772560201719215,-0.0016762145659274588,-0.021128151026949815,-0.04395943126059124,-0.07923851545051877,-0.08273465642244245,-0.005719208841400873,-0.03467375737328491,0.04795083421701976,0.014522720918499316,0.01420931026379209,-0.03680952065044495,0.1040364407102263,0.007375209452818683,9.946326716276432e-05,0.04378601084071416,0.007351984329687367,-0.07229846930643898,-0.0024418912468648895,0.019433129231180644,0.07047687210887019,0.06826218788070385,-0.021713306504630814,0.025684547460267305,0.10496578942181412,-0.005906663683422113,0.004894166710324269,-0.031095883737526045,-0.06168547924129177,-0.005371116493241596,-0.04954345497509709,-0.035515456770400355,0.011911772041283103,0.015935913774038062,-0.052599949181793684,0.015926323206852076,0.004212544220848057,0.004818798041802848,-0.03911301072967636,0.00027612999288609817,0.013038355698001844,0.03773230591699533,0.2437680421366088,0.022911383197988335,0.041888861870416835,-0.07727616542623363,-0.09062475367624298,-0.058260707559546626,-0.06564375897122984,0.054330154369206886,0.3087928317376545
24.075899124145508,1.3192005157470703,0.31195526171111615,-0.05280801712804513,0.019471968273168577,-0.3307528540121691,0.039185508459404064,-0.23960509801103894,-0.051961306280094974,0.189357721833883,0.20627815437930422,-0.10014015417488506,-0.012969410412607501,0.006045024211682069,0.09837057553822996,0.02525665590451437,-0.16999123302836172,-0.03245236715265276,-0.009780118090049056,0.02143429750182988,-0.02157288975458927,-0.07490149517396544,-0.012453051348047271,-0.014117226957342084,0.1368751384514373,0.0020771337466128225,-0.10416849533903111,0.016656503515234608,0.0023928163030280726,0.017052598988962574,-0.054396505782759355,0.015098937567830248,0.004598497211200264,0.006063223499759256,-0.02491102084811731,0.03898623436981127,0.04068075903798666,-5.514442561778032e-05,-0.00018614607319482218,0.03735653548269589,-0.01797075816035646,0.0191704818251667,-0.0005422246337499464,0.00015297860568730954,0.00601485083319226,0.00020678959095534851,0.09077471269109397,0.023379548246752566,0.012693849645739762,-0.00029229027123138095,-0.013105472695981675,-0.020840336662224204,0.021382758425914136,0.010067636579422215,-0.002107816411557026,0.00016286341364192032,-0.00648305666052677,0.00686327339707394,0.008276673004274987,0.019646707960408002,-0.01616053102788213,-0.0010304061658084535,0.02209385188370746,0.04963766897060365,0.05536547021527391,-0.008482420947374619,0.02485413133582272,-0.0049113224922160935,-0.04353255744356248,0.016787001459672032,0.05049573277149826,-0.01621785855467166,0.045170782327187735,0.023338217668907247,-0.0246569496399693,-0.055956708675800215,0.005267703030361759,-0.03258557694918959,-0.055197345034824395,-0.14466246542233935,0.008277411681024346,-0.007792050053650558,-0.029114628898848957,-0.028262602238198473,-0.012137032740118542,0.0017818623765298595,-0.00640142604022779,-0.05712684475057019,0.0037060839394217637,0.030756594043693648,0.05281542384321907,0.054056795062186774,-0.09243426070693778,-0.3192701153668169,0.389505160838092,-0.06310345942832853,0.23487803639183577,0.07418740662757407,-0.05004826760350091,-0.04048075868974697,0.22273314755082632,-0.02495340119381112
25.395099639892578,1.3387012481689453,-0.013472688097170005,-0.10549161180835019,0.35931953063099786,0.24055214701318692,0.2062864402724961,0.04743748773782667,0.054705848770394215,-0.06468759312861763,0.16728019978520603,0.08239856836627259,0.13228898861163263,-0.007450599973353086,0.043111473446368495,0.04712120834535695,0.12456391792735654,-0.03496687093749735,-0.1006458764590523,0.05617854730584572,0.022331154125390055,-0.0764058445571223,-0.0018992652538178945,0.0006492740843590402,0.0008548862040366221,-0.0320248200493589,-0.013598114785977014,-0.05825735818982706,0.003951310459105315,-0.013226641666448997,0.024349302866440846,0.0043848359246419525,-0.002986072372229939,0.024287921522798128,-0.06882218381820687,-0.0017896483247845194,0.00046634448369431886,-0.006859483319067967,0.04233657461155496,0.04886322094875728,0.01749498473854778,0.0012238812270286964,-0.0006918890655123977,0.009038386932958616,-0.011076641520024855,0.017531047992819453,0.047432728527178177,0.014288720188961207,0.001371993365302495,-0.00010224471734976388,0.0016604186371884004,0.027112279731613495,-0.014652609864899037,-0.038039579345244885,0.03795644589188131,-0.008858059740286259,0.0008100473098359922,0.0062570294082701155,0.018733275225464814,-0.06210071924508079,-0.055128411724601666,-0.0598500657549302,-0.026567695767495708,-0.010410899727547919,-0.008123422562933733,0.031058302712508888,0.0021168016303366307,-0.010743986707696784,0.028786521487458527,0.01914437540598965,-0.016671169415807267,-0.0187877245206459,0.01998158085984272,0.0848005499721936,0.06262619022753324,-0.0007255842789338181,-0.023292343082993824,0.06229809887235496,0.020509581928588018,0.009522366144306665,0.050345031038080974,-0.045139431662161444,0.0012412331110478346,0.0057118838307946155,-0.05806148751162193,-0.026890838856977427,0.001468318548113873,-0.00034057151930793337,0.000273531278462349,3.660817157522826e-05,-0.006210750872334198,0.01839112395216873,-0.058426772160544434,-0.01731772148570855,0.0037954395131701525,0.007601108901161408,0.03853792936385164,0.010025720703816816,-0.19842302524856228,0.07386299599353739,-0.07026510062921386,-0.1237599729098074
26.733800888061523,1.37969970703125,0.006548976893604369,0.08399556558179767,-0.03725468382448539,-0.060944365525816516,-0.0889226355040812,0.016638423448454728,0.07593131219361324,-0.02075853578231545,-0.021584927709151405,0.035992462630574415,0.009274264132463307,0.016806749404535498,-0.26331523929196515,-0.04290489794611738,-0.015127593407361377,0.023756315348876483,-0.0769611529357686,0.08018095593810172,-0.3165591384271892,0.02545822338481392,0.1034802539603844,-0.10325941198010666,0.13736248961157654,-0.41732288706038606,0.016894920967664328,0.08868555364608242,0.027740984667033515,0.009004928551656119,-0.031453708742368774,-0.01176851363178491,0.026142341289267915,0.013119721817526747,-0.09210409554820495,-0.021769623520679335,-0.017681103846165322,-0.07130497160516777,6.474301151704643e-05,-0.007296796532067823,-0.018437965525825564,-0.024471351956144336,0.06767708994228092,0.026696239248914483,0.0007780875993675514,7.47859051571751e-05,-0.010655097279330387,0.09733169096626185,-0.05299230425800762,-0.08691555392149328,0.024501906113282197,0.006844573353908038,-0.0015725103733207318,0.0005356593390678134,-0.01796511806875239,0.0023410361247220043,0.0025401272913387314,0.019169777250873127,0.0213181002606359,-0.009609250128841798,-0.06673623146734581,-0.034276717465200925,0.0005607803314180387,0.007219393295367062,0.005277688232995485,0.025374278881690165,-0.03045830271776514,0.013032200296687241,-0.02000097320879791,-0.024091952348966973,0.06898451233058138,0.045465888647321734,0.0286221857548031,0.004032084000783401,-0.0351903665491552,-0.003941751974852247,0.07969281371738489,-0.03711542791316321,-0.07969291317576038,0.06806138940935022,0.11367237612965271,0.002683156772082479,-0.020596760794698903,-0.008555933941816906,0.04315537828677188,-0.012671442215672749,-0.017212317407214947,-0.004570476345179507,0.011219760254419084,-0.02424292209600484,0.07164000497967593,0.03573884028716791,0.22272909863521914,0.12625378512125648,0.032926603512301304,0.04706115838306175,0.09767835482019668,0.042298460052416324,-0.02753542993251306,0.139307530470087,0.10706626950825325,-0.18983787044798658
28.113500595092773,1.559000015258789,-0.1974000602510696,-0.0655365395595764,0.06822648952447165,0.024134441376217848,0.16052873047089983,-0.1665623930232113,-0.020648401357267934,-0.4289925698699223,-0.581557647336262,-0.3893041000600396,0.29295938904852475,0.18596264303658888,0.10353195817669143,0.40840991461331616,0.07857726906869907,0.08868560550625472,0.09549330349956665,0.07480771694796781,0.007824559793771209,0.1287117676831453,0.01866355994599725,-0.332205659222426,-0.27503686622010143,-0.05241522919698536,0.05925340869564963,-0.022691357649073825,0.09414075934435497,0.012733744501545487,-0.2875918046390792,0.0676786636089909,-0.05091172089428303,-0.12989576960055568,-0.016064255015111044,0.05568546453668615,0.0009423645730381274,-0.1538653048298257,0.0008401670047540906,-0.03084197809413235,-0.009495361592350385,-0.05464879930481922,0.06785644891994504,0.027533875097102423,-0.10364278138484193,-0.0017835988201746517,-0.0005682193692881002,0.0005347176878582902,-0.01075058672242812,-0.017007324155120275,0.060550026988265365,-0.042344260351415225,0.06135575887236053,0.03544363922118758,0.0354490041612962,0.06586251631775546,0.06473649436356296,-0.025620686601485206,-0.01348893466574701,-0.005876687640609572,0.000319927957275618,0.00046679064013800616,0.001905108371368622,-0.10369950271781128,-0.0590906072159873,0.014728208207221946,0.041486185393332604,-0.06802778013954167,-0.02707674382690356,-0.048070265149141936,0.03241899970184331,-0.0056701690627967635,0.019962952008250743,-0.010832034369413764,0.03392489368659751,0.04637508094128979,0.02572870737641185,0.02320849343714103,-0.07610435206420857,0.05615945559226553,-0.004789225603563166,-0.0004133106464105416,-0.09325631491863866,-0.00037380399389252397,0.0007471613328799818,-0.00934487703852755,-0.017451011095992827,-0.10786181215879213,0.04090556009467598,-0.04470804050361223,-0.22356861679714599,0.05074986383794901,0.0032786594484959584,-0.07489222562297036,-0.20912371701478294,0.09294463979010381,-0.02414321942966937,0.044071214566916005,-0.09716193744255733,-0.07459133905303388,-0.048968908741324604,0.03990726359193393
29.672500610351562,1.3990001678466797,0.0626547931787422,0.0036916085199900847,0.013157217268462374,-0.027173413345703494,-0.07550765450248648,-0.07333162899826531,0.0309930118577961,0.10895563481843493,0.010296911664377182,0.0015178786983126142,0.04331258842003382,-0.023229870922274846,-0.052136201950877745,0.005063252887948581,0.0069253108504556595,-0.0006383703765063942,0.00611336324025478,-0.11991793162041166,0.06368802160606019,-0.001114584984950503,-0.012869378047380567,-0.00604875192757608,-0.005967736821998111,-0.013757253457442388,0.0026088285146845277,-0.02262865851835035,0.029179423166594155,-0.02860138656889986,0.04618157175887376,-0.08390124984998769,-0.06298001608452944,0.036657968400411356,-0.08494604958217307,-0.31100749040961667,-0.043826926537732964,0.08895586217873312,-0.017813787812296103,0.060638687361402176,0.2409420721659205,-0.01264805257854622,0.15823498844343853,0.05411720056135277,0.16337364179435787,0.034045082042240035,0.04068964873128111,-0.06161753842740617,0.012577534530563168,0.024835253451035613,0.0009105422698660634,-0.006281631039222342,-0.00012485003763704571,-0.016019745930736472,0.10669342425207452,-0.028411744062750096,-0.030107399665948793,-0.048751214306996755,-0.008764306505721256,-0.003798924928829854,-0.004675962723729508,0.0370107029119644,-0.05076528749974536,0.05303996284096025,0.014877875705028241,0.027955525894425404,0.0010092577927456794,-0.11972142492395597,0.009134553037467519,0.0002985872716984507,0.058397798544287984,-0.1099919587235112,0.039542703347232304,0.002188669771196147,-0.008491737198134877,-0.09897586860355302,0.0008186926360259691,-0.01290604718444051,-0.08531894149334326,0.05756304926445119,0.019254563530702415,-0.05338758305217475,0.014270351248592689,0.09235921191521057,0.0011950462689967471,0.04469306868953623,-0.023538323001079615,-0.01661044263671284,0.007431367585530705,-0.0013477972659271073,-0.0008035673503887545,-0.009589314455172809,-0.10298275520852537,-0.05308099384005996,-0.12202688738611425,-0.3389192563113666,-0.14444182791670424,-0.005867035778669511,0.11760581842682509,-0.030273702599567753,-0.0817176520503904,-0.07714348363181976
31.071500778198242,1.3393001556396484,0.07787293086846458,-0.17452694431570503,-0.12068175008268274,-0.16824599062091164,-0.010528047233412649,-0.25993097606434334,-0.04884597534743702,-0.009179103012612197,0.0704159027354238,0.059039969624192765,0.019996938465978338,0.19215699333525982,0.007816444293331674,-0.05318429653013539,0.012712693908247683,-0.004417082953818388,0.05387061827780334,0.047512408758508075,0.002478839886875568,0.05390815968359805,0.04875084100235988,0.005413546740491707,0.2586561844025363,-0.23123746699477304,0.02501486613194345,-0.10994197456728265,0.11218219973869858,0.07914981387131433,0.0970401240760841,0.09032418211979311,0.05507254382545761,-0.014622421527997231,0.009202390724891846,-0.0461535778356965,0.02738534263454283,0.1116207152170274,-0.16951440643429816,-0.0429656056615877,0.05253595107267403,0.008072527494127324,0.007053534299300791,-0.00455402318388084,-0.043040417047458965,-0.01967440379667676,-0.008674082000568021,-0.06251144018522992,0.014047098746957979,0.0022925520455730278,-0.012031697668871801,0.0014951476157541374,0.12292114384458853,-0.07285220599416316,0.0413820349826832,0.05159353146924693,-0.08848134350269593,-0.002732520747468402,-0.045666149699829975,-0.0108284689367925,0.002237317091539334,-0.0014170692588032804,0.009010193144242439,-0.0022100898802640185,0.05256596794943714,0.05395785738996791,0.060988590833619336,0.0031406401705221165,-0.05004797150562322,0.021181069829242033,0.043016020695162686,0.02445822731430284,-0.08042660715118051,0.04467213467495965,-0.0897322689778663,-0.03294077914983794,0.11193804723889351,-0.06494400341291805,-0.0071534048801082965,-0.10965208246178956,0.008185776200861288,-0.0044703094650694435,0.05986436174723626,-0.047495760633283125,0.003739381401371592,0.015934169341951056,-0.06977396491656569,-0.004511588724768193,0.049321911642908965,-0.05181997213696313,0.08802983918679272,-0.12889209805815957,0.16696278017838145,0.05950244244146478,0.055047104338908914,0.2813803307415652,0.11237584818199213,0.11375379152706606,-0.09453501827474044,0.1471917295167004,-0.036034276649687835,0.15444956988107786
32.41080093383789,1.4086990356445312,0.1500382620411214,-0.3060574567596294,-0.01004449398966098,0.06036087612670696,0.17630260413413706,0.04238673259409134,-0.36983460162246584,-0.1547923094226279,-0.1603266295293837,-0.09986709087863568,0.04606262612763089,0.09525959659392305,0.04679122631983844,0.08479500266534021,-0.021009157844852647,0.08637015893078459,-0.02360011485506087,-0.29675755956689487,0.00146310288119543,-0.0030628439811260077,0.04153787149148989,-0.18694670124616364,-0.15158368475341819,-0.06111282328994747,0.04964750096884908,0.10559234526626811,-0.08474851568508002,-0.13937349129395024,0.022032260521733033,0.13220731379515094,0.0831741416614261,0.043898925210709844,0.027552671187930308,-0.015953752624425575,0.027687349417790413,-0.002214457761427087,-0.01119124971065543,0.02321514035216525,-0.0024026930006600523,0.0009067101823669348,0.0009262385643744174,0.10855310502423338,-0.013180360393710375,-0.08415370684309018,0.03466087019649489,0.016663592057733337,0.006903683091088469,-0.0012387872347721658,-0.00831917107405107,-0.02371863809995003,0.09189731298497299,0.06689211098341676,-0.07833631750752221,-0.01648472352505134,-0.047766676899571536,0.0008365687853525579,-0.012314204518903879,-0.04098184316734035,-0.031987245697276005,0.0013649369755535283,-0.018923743155640257,0.0522621368729145,0.00039699199834764747,-0.010432170696831132,-0.01633747332032236,-0.0623895438783918,-0.039596605132712084,0.04063012696909846,-0.07608420900982707,0.04598560822512654,-0.05353643952351227,0.02128066055604226,-0.0036113866181630076,-0.07565336081822853,0.0278737223730562,-0.07706228185856287,-0.07636844208215535,-0.05870374329641103,0.001747012464443694,-0.014183899128004317,-0.06190029046929708,0.029818483161250423,0.013293744740188164,0.004564311351458981,0.02073263588090793,0.002441055523363208,-0.004234965469988809,0.00828996797750773,-0.11379000986250565,-0.15828608031313374,0.033713907179194036,0.2918915812871432,-0.37455554899678156,-0.18169373670092562,0.04068501231373547,-0.09346791147831675,-0.2869923534245932,-0.041358817622562216,-0.13639619237968362,-0.014714879760899247
33.81949996948242,1.36920166015625,-0.018169763253156487,-0.11321980153678445,-0.06944265442406145,-0.1409405535937271,-0.09155925082076896,0.055755340710049346,-0.08475550078500967,-0.08377706183489371,0.07248968479476507,0.07424045613711613,-0.030369355857492425,0.11888914796486973,-0.0023146262239894977,0.03276841752346033,0.012964116934020683,-0.013328340759827223,-0.09619502479121335,-0.026027744875028087,0.09087607921331659,0.11722170737323012,-0.028154177821872052,0.1661221124413417,0.11749986420198216,-0.06689842143455024,-0.05079136837487255,0.035845727938736784,0.0319969353793126,0.04001370371289129,0.006915820247405006,-0.026005407521416564,0.0650777443992228,0.020230612103473704,0.00981841646436984,0.10700888272165049,0.021003631613472233,0.03397468244709821,0.0239762220470319,-0.005889705936693392,-0.09241444186559762,0.0026534316630192735,-0.01345762274649856,0.05015216117213368,-0.0031130452241509713,-0.000436776046205203,0.0012797417687597703,-0.037020242519143556,0.02909180538690573,0.008180201395177231,-0.03516134591649571,0.024537851652108054,-0.027677752293432382,-0.04139554708660856,0.002224780956340171,-0.01929946109244844,0.036884904055597204,0.004418001518724807,0.0034984533549391795,-0.00040958346412311243,0.0044519659508250615,0.0012221725575981201,-0.006710746828543187,0.0014992295651706925,0.0002282547853516055,0.01341906863707248,0.011458839015033466,-0.07487160588291321,-0.0011450723492340796,0.071813789941948,0.04258082571665838,-0.04157319241289583,0.0020116327268926396,0.021095896137316977,0.00035880687467706594,-0.04098565779079465,0.006054725766764808,-0.051684204704873345,0.04356501892354815,0.05547171997283443,-0.06622993406259065,-0.04374461452397093,0.000705808966591935,0.035226277741612966,0.03436347058119036,0.013635161799279488,0.04491637954674775,-0.04873387770157389,0.004569698883763071,0.00561976440812388,-0.0030636453244320227,0.00647817372426172,0.10391650134320889,-0.045989288130605946,-0.06482074939101946,0.1236378174533611,-0.019399093041719263,-0.1322656884414484,-0.038188580512993335,-0.032086088497583425,0.044472556416569387,-0.07804398835159172
35.18870162963867,1.3692970275878906,-0.19000563114985194,0.3275616846110252,-0.17226888581432875,0.03877199147112839,-0.3651638986650049,0.04873137692014873,-0.07592502176959022,0.04838703552391721,-0.2197756272499884,0.2472926751087903,0.28750731745413655,-0.024304302692391113,-0.09327603300777308,0.08630753883697503,0.006164991503626072,-0.019845091056610996,0.12178247942132187,0.0657512973737468,0.06682892343965391,0.028384177366785956,0.059370996451733264,0.0889656798557593,0.06942951507613955,0.11882090661115279,0.06685498555606612,0.046345094230609,0.10360374947878709,-0.014278864275812977,0.015210119666077207,0.020441825399354314,0.004391051539732591,-0.0090781037049487,-0.06098180942323225,-0.10094423873750481,0.01707443001264087,-0.0025970014394886406,0.002022225201085674,-0.05221267463568481,0.08104833029680424,-0.008216453530975304,0.004540798742062388,-0.07799674240949009,0.031114662310772943,-0.0023517353718008373,0.0026182510593210453,-0.028689981997632147,-0.025774370930412224,-0.0023531785077326164,0.0007432076180937196,-0.024917262751952156,-0.08460023912169497,0.004441253970353054,-0.00032249451148288637,-0.0007697543978172098,0.005183991996093854,0.00866409188262059,0.026410985489130536,-0.02132188593571699,0.005492282498050714,-0.002398695361602801,-0.0735457401173834,-0.08177166092094026,0.11524843769312816,-0.0014300331272559985,-0.10663925135332378,-0.0004621776262454969,-0.009458651822760986,0.00670274408678517,-0.027390730008205254,0.04695251008200173,0.02884764330128026,0.024938307266584213,-0.08687685841969454,-0.06813732624634372,0.03235558294683112,-0.04672278646470818,0.014895686017196078,0.009509889695964417,0.09046753409124648,0.0738795404821819,-0.02605438520979205,-0.00903157837067161,0.00519537125845478,-0.05872308579967921,-0.009763813126932204,0.024291766399968474,-0.007514487491111901,-0.023034188223255564,-0.014885729177495978,-0.0459407678576843,0.10443588165068894,-0.24009109412040358,-0.1117215227396025,-0.16975569145246144,-0.4372094493326347,-0.23166887325791263,0.13359528904840923,0.04480008723329956,0.053992274047063506,0.22543745296924012
36.55799865722656,1.3591995239257812,0.2169166086896973,0.1559802805862604,0.10208699668895757,-0.012453016536266931,0.2209549733884132,0.2337321304083886,-0.22418769513414366,-0.11220681987626993,0.05152823416428289,0.2899297498035132,0.061062953343277826,-0.07474397919037817,0.030718753016082574,0.41294929631122135,0.2439820327077223,-0.48234951350247585,0.06977266056468966,0.06249200141371411,0.13368571522430694,-0.06453090834649136,0.007946386429634689,-0.09309286146097191,-0.13907956936093854,-0.07608460891609,-0.12129474547843414,0.1577143607671058,0.11241968345468867,-0.07812677908027349,0.04785671589469309,-0.14736086934644724,-0.04842429059965985,-0.12792982062336233,-0.012489157851678555,0.005048203475483216,-0.06750026656736116,-0.0005758751522359929,-0.0021913129835374008,0.006501630552386594,0.09276265086820434,-0.02958178529238764,-0.021518111286447372,0.0036251110848009305,0.0004744577870406831,-0.002486828936999277,-0.01628591711746638,0.03627834616284091,-0.0005623979914193599,-0.014677776607199516,-0.05067265028326481,0.01298954523744064,-0.006817146557727219,-0.006044419965285845,0.02559913852807165,0.03478563354246567,0.008710516286108512,0.014408159815003659,0.03306731221779703,0.04470495787057488,0.10022548635722209,-0.03166641868207482,0.11090867644081047,0.004172409729669993,-0.0065046552569578316,-0.043573748183283745,0.04549545324551659,-0.07059545907936345,-0.07572822591882332,-0.012118472835118846,0.06463441892091047,0.01499105398801933,-0.02009662324371332,-0.02752959366181941,-0.0708860442413412,-0.02700522259166326,0.0491168482947212,0.00042140994883338445,0.015953626991614813,-0.057934614214345544,-0.014033887155742872,0.07051617538271777,-0.010184315896735971,0.003513308193765483,0.005292934575836149,0.0015656013813794768,-0.002892693496547334,-0.05725452404531507,-0.07790339925106045,0.04705002320991717,0.10636573280200523,-0.07456916362185595,-0.030264672436843568,0.06694583974195153,-0.09705340196015694,-0.06056623928959459,-0.041323377550757004,0.1539368939126004,-0.0901702357391917,-0.05545749910166481,0.04920577009670815,0.258935514233231
37.917198181152344,1.3191032409667969,0.10815597758634976,0.22846949521936014,-0.23548746303503962,-0.10830691376286798,0.07532833634672306,-0.07493966267430928,0.04427317969218372,-0.04440279339840099,-0.18654734634595882,-0.2210926068848163,0.14242780897322835,0.11849961985260589,-0.17836983821726476,-0.17225854575803326,-0.14625001765063886,0.0617023292382567,0.050634049363301875,0.11411275104596182,0.0828816285461726,0.04322402072156705,0.040932513933543385,0.16060897842875127,0.08738428295519801,-0.09710671054585793,0.06167134832639272,0.0700817168621359,-0.05288465111597447,-0.07196330279923319,-0.05539158839309913,-0.10535296538472008,0.008226456797017868,0.08997118581411125,-0.032689065174427615,0.002469240548353198,-0.0008817739040969668,-0.00014350622683925404,0.0012986323695618634,0.016041478429783776,-0.0009065884038975717,-0.017043096313461195,-0.10633100567557109,-0.0842632331192874,-0.0002540471248714839,-0.06628800368136939,-0.016962776070449867,-0.013812027394871862,0.0035317784081157293,0.004219730971275259,0.037690261370799394,-0.03790686216260755,-0.007899175785828544,-0.11883802012302218,-0.0003071555631617219,-0.016576511444345403,-0.012279702266116457,-0.008294234422557683,9.998835960894057e-05,0.0012896507730966304,0.0023000416421383634,-0.07354697792013123,-0.03025019171077492,-0.04024592036986182,0.0023252887068597,0.019137304386303858,-0.045982295893736716,-0.000500922226662774,-0.02218322795524949,-0.01309356394107461,-0.018355116878834093,-0.005762915395693171,0.03553349828793802,0.009963627222796909,0.008257384283937573,0.0058836272511543705,0.0694368539572528,0.004820100937431253,-0.06758198503776759,-0.045063022518765955,-0.019380632121459074,-0.033429886075775524,-0.07141896648655904,-0.04169025779562037,0.010360207446387153,-0.006517176602577714,0.020172901929671493,0.014216740439357233,0.013990732271563713,-0.015256843662921321,-0.022801157353418332,-0.07235373203049347,0.15372344839259267,0.3100762946857766,-0.25734876325394845,-0.16856862567178504,0.060069443733228665,-0.07851293301013056,0.008985321539910704,-0.36172273328694815,-0.012865954667496848,0.05447062013532923
39.23630142211914,1.2990989685058594,-0.21041056934878763,-0.10520848875828319,0.10268192691129778,0.2524978948765933,-0.20897343782907277,0.0056559869081365954,-0.3107562487687739,-0.12506703503050495,0.19228524518592918,0.008242950204020594,-0.13237520127942382,0.08292672335976103,0.27295086978510885,-0.09668693764485013,-0.1005192462883925,0.024671008132691595,0.020228981932519312,0.03873430447824173,-0.03944016697559889,-0.12431621652244587,-0.08885635104617008,0.07652496527885137,-0.0060912796856826875,-0.0701786511082245,-0.1235773732376855,-0.0034149720836097446,-0.1045090668810107,0.008611811614608052,0.006378044871637224,0.051045075026953844,0.1616953069599431,0.02336591649990708,-0.009772715780539565,0.039334605486536924,-0.10233074456857383,0.030666821932791747,-0.0028543134707536885,-0.034227592455263675,0.008140101968169578,0.00020781638897647266,-0.005705599119338163,0.03935017898203889,0.002737295701001603,-0.010538893746753989,-0.04756647884646524,0.010556239845671484,0.0010223347421954305,-0.032258387980347566,0.0006471149503273451,0.005048945866289349,-0.034377985480650596,0.02410396702305631,-0.0037325252062301176,0.005423383415605893,-0.0004093050969625498,-1.1445036688408018e-05,-0.0005221733154659606,0.0013583659048400473,0.004309708864541055,-0.04317698556756978,-0.06387057220166564,-0.026564165171762532,-0.028392797436367072,-0.0003309053240132245,-0.006869442684404354,-0.022885373316160758,-0.0031531606686147923,0.041592910105824325,-0.034002121922872094,0.013822438894013212,-0.04170529804449843,0.07809762986223179,0.02122767281051216,0.05497178070047598,0.11576872773180791,0.061645053540283636,0.07158026245204775,0.0637658729197609,0.005560298961296526,-0.05075958197848558,-0.053906894994620785,0.11806449278744681,0.06421438189465473,-0.01949422637201656,-0.05404547515663253,-0.011072343821742835,0.001222487934281095,-0.11081254624877092,0.0249918778982518,0.03306268749840022,-0.02505023811481409,0.08179650664848018,0.043881122999512204,-0.059790926919873144,0.19226599219528445,-0.1580223111613358,0.028051884464886663,0.3110593877150314,-0.01404951416667069,-0.08081250706280456
40.535400390625,1.3092002868652344,-0.0947154118206307,0.15359971910525028,0.029762932831108483,-0.26137208289700625,-0.13720845612495242,0.020782173757856612,0.30930346741918735,-0.3631340204901363,-0.48730001578785975,0.22740373752473333,0.04152165559027473,0.1181302705855479,0.20746429254745807,0.08522670567107503,-0.019671051035784006,-0.4903292279514345,-0.007428048142468821,0.0035667346572898877,-0.08435628823427603,0.00601133615512847,0.060799576233409286,-0.09546695515951385,-0.09126341360626417,-0.04628171757955911,-0.07274081181687893,-0.08240257252901888,-0.023388271945543465,0.13040620423097427,0.07949167827172975,0.03288744106712585,0.010583803846915185,0.006922392682859273,0.008823642358540981,-0.0030453490255223066,-0.000753347059686077,0.06158151290581827,0.058719334164380514,0.018390617630435195,0.03793151926752631,-0.001611888111317404,0.001518159957265598,-0.0012284191210754688,-0.0001768082328936913,-0.020621277107337067,-0.036673279906380814,-0.05314366054029369,-0.04202219518277018,-0.0012038498109609064,0.00032077903085711297,-0.01025102920032413,-0.062421851204826136,0.03225165524248195,0.008207931916655139,0.004062873148550275,0.008261179658114329,0.017103803076623004,0.11624359687295979,-0.08332177094395443,0.07875377538739683,0.17325044459761652,0.014478198501487963,0.06760738539978549,0.07511289966214788,-0.012894168575591497,-0.002140665335207683,-0.008034518081715592,-0.013503766886592126,-0.0009555266552859855,-0.02528900578224322,-0.07095410870994424,0.0517799482560226,-0.04307701581721438,-0.00027650563225314895,-0.010526598541547394,0.005590792225947358,0.041986368370871885,0.009972700864148067,0.043166331614535335,-0.024529753244133392,-0.02550388916040802,0.01496528694083842,0.11761583747906816,-0.044423084307516694,-2.5138068160093376e-05,-0.045471161931738856,-0.023921279638975966,0.0923985084378176,-0.016007707228686715,0.08241448422464595,0.12920832684722283,0.11458757815808325,-0.0465312749992471,-0.007796690979937936,0.2687545557811102,0.014645222213480764,0.5121897009153904,0.12759954016691738,0.1468305751512337,0.020336320641309996,0.03233100158702601
41.844600677490234,1.4189987182617188,0.027253902474628874,-0.06609657571155877,-0.14665728944181242,-0.1781166903899472,-0.20283087265447286,-0.08514480219949694,0.36530136242897504,0.17529870832526467,0.11770358691474174,0.07528279065288089,0.05250492606513074,0.09992716379771802,-0.025579050479779087,-0.17066787475331013,0.12541647309232876,0.0018614517643089773,-0.004174887479493133,-0.018859579736145257,0.04904332773952627,0.07874307447976028,0.021575613950546836,0.04166584886812654,0.0389752857021427,0.03726711046634332,0.03254701353788645,0.019406952385470654,0.07033026275760323,0.005391211177418978,-0.015153895787431954,-0.0027260555030282725,-0.02603611202375676,-0.05762801841203599,0.0061677684052188165,-0.0007353199607092368,-0.008211292198895237,-0.015034658359534957,0.03602582901763846,-0.026600685816401768,-0.03260753157326712,0.03637062408365502,-0.0797090755980066,0.05799819595834763,0.028487374662954226,0.011627232173161223,0.0048935368729460796,0.013817075217486131,0.017137116869116304,0.014491293643642347,0.015442117524292684,-0.09265890867706283,0.00684098876773033,0.06814482012873663,-0.03471341123024148,-0.014481804005041381,-0.005853094867658625,0.00788934486188605,-0.0011460394768258826,0.027469734618725476,0.012124805681431547,-0.0367799464262472,-0.0036846290156324502,0.024010769180731,0.04037538946307374,0.03531038093618791,0.0069356289620391,-0.07290694468793538,-0.05637934695855075,0.052199364658686284,0.05997707954828085,-0.010825545598793078,-0.027008023081875946,0.00544429817001301,-0.023999343930648117,0.08878258575837758,0.08527974642547362,0.03557049756660649,-0.0016005688753834577,-0.015728414495285115,0.04909422596730967,0.015908509258937793,0.027184615926567866,0.0948163844768191,0.10832343711793271,0.3476153357061654,-0.17778267215904275,0.1200940869613149,-0.054710910737504455,0.00881825492128982,-0.12506914322308924,0.21752303530521672,0.010070963033820794,0.005349950941290318,-0.06390726124836445,-0.1317177135763619,-0.0377286067991243,0.067211943253247,0.13205393496111179,0.18607964677855135,0.13438151192962858,-0.122838536826435
43.26359939575195,1.3390998840332031,-0.014756289542822126,-0.11729176648921405,-0.17863150014250767,-0.08764837451678723,0.022694825126899063,0.06858073658026922,0.2379156753927092,-0.2660387844106148,0.11686857566238633,-0.14274088150339778,-0.09672915007372598,0.04801668541503223,-0.10722297090514996,-0.07715069202230437,0.18382155852453133,0.08894225267086768,0.05026354156932206,-0.02972547014516376,0.01966811211821151,-0.004666333708145154,-0.0051956220025702535,-0.03433966795686308,-0.0023101617877395154,-0.0017476296282040221,-0.23541284554079503,-0.048271197832243505,-0.010880674227725226,-0.20277093189332981,0.044235785390172734,0.02576038716448792,0.0010268520704743264,-0.10728779911058685,0.0019709380032561803,0.013075702931862422,0.047521659335032135,-0.012049178931185227,0.00040137901420971456,-0.038587312816679945,-0.011604607821378584,-0.09599373124857624,0.03868373101194007,0.0811663213636726,-0.16000828666331204,0.061575089651443655,-0.007945081037081112,0.09333581490551834,0.017418702136942132,0.006334229483295108,-0.001133487428989595,0.009688233575463485,0.08505633490662314,0.031349456262420805,-0.016204195892649452,0.019755691530683843,-0.0011171243442804277,0.03258486804299139,-0.0028281660911678255,0.011932333975220887,0.0016245016203500677,-0.0022959644580060504,0.026192118889800293,0.0016803324615134929,0.03228803819819397,0.006858945349246707,0.012816146619502838,0.024937933448219648,0.09278902061406036,-0.08579682479569514,0.090004655909662,0.04034967841242315,0.025430371272989756,-0.07884330189237891,0.008916595440610846,-0.07941648205234571,-0.04429301798672643,0.01647155950362551,0.007712266673583568,0.05020263725281323,0.010819269440902175,0.019879555047450693,-0.030424537818483862,-0.015468455200663155,-0.015416253886440447,0.0027992208044073834,0.004099210320143377,0.013304968773594009,0.00617375765417902,0.07822017761860825,0.44896885258615893,-0.05756426177879337,-0.20045202522158917,-0.015549237942138765,0.00604922929409088,0.1798801896907257,-0.1406479225411652,-0.1234809034166808,0.06192923418801354,-0.0012134915292425635,-0.048921030647941344,0.2182848850473969
44.602699279785156,1.36920166015625,0.08169028828885264,0.0378999299790166,-0.033657023635011524,0.06850998391012411,0.10391119080343218,0.006612631786748355,-0.2349704520391994,-0.06323490819928437,-0.2507651770518958,-0.14941886301676824,-0.14579963657583064,0.06712241852690963,-0.08102965842564654,0.10504587256306977,-0.015486638389950652,-0.026283220900919748,0.011482018482358348,0.02342766341794024,0.06679588325284454,0.026112371772252965,0.06481086686273631,-0.06353852658171161,0.051970127906840746,-0.09811977854176171,0.04257001517702116,0.014365104504187537,0.00791362663485749,-0.012015325481891869,-0.0052925382423121845,0.0018215344997766034,-0.006544397979788404,0.0019716293221509083,0.010423807567619521,-0.0020049256330173515,-0.12452837327869833,0.005604918946435611,0.05180341271538408,0.0030963113567378147,0.026042166817718607,0.007602591588877879,-0.00581704676671005,0.06348059761565801,0.08095050097734709,0.005868673260945409,0.01722046157265328,-0.05208719436970486,0.02606877110457201,-0.033460561776022614,0.05582091752866716,-0.05572248361526806,-0.005674349536614668,-0.00211421958701522,-0.00175915575992843,0.006664950629059179,0.0097185935523484,-0.041588306649348185,-0.012354697012400023,-0.029053752437317677,0.07988652282089047,0.008611969738663782,0.0055676814001025905,0.02556443750727009,0.01407943380705144,3.5559072974923436e-06,0.052594902978617145,0.005001922526631471,0.03193544675127143,0.006927223827942308,0.013396868331222406,-0.10956148051736173,-0.0722711339751397,-0.012052814480828065,-0.03864834139523274,-0.0225782990191338,-0.01838998070332526,0.0012974814249026316,0.002660438585974617,0.058455611049210245,0.06387773843225932,0.020374901395007146,-0.015476998900759362,-0.09765542188945271,0.04527876283263349,0.04955134767852738,0.06761657440710162,-0.010134638822285135,0.00039883386573674246,0.010818793603843118,0.03715918729096033,-0.10999421025114615,-0.11776942100153455,0.07317206814784635,0.08923217816870326,0.3358861340022704,-0.16257906103555053,0.17416779911133592,-0.04012431032372118,0.2066054766966424,0.03321588481302435,-0.028359449576263275
45.971900939941406,1.3288002014160156,-0.05139411633304805,-0.14969847621621496,0.03770757282351982,0.12620686741658116,0.4260245058443279,0.045917527246862655,-0.28001123331039246,0.1259934916492507,0.2817854494382172,-0.022753362718308155,-0.20739297374582663,-0.1669185293562292,0.19771507249836062,-0.0552831877910093,0.10072480884624184,-0.307012978394946,0.2672108172724599,0.1447408548391147,0.0066096602584468644,0.03192299901137589,-0.08686195693933049,-0.19851006446064934,-0.4055616669214576,0.005628689048285375,-0.08071327961017867,-0.024038052188135782,-0.10475737020256567,-0.12965872640621412,0.4394210479441504,-0.2803937514728123,-0.08004413062549988,0.003446853211221388,0.05121534003837737,0.0810005767460048,0.06938125518213199,-0.03482534301175722,0.03445616633816717,-0.005320371917573575,0.005280718116806447,-0.02078638221615504,-0.070573745425393,0.014597273752781366,0.00473244142610949,0.0008750226238355653,-0.019838924036939324,-0.04090110589150571,0.0019754540729305685,-0.0031639593720313186,-0.010244046895703464,-0.05820091315850275,-0.004191382538771805,-0.006410793420809033,-0.034329913335546705,0.02225397699383417,0.017654700890796498,-0.0026553272911611966,-0.009340402150050641,-0.00375365747231068,-0.014066211656741594,-0.002212861798260686,-0.05600085100210966,0.10129803090115443,-0.006518373968959016,0.0066671562976640675,-0.04160140536527816,0.022989163967353638,-0.016342318596009722,-0.062435900542767396,-0.004456298239862253,-0.020488208618837423,0.042572847355338304,-0.054729983361350376,-0.04063362914752668,0.004852401555024032,0.02146230090893221,0.01106501948682742,0.07708558123905511,0.09118570356148828,0.09260793884603824,-0.031129864019600956,0.005530009111824838,-0.045930567075910395,-0.11032836569212386,-0.02813226353363929,-0.00405275220408631,-0.0014813996128349017,-0.04316000341181522,0.014067269150990585,-0.016253847276392605,0.06314150477028321,0.06813287858931294,-0.17235085435805544,-0.1621883301556165,0.06833191937365297,0.011605081088702705,-0.0881986265320652,-0.03750645974736786,0.0956834660694238,-0.010141572979580614,-0.14401093635263595
47.30070114135742,1.2896995544433594,-4.38720205983012e-05,0.23514522181054326,-0.19163199771847478,0.16259800826315912,0.4023972620705502,0.12276413341722636,-0.06006386189671792,0.27852115489044793,0.25873746348925736,-0.049911218856341644,0.05499505366493006,0.02357298452474955,-0.262793233996889,-0.04326081498253423,0.3116103082253481,0.06524490308237683,-0.13270264672052906,0.07539762336000684,0.24684888292313242,0.1066804727875583,-0.01878717624983366,-0.09757602389043671,-0.05195264213276972,-0.026354759778667067,-0.04216671091498491,0.025998325119528785,0.06600389539256771,0.03228594880963831,-0.051627991872454586,-0.03118937208102436,-0.0015944863856256412,-0.03265184342705217,0.12699912066370594,0.009465116504620664,0.002079608191830785,-0.009859172101575383,-0.009676473598892016,0.0524151519465652,0.017242460652552128,-0.0010563550003368062,-0.0002225165810749688,-0.01791021565143624,-0.008171010406484392,-0.027242098560821562,0.03323371022996313,-0.0784176638912401,0.0066337379755171035,0.0038911292722016706,-0.0008730521916689865,0.041501107515137844,0.02637036347666054,0.007041117885807436,0.031187177489596398,-0.08188788698544755,0.03066761779840525,0.050278986981198544,0.09098929424963705,-0.009585469309936423,-0.006802969013270161,-0.022971699694114778,-0.04834120296390036,-0.01697395878423962,0.015899037352987203,-0.008331454992655134,-0.012071656441092047,0.025463731691900297,-0.022970640556825253,0.07181552558163803,0.02762578426740393,-0.05226395027911289,0.03559301334312231,-0.03397935379535014,-0.035210661330161167,0.0006533503728002646,-0.044850120908300754,-0.009162435424277976,-0.003059736401322734,0.07177824114127332,0.0448177320039868,0.005170424056652734,0.050145303307634705,-0.045562086825721194,-0.008143096575376665,0.02408061453921105,0.057924336797474295,-0.01642737337962432,-0.1865366180773909,0.14857642254487713,-0.043743245824803295,0.015129237922253,-0.0857777231069303,-0.17259895510603562,0.020561201552093136,0.013067474513676968,0.11102098665857024,-0.24103391595133242,-0.2954577818943732,-0.1370514830963361,-0.04851748429014593,0.09274120871452633
48.59040069580078,1.3085975646972656,0.09413954251087576,0.014863647206680389,0.018513531122343024,0.028894783318853194,0.031096345568565775,-0.07191554590336996,-0.24673736862681128,-0.16969678165204014,-0.06943237238005104,-0.04954632681373429,-0.04118396151006718,-0.2723945836911096,-0.0573343648024658,-0.03863492394221354,0.10032145254987646,-0.03317028561487761,-0.002034921862879513,-0.03324722519215149,0.020696006297041533,-0.16054750105408452,-0.037336394684646494,-0.08864838477211413,0.06883473057194552,0.025372718016205005,-0.01281405504962558,-0.017805096280025086,0.02628666372166938,0.044433709011036625,0.0062986398398498355,-0.11932137963409481,0.05125787429815031,-0.04196637974561676,0.009879375124498971,0.02500962476036832,-0.003106739796489461,-0.017867518369321676,0.027853907700570793,-0.009648466472128872,-0.00029725856115575295,-0.012021700591542814,-0.007082268005388526,-0.0749310880359818,0.03250598197089422,0.01595697394818871,0.009363696379663063,-0.0012198210356686066,-0.0022916027338542315,-0.0187299408884212,0.022135400646274422,-0.05773774995910573,0.031108521263391087,8.1875913049306e-05,0.004781464882796248,0.011878524022625984,0.03130962488843764,-0.05386498375689277,-0.011741644776389552,0.003424998787901784,0.016236453723578865,-0.033632230871424265,0.0016768372288683644,0.020107300070034487,0.05442329580437471,0.07669918651951378,0.020286492752106814,-0.010431657128957005,0.00324812495523031,0.10910236270995534,0.019690738998438116,0.003300463502698839,-0.028199865216308167,-0.024289879509732,-0.005941886287994808,-0.05836672031529146,0.05129225440909053,-0.010496852077046603,0.05977920645483257,0.06353198074550043,-0.009215610686047603,-0.005517697648682931,0.020959428182816167,0.07568804007052628,-0.03913826505855876,0.004883084326949637,0.0011922831335270032,-0.0038271135821589183,-0.016779653549782517,0.01390753580175122,-0.0024365795629755424,-0.13823169723777853,0.2151601636484745,-0.15453601155729302,0.04374342399343821,-0.020959363643206018,-0.027965185417579044,0.07787038410486197,-0.0049479932039138775,-0.08901238802437064,0.2188739823860358,-0.026242379719406378
49.89899826049805,1.289703369140625,-0.03741303651915236,-0.01567368183839166,0.07799379073989252,-0.06959669186301234,0.24212195345576176,0.18925078130467773,0.17036071225069152,0.1775584270299741,-0.010205770034358158,0.09374893121035358,-0.10456279440622142,-0.09033097088592233,0.140484519907806,-0.10727967157554694,0.04014619100091239,0.020098383094686076,0.08611167659292268,-0.051991081663363324,-0.07355298313198533,0.03988949948113871,0.11453626941600922,0.056118510502434105,-0.03139568130745647,0.04802353665347933,-0.02357727276757436,-0.011654743472632553,-0.07061438238714,0.02414359310492519,-0.1114534760123643,0.061425870365261426,-0.005664721440166609,-0.03150312791407116,-0.032810721006844366,-0.06017747581294725,-0.004101748014787139,0.08393652168160332,-0.06519479010745874,0.012547090010605003,-0.0014456861539378606,-0.0001437593772556549,0.0001344916786976312,-0.01589166139288637,-0.03927149392942754,0.008442988178600647,0.017436523469815873,-0.0007926464127435058,0.000424382814240514,0.0003128864564890351,-0.025789070999029984,0.032946241707779184,0.013480555330643806,0.012460606681605157,0.008679482589777236,0.025486729604979688,0.02504447971721162,-0.02217424556089659,-0.0906924509967096,-0.004383683832485617,8.02680427795533e-05,-0.005770184136029208,-0.058233230778399384,0.026351530530529244,-0.0017255858370747782,0.02230110477266085,-0.0784537657441707,-0.007119816606762051,-0.006629676336274061,0.010995504738935213,0.029295327755099042,0.020660492234821845,0.006490525881921104,-0.0037636907157336244,-0.06759731127319589,-0.0237362993687472,-0.008838092787473842,-0.13183624056076854,0.060606820914467695,-0.026606740696748912,0.027696082411340136,0.11562939134924669,0.036212741754862374,-0.031226461216350157,-0.08773603264668098,-0.0030489996163590924,0.009690778417315908,-0.03770742650020787,-0.016803354128708835,0.0029909843407032954,-0.023756016197030983,0.01037424688015684,-0.09968724305287151,-0.1579391036598511,-0.17130334508816372,-0.00493312483060781,0.1554040964333883,-0.04955148609440127,-0.14280723862072017,0.19938070134257332,-0.08710039015834468,-0.18439589343234222
51.18870162963867,1.3585968017578125,-0.16401276999909226,-0.08289132456861938,0.16288735311931526,0.17565151091387357,-0.15833752680693683,0.10264531311420363,0.01930486912001477,0.14076803914589153,0.1589696357806734,-0.144553238702369,0.14467330778802534,0.056566200958171095,-0.038487241421898355,0.08048844000315061,-0.04325624704187924,-0.018445724953560602,0.03592548933039831,0.06304795268909293,0.01476832857920116,0.007330282112071566,0.05665084226772688,-0.003323855119767377,0.0444407883220407,-0.04406187794025705,-0.26140060190307657,-0.027422573324773367,0.016528213838822466,-0.006110534779560127,-0.016573653804239797,-0.06745638996592221,-0.1263628448459043,0.05307632712903998,0.012106178663998272,-0.08073878466952364,-0.0018303765722198486,-1.1008859470584174e-05,0.0018168201857697067,0.01299568297100915,0.045487810098162634,-0.004177439411453973,0.022772189091675058,0.008727056401199678,-0.002629998242432039,-0.0006329004260484071,-0.001261095863620689,-0.00559546792482997,-0.002053739133362232,-0.06805869840679288,-0.06289689077071481,-0.11847377442437874,0.002099384198082137,0.00040917670144717533,0.00041517948757442853,-0.00511667784119499,-0.0005572747581747994,-0.006787090901151831,0.0016956364670033977,0.029377042174764296,0.049895021467678505,-0.015070041978022877,-0.016093668092036124,0.0009558609374653948,0.0293187748385473,-0.01464808856099318,-0.016440203043975216,0.0029464374381509154,-0.006003615593782993,-0.001361159576539301,0.005862542629853409,0.04050109994656008,0.027517994302910617,-5.812034705397556e-05,-0.02570918746957286,-0.0013529458072458886,0.060357412199814005,0.03650450431212647,0.1416866554352307,0.0033630137992715966,0.010778114570744004,-0.039127866472183685,0.0133379239526831,0.07845111019560004,-0.06194262052001021,0.023253127096507203,0.03560832953279616,-0.0060232844112821,-0.02812236583978832,0.11947966711221691,0.2555713970461003,0.040177691640986786,-0.04367427710153352,0.04865268331214923,-0.20236689138078617,-0.025310021506036295,-0.05320691786260062,-0.13456908410864887,-0.08021070928474039,-0.058964000849381006,-0.22591593959879877,0.04515945265062494
52.547298431396484,1.3796005249023438,-0.11353706710071892,-0.3486345561644947,0.14945681663357901,-0.24030071457172827,0.29861815908019473,0.04676045883568637,0.28537545184304736,-0.1150398443597236,0.11524938960934572,-0.012369250087182926,-0.06648231960797099,-0.0348030098203088,-0.07563728654675979,0.25699942397147246,0.33579566114613557,0.17138639619148766,-0.0651941178153675,-0.06544460838064457,-0.023583025665280755,0.23146498849846958,0.00813910881397275,0.0592350639595883,0.06625411675279846,0.03814797070566132,-0.2131001075116409,0.0627041505017624,-0.02537249216680344,-0.0732139266360145,0.10978545430557138,-0.08062489805274861,-0.028426719967213937,0.17309837620212734,-0.02367318290531489,0.012760557680738867,-0.0010633329899164261,-0.01647142390604853,0.07428079417400714,-0.09803312933292326,0.009618997915828827,-0.005819613910680585,-0.0003161635961999651,0.0009499360745476026,-0.02430684053929001,0.029610445207147368,0.010660650107233176,0.00459614595568662,0.001957506588364032,-0.01625599478124161,-0.054809888932340234,0.017284121108493783,0.0017419938538648658,-0.000961474443772876,0.010854729214309916,0.00010471750802714831,0.0007210534970376545,0.0002667432044749739,-0.00229716707598283,-0.026177718356138593,0.013577405512087753,-0.04583964181822378,0.025295504780361674,-0.0272143968845655,-0.003197374226371635,-0.0009794728978578843,0.03303421032774124,0.013466836802384436,-0.10011779367302238,0.0495773235503303,3.660933540081796e-05,0.04408176907917792,0.008704247688613902,-0.06528392733301161,-0.006707270553015414,-0.07510432334243786,-0.078320185339404,0.01847516420551159,-0.02173482692206534,0.019132945721063943,0.07357108042798946,0.006213590650620021,-0.06340217832943273,-0.000708325528700474,0.001497399140815829,0.06284824873493444,0.0036404191948833427,-0.027433900178572685,0.0009954757484184713,0.05231167726599082,-0.0060029793525711375,-0.03680170859069551,-0.03754034210381058,-0.30987531729746953,-0.26188733484855553,0.09265078201046487,-0.054889633844747515,0.10546953415575737,-0.021764270494675,0.051510322007014483,0.10544418314691123,0.011229133669820368
53.92689895629883,1.5387001037597656,-0.0028851392301993267,0.25151513654937774,-0.03600671959251414,-0.1120904405522431,0.12737965726688574,-0.007495569442529219,-0.01098465023607775,0.05161795376242263,0.03720123964174965,-0.12540386906426865,0.016570777923230973,0.06332165888967098,0.0020434972861351204,0.00564608804970796,0.09585824319595354,-0.002009061736588266,-0.0007491885579918171,0.032304222846347534,-0.09312094006044697,0.006919862942244489,-0.02735297070909055,-0.07583297907426415,-0.0010730934142676905,0.00112350258721293,0.01240619371511075,0.020965204037560747,0.007804364039058593,-0.014963745585628302,-0.03480410970237764,0.05769682501769624,0.0021260381944832917,0.05466321686327637,-0.0916654347190854,0.030255283315566525,0.0017950141863652068,0.0011059291759368832,-0.0004740132425390474,-0.010314395523801536,-0.029013365038568866,-0.0522365764403228,-0.01578351065299058,0.015342407388151477,-0.0031168833772755463,-0.01290277586545767,0.005435236650601145,0.006892393393507667,-0.006777552995459646,-0.022168027383131134,-0.0492444080606008,0.06148674637128548,0.03115411561506745,0.017680586254641754,0.03887527212346946,0.006158409825930066,0.0077314614305672505,0.02963278873176793,-0.07844330648627759,0.004297914760444797,0.0390853444865799,-0.01438961043057213,-0.06501622036571987,-0.03372197134828361,-0.03213018775832337,0.002346622040406377,0.024900240682999602,0.0023364970108320352,0.001866357737144394,-0.00677170328249454,-0.02503269672077643,0.10449495086474425,-0.021003780979784867,0.012234250176172806,-0.03978426841750214,-0.020328041839064507,0.004187992270866292,-0.014535472621420803,-0.013302839018339365,-0.061134574584726695,0.008703404509296447,-0.0036907474918756737,-0.02356055814462447,0.025776555739027956,-0.03083401258525728,0.03434903393460951,-0.012118848278953744,0.11646115007868262,0.0689457567897931,0.020827233592536715,0.0408301913852701,0.1308850448734638,-0.005747109644506726,0.0370653956869199,-0.053689209393033434,0.01320131514808099,0.02005729011490289,-0.015187861509562093,0.019278865938984355,-0.007852744202808556,-0.07294066132445806,-0.1267095768855556
55.465599060058594,1.5188026428222656,-0.10967973874174838,-0.016559775720118977,-0.12024184888885085,-0.08947532810306828,0.039189461924475415,0.1406882128509281,-0.018657019140744382,-0.0350287635394587,0.021866900946180046,-0.030085856659877022,-0.004495757605669563,0.05106273744534738,0.043125053826770315,0.006819699749895003,0.05485565529510204,-5.901320221119745e-05,-0.04785315991904268,0.001787550776345805,0.07234938074655554,0.005003840713344027,0.006713228691263539,0.0719143169077488,-0.06716513811456457,0.0038254116154880927,0.005602916635893376,-0.0005177259617678135,-0.00848482562755056,-0.07427694505306268,0.019231825889039385,-0.07551364117620585,-0.0014952284414300374,-0.005850500319546304,-0.001746765675172523,0.0013546687954454461,0.022991843345641444,-0.031976514515463475,0.09284652234920608,-0.05855119953346071,0.07497940530632562,0.020329037407230934,-0.0006168607849096262,0.0011264265432018269,0.004446195852394431,-0.001526264005048693,0.005416543682363037,0.022986462124893352,-0.08856090794057486,-0.06281200813337379,-0.028316072749275997,0.001380117624423798,0.0004974404474888251,-0.002389399312657552,0.008255670677514343,0.02711211180336226,0.044114022533111544,0.0897009253089572,-0.002094081452109148,0.04250375625154926,-0.03284721853555311,-0.04271725100963999,-0.011129734252679189,0.02056712234320298,0.030657392505733662,0.03828068926309178,-0.07510237591736657,0.013386688802100769,0.04046864566352462,0.01306655991247314,0.014167647154382314,-0.1172078074595197,-0.02039830946105341,0.034162526122947214,-0.027816874473348432,-0.14940052930352038,-0.16295702556138383,0.00650686174268683,0.06805444346977345,-0.019668116848568642,-0.026724387357382657,0.060334130135284214,0.016151713728759617,-0.012641406714795028,0.09257182192831967,-0.0005921618242008708,0.007426675938991264,0.013239988058714361,-0.07136911982026078,-0.03198656556525446,-0.002444995937257729,0.005028508467506543,-0.03683266793203308,0.016393813591923222,0.0421593016190468,0.09166865302086068,0.1859005536483171,0.17604330709468838,-0.007101903718424709,0.08146265064488442,-0.0983350872834911,0.04323938821943725
56.98440170288086,1.4095001220703125,-0.09862037265433996,0.13164049115298518,-0.04928409533033418,-0.03614723477505316,-0.05206238356599196,-0.01108973877368195,0.00806459818530616,0.1362552006273333,-0.08544312220133474,0.12372929200402259,-0.0023397543688161715,-0.09782033838812569,0.40904142234649954,-0.2243023434276034,-0.11852683475652376,0.5709046716848608,0.1460229443972638,0.23400377091663896,-0.00993231809779882,0.15962613229458741,0.018010033262190833,-0.04549368376255631,-0.02338920356789556,-0.02252692893832625,-0.05968309808093875,0.14737174613778048,0.0038888662760081377,-0.14136722463924398,0.03765405582941684,-0.0405283237838053,-0.018130258964149687,-0.0360418983660728,0.13827037355362384,-0.15310763362181481,-0.02384556365974882,0.050013603856098016,-0.13525811403120305,0.030777678139494166,0.06918701201258784,-0.03232817617595378,-0.01731198052107681,-0.08796337586610554,-0.014397113586420204,0.011452155062228348,-0.03526855319056247,0.028650468912529176,-0.021556951273666983,-0.024828723225637686,-0.053184629806407924,0.037952939281099524,0.05803177465542805,-0.0022873160452134477,-0.0005271414517042211,-0.006596598691083718,1.899375513913029e-05,-0.005017564216990727,-0.0014025955418940016,0.004126210436601008,-0.12217479860897172,0.0030221388917695807,-0.025352738217136298,0.09607235170475578,0.0008033858131058215,0.009809084820147827,-0.009907355371817268,-0.016630619146781597,0.0011098269371210836,0.02060870202632653,-0.032722367311238384,0.011765082172941345,-0.007892877082099278,-0.009176366606886612,0.027760374394024324,-0.01435318700931446,-0.08507934872411994,-0.015368541069145635,-0.03300658173831357,-0.010068788389568987,0.010320723066985754,0.0069790542379625205,0.004948159787918393,0.0011709721844800026,0.02173916358358513,0.0046884600010687555,-0.0005787388534652518,0.09253951066503607,0.02725138603114209,0.0030309322448826195,0.052422351781941136,-0.03252529205053942,-0.03916456862108772,0.005727850769801192,0.09725526024926938,0.037294107783174615,-0.04370419878087587,-0.03384590109736544,-0.018187750278012137,-0.043110320792657204,-0.09418928253051896,0.17144691315770244
58.39390182495117,1.3988990783691406,0.04591983112992279,-0.36498371796133516,-0.11948941781864242,-0.2362671882875486,0.036972083071902695,0.2746241511560111,-0.18571549962098866,-0.22250548134132897,0.06331859222451644,0.09292959117065441,-0.17620870542142628,-0.004239391346534586,-0.08306600052839408,-0.08061391542512106,-0.008763499734219145,-0.03179049746391682,0.027504136283861773,0.24988013501077544,0.05723913921204453,-0.10051493825955958,-0.11547648282549378,-0.08173519961830608,0.12650169955021073,0.0129867592175879,0.04799549579351863,-0.02876581428770023,-0.03307206752814072,-0.03253266941947813,0.02784323400915665,-0.08319313277275994,0.07083264317005832,0.04045118951937084,-0.001194442092950053,-0.00255580787997153,-0.014444753967592932,-0.05451995344233265,0.035855388028728195,0.015348287263753806,-0.015740281959296158,-0.025938469795047495,0.0055174113391147596,0.007218998273257089,-0.0005403153114563467,-0.0005280557670244337,-0.0005778224015545183,-0.001738140793246018,0.07359574596173576,-0.02564804079186106,-0.0036523390831592678,0.0005764141603714062,-0.008937948892854408,-0.026517660085708206,0.09824019438747313,0.060470175833017295,0.03258396508804013,0.04092619918798585,-0.06746210500732255,-0.07543427342190923,0.0834407488221018,0.009015615696237246,-0.0332249285859047,-0.00848743691308929,-0.00033449794664027746,0.009333797048771195,4.930043003757145e-05,0.002636251890438254,0.017289433458212995,-0.004466712481606347,0.07924110858668099,0.05533278594594098,0.011483444736865259,-0.03602714028221578,-0.015083687988319562,0.03554370940685861,0.049817249917544416,0.0276366378664404,-0.060690500055044484,0.035479654654088234,0.07861235442955963,0.05283112635275523,0.02454851277661149,0.02201077125622207,0.008545637167188203,0.03505336091645841,-0.06823046274985065,-0.026017112761326736,0.03439048055128434,0.007687363802419552,-0.049838903751055805,0.13811778160484459,0.011728107220045747,-0.12447895242501411,0.05483695939287724,-0.021995535775104675,-0.07360626376732211,-0.0948689277480668,0.04881164944383959,0.25798912800176993,-0.09579293345694545,-0.03709915501884145
59.79280090332031,1.3993988037109375,0.10369858798830131,-0.02861069912922774,0.14279818608680858,0.2728748037720232,0.2818939013755788,0.07107146780272054,-0.02573652055236427,-0.1383705932075165,-0.03503056587360411,-0.022691420491712147,0.02615447948856193,0.17821519021713364,0.3576018624225521,0.1827979244856847,-0.19112256394082175,0.14904953295471762,0.09684469023636516,-0.34200228700528656,0.23730882364560968,0.19245504752687773,-0.22392685024297151,0.07077118730325664,-0.013829336996464242,-0.19993098596118417,-0.5021305224359095,0.23830302450450902,0.06356324542170487,0.020947746574035496,-0.08287029851315393,-0.028514397715960982,0.059083060758361394,0.020647927291773872,0.07139140315602963,0.005243364309249114,0.007947319055714818,-0.00843305469372668,0.11681039275899552,0.05558973954444009,0.027311239412863182,-0.025553223858517132,0.1265598258784777,0.004694635643853256,0.05510762650831743,-0.04662948160877435,0.017112811236786128,0.012932335192138893,0.004579435864664023,0.001388529285301198,0.0009103324675614258,-0.03546657032100473,0.07300486343088544,0.0304490147641934,0.05393651410321533,0.017760402915126743,0.028672426339990675,-0.0006916822676339418,-0.0009553310352501516,-0.018489206170318958,-0.000331030716301444,0.004093863524858196,0.03201081950063949,0.031145473830459295,-0.0011816063684039744,-0.010963420575319226,-0.0015803000252149878,0.040012780171401856,0.006015655686899285,0.0026669071053491496,-0.016049749729883593,0.07321343301535854,-0.024797400572544665,-0.033165424171415395,-0.010751152898132648,-0.04346184214549818,-0.060719125916634475,-0.034478631162399645,0.0009647550202707896,0.04284248963226048,0.03035180537916376,-0.0320793511826151,-0.01695462047492754,-0.003975175331472699,-0.021020321791402095,-0.0010680155098931835,0.008054147841767527,0.01177439340993831,-0.033095000431066134,-0.008674837355957447,0.005761713965949321,0.020532653774779176,0.04513311969243508,0.007925823968653725,0.1504996681017211,0.24161397516645228,0.03221250582584726,0.02925561366893606,-0.11280576216174294,-0.1803469183683806,-0.15459890674558466,-0.019598166126422713
61.19219970703125,1.3785018920898438,-0.030232982212250986,-0.019411554476083788,-0.07528733907710103,-0.03025035970345014,0.25736673045224545,0.22649838454225665,0.3115096798571976,0.12269030990336444,0.36295531764907546,0.06718244508965894,0.18488625386943652,-0.18045474032586242,0.09393229514253242,0.14849739571903056,0.17548270102820912,0.03473808555824462,-0.15797769571783657,-0.05777403736017965,-0.17156611913719294,0.017783954504644928,-0.029874143717302515,0.020631344543051072,0.03541564893699025,-0.16529065489453507,0.07094352017013106,0.0217771722811252,-0.006213233584689169,0.03841931519039795,-0.0664219871864843,-0.15578074614527068,-0.03913459771601058,0.1054463731685225,-0.06202117299300635,-0.023608562704467925,-0.0013158251140352737,0.012630802700255869,0.0032678553938337435,0.003473257994698655,-0.022905296001059585,0.0925533708218559,0.03152986086667456,0.003278691503168149,0.001127109489822015,0.0006285932059663935,-0.0060072039675336825,-0.009823999084892466,-0.003448604878271177,-0.06744409508184969,-0.049906634614419174,0.035711915618115576,0.021150765288934954,0.008000689172113988,-0.11505858899272504,-0.01506602548584017,0.023650049583577942,0.012147069816983116,-0.06161826002877404,-0.00022325068691147,-0.01518250753615576,0.014958489007667972,-0.05715846828900795,-0.08508462683253509,-0.0044651886677945195,-0.007100276268844555,-0.016431132967023896,-0.04561142768261818,-0.023192649362575375,0.016112838905081427,0.0008569224181876173,0.011553270475524591,-0.01583163065072375,-0.019525081916689658,-0.040031315112667804,-0.09178839653302291,0.0003580822634894129,0.019977484759563922,-0.042689678099983266,0.02889076788010063,0.04429180672228668,-0.06779950691597685,-0.03034142889018359,-0.03381616777739525,0.0019332217514449162,0.008465150126477009,-0.0726566802362586,-0.01298581717589894,-0.015538182949962585,0.01638657341336259,0.07376578828097947,-0.024004285622028804,-0.03634881664367787,0.03951323798152337,0.012730449645361932,0.07104792259728335,0.08636450883805039,0.011777705524038597,0.020157149513872645,-0.17994658280639728,-0.010874369321318245,-0.020384392190086836
62.570701599121094,1.3696975708007812,-0.1538802250419587,-0.06556554535862952,-0.23255293761603885,0.35604128444067334,0.16216215784654148,-0.25788531066602294,0.1746332295141945,0.23063399421771086,-0.12498349040941908,0.1807663832782436,-0.09646959999865987,0.012876445327835957,0.17384821960387847,0.5116931985362713,0.26536190857134806,0.049920010753167814,0.06871886005801567,0.04726909894140946,-0.10446101050359546,-0.031845056344559454,-0.0440774585996333,-0.13276658759791093,-0.05359538162599277,0.05306984938733589,-0.05660107356164413,-0.056025814391268774,-0.0386134305839166,0.06213632486809059,-0.001682718742261156,-0.1283785806001898,-0.035316143930950644,-0.02223100988168086,-0.1491678418540589,0.009932303728435558,-0.03483154096838916,0.03161878855243133,0.00993258080191303,0.030262151143454458,-0.00314573138918097,0.00022806246199076375,0.00039918503405560576,-0.010688145064625202,-0.021666269934479288,0.08329868677558266,0.017460040458131453,0.013697442407065568,-0.09512165556676527,-0.0031679481359530456,-0.0009807526652375088,-0.020833065758913066,-0.08576810044537267,0.022839985792186848,0.0037735215895243627,0.009647952276729063,0.0037746467783463925,0.0027706157392598436,0.015733136430228396,0.08846829320605588,-0.014496908428840211,-0.009060834841288794,0.0073581625771721405,-0.001158668576554626,0.0058586762658188185,-0.06899553286401322,0.02826312385726088,-0.05406333708090446,-0.005625132456471522,0.026638420552972903,-0.023498948612494665,0.04392560114112639,0.011556298359215388,0.03126507143680943,-0.013553650421870499,0.015689844452379455,-0.025323100925135948,-0.1634113212266318,-0.03349681876491698,0.03857603104582705,-0.08386319281435553,-0.13050361923681336,0.05188630931501042,0.019163658698362545,0.013714310229948491,0.08918939401587021,-0.005272037144999957,-0.002373228663587107,-0.03740248676933826,0.07530305136522251,0.004622094219403859,0.052145411315786726,-0.026821355295635195,0.14860296013692537,0.24747511579387133,-0.4572901855017416,0.22958157256458597,-0.03985808158541235,-0.06776696262544275,-0.05897608522793726,-0.21458067006399084,-0.06339990486680558
63.940399169921875,1.3490982055664062,-0.03656122943785439,0.04761284939813511,0.004179399368476748,-0.11112259963887688,0.1878097752092398,-0.12900208666680918,-0.0420917928845373,0.3969425174650041,0.07654935777064269,-0.03492914651394105,0.013915506478354467,-0.02473861522719807,-0.029023269259749802,0.08343952209867245,0.08492489436722923,0.02973095777370449,0.06795589203036062,-0.04780269401000947,0.02937305434192048,-0.10262173883763802,0.09004047632919816,-0.06166125397066393,-0.14735897262040148,0.21497480660078347,0.07455260261129643,0.0028703420176504763,-0.038924560375169066,0.027129631730522026,-0.0018741200870045682,0.10284590834537982,-0.12059015385878816,-0.004771552085543419,-0.023201857802996762,-0.06688741535268196,0.002530223458934201,0.041804187119310006,-0.04509997844838817,0.03322580246459527,0.054407602766666494,0.00253007170087784,0.019816439948525912,-0.0006005936354650155,-0.007901874372837452,0.0023167985312373437,-0.022167131168622903,-0.008855921011022894,-0.06070381486812275,0.033640611686934364,0.0010667499477469249,-0.00232029944802319,0.004881824400864755,-0.00163971052208712,-0.011996204867920732,0.0011549948775699797,-0.012884770188159698,0.005254516083308707,-0.03716775314579329,-0.006873648308202893,-0.0012401045094954412,0.0002429192764433024,0.004633731366205109,0.03858192128761734,0.04737691408165911,0.05709985337571193,-0.011202749885426778,0.005467659969222025,0.042545864415909435,0.004003727733843193,0.030218472267079008,-0.015960258422234832,-0.067848242266686,0.05469740676344486,0.005862533135253634,0.09048332798926251,0.08086131970542355,-0.07564313580795341,0.026507283272854038,0.001281755020431538,-0.002990016755576006,0.03588504077791783,0.009911102013773522,0.03410505709865121,-0.02474973850436528,-0.009608758809432138,0.009963221896943106,0.12511599394843986,-0.03123078649568594,-0.013115660993755432,0.0027097980996143678,-0.037118569519171356,-0.06095553766755877,-0.202123757167255,-0.08164727145907447,-0.08656513233708914,-0.031185298120627723,0.10260107090761514,-0.08629893235700223,0.052424098386268395,-0.25115946434373776,-0.14166444152681376
65.28949737548828,1.3889007568359375,-0.00664271023445584,-0.0473375464106988,-0.07268687892027346,-0.3197861320903016,0.29426071819997923,0.10038239360882288,-0.5160244862400961,0.16763323716046502,-0.011554219829677772,0.20424327558360067,0.06574347249069687,0.10109339040069633,-0.1161326086856451,0.0289046724019803,-0.07686754034021509,-0.08378606002715948,-0.10223569532944177,0.005516582654436442,-0.019421309232869444,0.016772213824823155,0.008050970858830752,0.13293085226432821,0.09547378384439564,-0.12501871993786004,0.021886578490415965,0.06318925156382613,-0.016013261958532143,-0.07010939280043736,-0.23034951841204623,-0.09061809560460231,0.009686087043611083,0.0063042302889110445,0.05577564312706067,0.0043056907756083345,-0.016915262583262813,-0.019813116442462624,0.04276409569637809,0.013228657899725013,0.00515843467341136,0.00090632364171127,0.10791071550302575,-0.024835853331554983,-0.022315064604217335,0.04711517428958039,0.01573740719504166,-0.01374280753890933,0.043837396657753505,0.0019721113463193533,0.006350364416305915,-0.009658226198343799,-0.05609470271683303,-0.07091922628982147,0.09141129832487901,-0.033869261197333515,0.06387650237583022,-0.022040795007090296,-0.009168483988661411,-0.009953601557041069,0.00032859716687021705,0.013404990750493525,-0.060574037998355826,-0.02644754827634578,-0.006269305936089459,-0.07678941137317184,0.00296615679445723,0.00844094629824176,-0.044498916761710264,0.04396432984490939,0.012863484766073765,-0.08185916417103133,0.018919110780682553,-0.006477725803442476,0.05185616301926394,0.00510365829626952,0.05462587446119484,-0.04121861160057082,0.05861449965872552,-0.043190430429383274,-0.038774579593453984,-0.10329213172994907,0.058329112448558415,0.10770072032337343,-0.007834609387648354,0.010447285266883377,0.02412607284411054,-0.039008659067104455,-0.10168749304038494,0.14079517073060477,-0.013995323566709142,-0.031373857883155866,-0.01303395770197709,-0.25588408540376606,-0.10430621150460678,0.013057017935672212,0.0425431217499125,-0.05913319439670566,0.03979283106459712,0.03361821034913106,-0.03680679080067596,-0.10595081713426284
66.67839813232422,1.5290985107421875,-0.10762459660145424,0.04086388319643715,0.00398959543272049,-0.09003826581946248,-0.05166934787770401,0.05175415185235613,0.0675098623023144,0.05779206926957392,-0.07865540756511005,0.04303820630550897,0.08548378868431442,0.003545296686035387,0.06175017780791204,-0.011355043472644292,-0.029207447526879135,0.00320692916416452,-0.030882675840969494,-0.012709153721546643,0.012889449106276438,0.004987487062760592,-0.025011127468232815,0.05834454198325361,0.03439180556708315,-0.06094273107682156,-0.022261989483516795,-0.05427311673244252,-0.05703219351469721,0.005572183471391514,-0.06182918977882457,0.02841935549263759,-0.005375829834513264,-0.011657427903014822,-0.03428847750539699,0.060296847014410786,0.04451399113601693,0.010129561218078715,0.00665951365424167,-0.001456396130843665,0.001581585029801323,-0.007068958295432056,-0.007398453540832747,-0.03202981579783097,-0.041845334418055775,-0.10518266066881891,0.08856886510133255,-0.04302288185939635,-0.011315497291865293,-0.07780995419978659,-0.07143828765852923,0.040499756477014086,-0.05862788922306368,0.030827000843803014,-0.07542660113431082,0.055863172176392514,-0.06182854728407708,0.025861116021011543,0.05288129274539899,-0.06680054077403376,-0.007462827136308396,0.017129159934516885,0.0858419681979321,-0.01928182504771845,0.006622585818528598,-0.044634544016962874,0.00696538367632026,-0.012706261905303337,-0.0846916306384953,0.020637653364613085,0.00547402941884539,0.05791787300157435,0.025878872779560094,0.04075704029639081,-0.015384753238687146,-0.0475408703151671,-0.06327877190471237,-0.11455043255634989,0.006267824786005252,0.05806036113700365,0.02813821295884555,-0.03330090570369994,0.0013501887614202337,0.01781596852405512,0.05842199929587361,0.01167352669219412,-0.06084486830470627,0.07962224142616392,0.00440736260563848,0.17910654161924058,0.09881681893404536,0.045617112375158336,-0.0926347588359303,-0.1341336381399206,-0.05843322722534322,-0.12395033564214429,-0.3248516525587787,-0.08055818835011677,0.0024653445146399083,-0.13685495571776105,-0.11658663796908664,0.04664060812570426
68.2074966430664,1.3891067504882812,-0.09070516806711679,-0.025929405880418477,0.03556208926715321,-0.4821815558619367,-0.09752064169721197,-0.20170480291937914,0.13883865501604986,0.054078320168567444,-0.04274963062189641,0.11769032645687708,-0.04663146859150134,0.064130695698508,-0.10006074645468961,0.05736694004761886,0.05923996290092824,0.027321357608317873,-0.000658365593291292,-0.027537287372526507,0.05549911610888812,0.0050990350651563396,0.003527728450579032,-0.020289426833541492,-0.005544960622848256,0.0034405353582311203,-0.026817927583367002,0.003077646684139015,0.009042348014670729,-0.03823030044098393,0.03179992352489632,0.008174120972300561,-0.0013922828678107014,0.0001704554891561947,0.0005935639852585439,-0.01890717783843386,-0.007041416811344021,-0.004615116273423377,-0.00045669482272658825,0.00577445408091901,-0.014361549524450143,-0.03612606975545277,0.06422420723871078,-0.03300262602439637,-0.08472170386248315,-0.07876011010202974,-0.07658384668615442,0.028990875436234784,0.015243200161531963,0.0065345935650521925,0.011919417840580555,0.027245796667843467,-0.059142022746136294,0.027517969460962285,0.05078379867020716,0.044708527129734214,0.0611025758174725,0.08594808249589536,-0.05625310706491697,0.037702622724865464,0.00661958122742571,-0.09213634301616885,-0.003725455070938951,0.007358183248593525,-0.04565096740574441,0.07233486373623062,-0.02783927829702128,-0.0898061615873798,-0.03019386601260165,-0.008536705056734867,0.1331132010405617,0.03853764880316782,0.00318342797797735,0.00555455079256327,-0.08424555305284043,-0.01430779682093732,-0.010979622143612687,0.029750650902647585,-0.03076573578472373,-0.05113149608948016,-0.015036948533441927,0.003961084321901564,0.05395266879484592,-0.03486920494689426,0.10270758694414764,0.024814468299384863,-0.03962026431950533,0.00039519997461645107,-0.04595947370242662,-0.018145045063389546,0.031221203927645654,-0.25548869195879126,0.0639666196461348,-0.012727162926919796,0.15315595033629653,0.0062700739990774745,-0.08360958558517846,0.03582750204804058,0.4520786346476142,-0.08451418904656163,0.09431135875199945,0.05218861207677804
69.59660339355469,1.318695068359375,0.011733436342184829,0.11016551448750837,0.3173632618624503,-0.022099022786824025,0.17719272558578542,0.17411053178747835,0.4645905860355685,0.0883104986161318,0.08063507990720475,0.04519993530972773,-0.16187940360213132,0.38951235215772856,0.10876221811778201,-0.2673021358689718,0.3366245681639677,0.09291657751166553,0.1670313160114522,-0.10615361347620297,0.06412205134876148,-0.04766177071283686,0.03555607743193088,-0.32560016395755603,0.03030066487677083,0.04221436100907899,-0.14289989394523944,-0.14187124954335098,0.19117243510447307,-0.19467612377595606,0.08559640566150949,-0.03662306257918841,0.031235376168835684,0.1494415509591828,0.0071360022662567526,0.028283515371718186,-0.026903999320659462,0.030384389235260618,0.005295967679004159,0.0046270383300627375,0.001965836668904369,0.0070498906374337235,-0.003690815960924329,0.0008661151875260327,0.002939243224539411,0.003753031641901283,0.001054450858424056,0.024713767052503995,-0.00015129460208896788,0.0017830225995698469,-0.005285028917922193,0.06690941946723299,0.007175986934384265,-0.000316861167566475,-0.003599030522626112,0.023538053366626836,0.09403290362747334,0.002026011793595393,0.0041537180198180645,-0.1109703266004301,0.038177402291330834,-0.07945097235075836,0.004367303530099613,-0.012762254738033647,-0.006363707314879671,-0.0020580423947125096,0.007508308545088589,0.015827157708891176,-0.08490908515797875,-0.020615110129534445,-0.04729202179560876,0.048491951821798905,-0.04224915956493338,-0.019944463680406643,-0.01663014968114417,-0.03452680316544085,-0.10873205458922856,-0.028551692762201764,-0.011175856432952082,-0.03524079567214172,-0.008079478795127527,0.0030677792974056583,-0.018383846777393784,-0.1023381929580348,0.004079560895814275,-0.059623287431219585,0.017169541717933366,0.004030326319785709,0.04979038200809881,0.020043529260553795,0.0654026542315829,-0.046458965158912326,0.0963744733825145,-0.0589747319651768,0.11713758418083665,-0.2645926147832316,-0.03822091471532098,0.30434630510524324,-0.02888726012393509,-0.0019517268862338363,0.09289411243984061,-0.18764075917534162
70.91529846191406,1.2996978759765625,-0.19901573075404214,-0.2111922175627984,-0.01785890976799974,0.0241013210156346,-0.03114017092065628,0.13166019792891895,-0.3846746751926428,0.032657016895555044,-0.0781104590903225,0.35475742789474707,-0.04662899943337997,-0.02720175786262607,0.24303092194735124,0.033599250089838745,-0.543698425176196,0.0912027137555852,0.1565574323816025,0.22350485816239546,0.24721678574356104,0.1874520333631709,0.012258204044135499,0.17349392964548305,0.14043451787314307,-0.032337727941497654,-0.127062099617925,0.4435755458208473,-0.055746260477831086,0.006031677338635244,0.0883452635071736,-0.13288901388471705,-0.08190828436959843,0.03518038747402743,0.06865175169559141,-0.05255182049006415,-0.017570144771620905,-0.01811438870731076,0.10362621166971364,0.08099042426398477,0.04059859331083925,0.04178570770292173,0.09592492882760781,0.051498984914059014,0.008996065718668086,0.012535373680045507,-0.0008491880493220182,-0.00021756751160617084,0.00032986088204587456,0.0009329830952453063,0.010854008775737473,-0.006142553653604634,-0.013965491267304885,-0.002365207387605997,-0.08169150664421816,-0.0937916042035941,-0.08695290427855422,-0.048543168646550144,-0.02561219453937283,0.0030452241802404827,-0.0009520198354040428,0.004939550901030797,0.011269563931590834,0.002329743965324123,0.01197685642627472,0.0036259375872750256,-0.00016891042534041142,-0.08706443371764988,0.007566994680858403,0.011891164768108864,-0.024422252886741214,0.008351619287583711,0.008988431672321287,-0.06619912429066069,-0.03987273689161744,-0.0740618440289079,-0.13302230506230883,0.031507622095647836,-0.0052273540887823565,0.016007800987308016,0.04256297293014745,0.02928581262660545,-0.06911970010124989,-0.014334103687689503,-0.058384999361974596,-0.003821398680133862,-0.008714795344173343,0.0008286211728193712,0.010363018547779684,0.00022788486789764484,-0.00950488792145663,0.010093955045755448,0.11561831139277566,-0.046430562002120236,-0.4114451160285312,-0.3200128371414699,0.01822262031872864,-0.28572104537613463,-0.3028412883993526,-0.19175511254732958,-0.025168297616444145,0.025736968442766864
72.21499633789062,1.2887039184570312,0.027829359711100638,0.04062450487100276,0.010801277504322507,-0.09354372615308092,0.32329613301298765,0.20728246464844308,0.344500683437711,0.032387941855650235,-0.12650831188125772,-0.04941877294037252,0.2628182532057506,-0.005834816849316195,-0.017143084580076722,-0.029578007561122138,0.2902399150315336,0.05316919859089982,-0.03375879145195329,-0.5721623545157704,-0.1520688742246749,0.05113652924410063,-0.11284279856477025,0.11802835506317126,-0.12060003478120752,0.01768337785518922,0.04288636711572098,-0.17833839274858973,0.04363819086851932,-0.002613806970523158,-0.036836379798865136,-0.004885506468932526,0.006519650247883058,0.009080348667931339,0.008295352036702341,0.03690020129533275,0.026058074496892472,-0.0661094026527764,0.009608965420414249,0.10726860889050052,-0.1641430084866278,0.05549884857167201,-0.005429862042161193,-0.005722669187068202,0.0011070294657457938,-0.0012468841797738885,0.0016651050479695717,0.10411992870735852,-0.0067375182622932146,-0.0017825284247266608,-0.028357320903443572,0.05129211842602653,0.04025566572089728,0.035060483125658404,-0.0721663964432834,-0.04621475958916181,0.07978837088489867,-0.011086229039067686,-0.004113628467277317,0.0031232331358957586,-0.0021092551137632375,0.047195112171881465,0.024034082651109248,-0.026727864690116544,0.006251969077380758,0.006741314725180104,0.019274103316443206,0.060871142568521504,-0.0040933477856208034,0.0046448823519102565,-0.04214611464343201,0.03769843380410248,0.006330611668632572,0.006974730822638987,0.06990203475105428,-0.005292420249295217,-0.04201066240476413,0.016802346013084057,0.09673162362722793,0.04989454856057888,-0.010845176812680258,0.005665973690604544,0.031067573362373938,0.02811179922204633,0.011317842564380093,0.002768697069300435,0.00619187058004555,0.002844826876878037,0.0006326788596598209,0.006041152487331329,-0.2113442909964674,0.18153089667829053,0.36330991444403093,0.19151774819891182,-0.079135028855295,-0.2639177615655272,0.17752178988638287,0.05695877697597955,0.04895052077451832,0.08769062920214078,0.09700963582714839,-0.011885021266457834
73.50370025634766,1.3095016479492188,0.10433280206603884,-0.4833929799966508,0.09950758600355628,-0.09138475808173566,-0.0297131517586802,-0.25631368545710886,0.4049061609685855,0.07885502123481289,0.1479112823997314,-0.12947547362285525,0.2967652015336315,-0.35774598795989226,-0.3541690397181382,-0.001185979963533192,-0.0016567386925737532,-0.0686845112618298,-0.2948768651423379,-0.02131559459031451,-0.055776355486614825,-0.07801790310166537,0.12004059617640682,0.04432652538983235,-0.0011541901094074686,0.10154636896485728,0.011892849183683687,-0.06276725616883375,0.0230710875787683,-0.006231411192136303,0.007464800985738873,-0.17516495343330893,-0.025643943287926955,0.06882829543318338,-0.01766033114758877,0.027811482290118428,-0.006745735751285582,-0.051569036079933676,-0.021313777591729175,-0.08217849166171295,-0.09636266353230717,0.0033156623580090777,-0.1306890891642488,-0.0013242558829192242,0.00023501487193217815,8.711179396989685e-05,0.00024052331049263594,-0.0036399037927784266,-0.0009396057406461063,0.07948895157507314,-0.017247470272001124,0.04542418499385087,0.027794878410998876,0.03658212138772286,-0.012603834572451046,0.0018682647036115448,0.05107870300530833,-0.0659435542912729,-0.05425001507220561,-0.015033246995910974,-0.004801268058133721,0.0012720768141122093,0.13068166181877258,0.00787412410771511,-0.002471592588354161,0.0018945914625448888,0.0359039738166599,0.003204938885793197,-0.010413186106656739,0.023419615644613825,0.06889057059210378,-0.05347798034336367,0.07653583880878881,0.015617268173969752,-0.0009747792139754967,0.0011297950418325195,0.03436689562240282,-0.008740870765162792,-0.05434075029444573,-0.07821184700194,-0.0014200071687504522,0.007500765039772886,0.02592638956671286,-0.012214319905853551,-0.031182748188171967,-0.00689495265324226,0.01714273261711915,-0.06110968839143681,-0.010609875800776845,0.021007468340191834,0.20511835135301534,-0.11364169807553307,-0.24146965478883248,-0.3174707601604341,-0.3784481390217864,-0.3298470808391472,0.3054164784108614,-0.016959023437701996,0.401440862478809,-0.0759902380055966,0.40207928118164865,0.09876715361528803
74.81320190429688,1.298797607421875,0.11638705438965209,0.17324602327261862,0.29508490785224184,-0.264279064545423,0.017580502590261483,-0.0846513088092128,-0.37847591249530593,0.0697866736507675,-0.14395469527819524,0.046791180210868255,0.014035546678436357,-0.004049724449965426,0.11085008477804673,0.0361146551040818,0.14234715322312638,0.03151988413360166,0.090030166681965,-0.030733694814229717,-0.07499227661507589,0.1949763904629314,0.1440227860642967,0.08803037289178668,-0.12221244744292104,-0.11430190123693267,-0.08216673832006591,0.01968292401591579,0.05808586638220849,0.05138963292318004,0.10358907440156413,0.08252655109589592,0.03624515761589397,0.1114593922171595,-0.07004420379267659,-0.06436103959598755,-0.06315777867109168,0.009114776788659396,0.04662924792034154,0.019384041452392933,-0.03173387238266863,0.008944245887812185,0.06828825158882397,0.11178808874412904,0.08738152423939965,-0.05556876227712517,-0.0014300978983432244,0.04835102839575019,0.020212192387863114,0.01621813201878184,0.019935243900284963,0.009871452444953148,0.0036142277341557143,0.014326450077167057,0.05616394049808917,0.06636818367638102,-0.019540590503573752,-0.04373813563897905,-0.03500566353699776,0.005497875651532013,0.0031568604429954446,0.00019588454173836398,-0.003447585938569609,-0.005249964643450233,0.008303529355705986,0.0013150511967618076,-0.010181552500169019,0.011702305642399257,-0.011085220283504851,-0.039722954472514636,0.0061762525986213054,0.0018258058202164822,0.012478241035879146,0.022838833179858166,0.014849094374558633,0.0885317291418907,0.0341555050052647,-0.033068823308562235,0.07563872640104775,0.026464288050204288,0.05000095708161951,-0.051311887581793184,-0.005207429345384281,-0.0921922592218437,-0.00245874127134681,-0.004772484911905844,0.025864811258471274,0.004045051720669646,-0.007224346735480841,-0.009826637528755372,0.010416074792221754,-0.3239606305446912,0.20808338774134227,0.11893535199575223,0.12192390607383873,0.10322621432103017,0.026688721958745956,0.002416167052589206,0.04003409455948288,0.1976630912003212,0.0474904284098928,-0.06492693497074536
76.11199951171875,1.37969970703125,-0.21102528816370897,-0.19465492482652408,0.19309621200443083,0.28714381512513176,-0.15530954267225663,-0.3567864372341022,0.14728059036008076,0.1492236558211711,0.07000534868620098,-0.06002447439539442,0.2868183957605009,0.08305117349183846,0.12896774460284072,0.30023600484405144,0.20785593710973368,0.18645955884495097,0.23730458208436225,-0.0814495240694211,-0.03544505028388375,-0.07211502111536251,-0.1009861066819484,-0.04734946387674067,-0.06081724253443362,0.2289339960101451,0.08181417776946222,-0.00022170636879272589,0.010715452200973412,-0.12183083213896431,0.13210733613623063,0.13270519029427405,0.18068300977134005,0.002673772235313371,-0.011685962548423082,0.004802646169753409,0.01850901897228914,-0.09275689981986492,0.009277825797631124,0.04675063028668369,-0.09968329649064482,-0.0008451189911485571,0.004846796316482511,-0.0004931054001509562,-0.0001241396675007199,0.00028333356264660897,-0.0004612017071945561,-0.0008544438902443542,0.05247288639093092,-0.04349179984076543,-0.022537212775002737,0.018129183038505792,0.02096748139626862,0.0013635956379477285,0.012194059518560542,-0.07265329207049429,-0.025893624745988303,0.026620824900515355,0.015828708480246777,-0.07560518453755045,-0.038069359116047446,0.02107734810338531,0.045341336788188705,0.06235899087450701,0.0443224350178215,-0.0007501433230247571,0.02313875984331475,-0.01875003483564961,0.01217671090472755,0.012367809772935496,-0.028278709918377956,0.027502429527092465,-0.11875038254339593,-0.03884376325910796,-0.04400219951138465,-0.024184709207170915,0.09378392200753913,0.0515872641708727,-0.03141816758760095,-0.013061657515345628,0.0004987986217394999,-0.001888709100114328,0.03219945276610707,-0.008301838882976668,-0.008194743029347258,0.0021497927206341333,0.002111593724353839,-0.09246352667872564,0.004724631029421284,-0.07741894869459598,0.021502425514625313,0.022203178529444253,0.1618467386205587,0.16736895253742762,-0.20646796181427787,0.009080215653875153,0.05184258505227042,-0.023650215223128965,-0.07327870852388245,0.10729553483766437,0.06443459223573435,0.15464230642653085
77.49169921875,1.47869873046875,0.14081932320769855,-0.0027968735724952787,-0.23879630261426943,-0.2603538159828801,-0.4479349962161287,-0.1553315378941237,-0.026432216097075432,0.16306426668637442,-0.23760658682688995,0.13558251058432477,0.005144699222147775,0.015284547633756394,0.04029397808164144,0.20696859590373395,-0.10998726416321311,-0.08977199767776492,0.01823052060386962,0.012423280794798883,-0.05784550332198306,0.007858219843027706,-0.07271352386191413,-0.04017433766588084,-0.10177460293436238,0.0545438863852311,0.006828705073436786,0.018294355167746155,-0.03751894568944725,0.004163259495528158,0.0015236722571166652,-0.07677104198166676,0.03468878853100292,0.01637304628761268,0.012347632338132696,0.06560282038048361,0.02703189170682035,0.004537397485822107,0.012566372563197972,-0.0008049074900996018,-0.00447875282834313,0.00030909805170145844,-0.005491008565647965,-0.0001640031023182842,-6.190373531654854e-05,0.0003544383429078207,-0.010678305382092789,-0.03507664233247088,-0.006519311583580795,-0.06764498425266982,0.059564329706608785,0.08521777683858464,-0.025586633226095508,-0.08187979655432703,-0.09047335882286905,-0.047604317584756625,-0.026105583034335546,0.04441577114890456,-0.010127162086396987,0.0007615524386663756,-0.06751165969398769,0.04970978911998036,-0.008685002413804628,0.06577393706856993,0.013818479502919678,0.12069587800637707,0.14560593665173666,0.0919298347079331,-0.05510240127968806,-0.044543815967989064,-0.021375519666046602,0.022583438249929318,-0.0745095576044534,-0.03833192872356159,-0.08119910291643616,0.021555530807284312,-0.12030625509224034,0.07015525076610213,-0.09160373122810914,0.012404618975115064,0.030320327934553234,0.07890704100323644,0.010671044219310267,-0.036724556342345095,-0.1398897807320578,-0.009810364184499938,-0.08257226480072077,-0.0028357526824345216,-0.007762425307365706,-0.182370228656638,-0.3365436087131437,-0.017220104034495566,-0.06852043401366856,-0.011367975452829844,0.3673256258576948,0.2121052877829224,0.20345967120208944,-0.03399317472285063,0.14052019042803768,0.08496842315551004,-0.05073637721124716,-0.17770041843819034
78.97039794921875,1.5592041015625,-0.03737423080371291,-0.019842332560059933,-0.02991005602554006,0.01986870767293457,-0.049694952916189715,-0.04131314200844725,-0.03478253670770206,-0.011127518804060356,0.0036400829091192926,-0.05899324150330292,-0.04547606686164421,0.11979654675582688,-0.010384028634097174,-0.028007021950818427,-0.008513706122594882,0.013705912980247942,0.043607684041920475,-0.0006308374761788173,0.0060023799053844275,0.005174861791908584,0.010983749424336286,0.007986691358564293,-0.024645516668076014,-0.023835824943602424,0.06212351762801978,-0.04039255266643775,0.0024170438885172453,0.0022414460080924935,-0.02697593693119023,-0.07450332725906857,-0.025460819356267,0.032516699311276674,0.03037147664382924,-0.11525649777924507,0.00627233839436552,-0.0010533510950136585,9.74255873781535e-07,0.0007501043136919594,-0.0057742479408661946,0.0005039705296471209,-1.343376724725529e-07,-0.0027308721412324425,-0.004146389514586299,-0.0037144567956970817,-0.0027018367349499984,0.0005099944450422419,-0.004978306100924665,-0.0012102044001568442,-0.003956590161999188,-0.07749014622905469,0.026160130697778887,0.03441007317581561,0.05429352909493643,0.01456247065526009,0.046993069326245605,0.022505701962707295,0.10516195364756738,-0.011204886497592714,-0.022155852390062323,-0.12978708805939562,-0.002409036527354771,0.0035270437778476,-0.0413848754366959,-0.04102167237316088,0.012829195418808087,0.023378882391634215,-0.03493652836586904,-0.00452865980829644,-0.01861822042486294,-0.033263369308995774,0.008894775949830165,-0.05070221451642927,0.03925452841535842,-0.002382945166974249,-0.1069626884524392,-0.06480021309949109,0.05052412525613929,0.023392675860158196,-0.01261323794502281,0.009707630956487022,-0.055460654440682385,-0.02140372174668329,-0.002280591532056932,-0.014680404158843648,-0.11858259247194908,-0.11066825580723136,-0.02791409004126171,-0.09691935610370017,0.07919590453001937,-0.0513253866295233,0.10013592926032533,0.42781710420364877,-0.11261172229749587,-0.0416200834981617,0.01398257807584043,0.12417018520401733,0.051800525044522455,0.0694749743501148,-0.023225416189015795,0.06749440965414294
80.52960205078125,1.3889999389648438,-0.06550312364187054,0.012500827329217118,-0.03232889960521988,-0.012654630311986916,0.03454944147648527,-0.10200181762415081,0.045859778669473265,0.00852425237432608,0.0009253521159848886,-0.026016853829576726,0.07140693041858734,0.0543078323072127,0.030887466352639968,0.03725968394609247,0.015407794311839538,0.016722614393177192,0.02583338383777411,0.009294522653791193,-0.0015239567779780235,0.0011470081622716533,-0.029321468416269418,0.003662849342946103,0.007243923678040359,-0.0014412239457684383,0.00027760016849451226,0.01397078057791451,0.1072116448501727,-0.1832280325954655,-0.04598837942763594,-0.019852410309594525,0.12153403417972675,0.03900334705489099,-0.009752132319380137,0.007675004509123765,0.16752814195805538,0.12734862505793154,0.14094530923225151,0.201612511421307,-0.012638007419415478,-0.07877571559703658,0.015188336133764314,0.24318967695259622,-0.014375345281524123,-0.029667678360397482,-0.027934383803375734,0.02005238892052147,0.02671147635450755,-0.0054733515343155705,0.0015774390470423936,-0.007323805259945603,-0.008380426974079222,0.02091055020764883,-0.05278470415106094,0.09953071354891557,-0.021800898034458168,0.047720104229732205,0.012499135646281249,-0.0023083616742278815,0.011438286768684122,-0.08250738157131178,-0.013309580416553682,-0.026081803282434198,-0.10310218172039202,-0.10055892716887485,-0.11222792766129126,-0.036402851739270596,0.008295863766576346,-0.036352316888769776,0.10565390548125905,0.0942707156082582,0.0035926400786890746,0.01773072280503079,-0.02019865427216304,0.04303412536201606,0.11750259974511339,-0.03456974556903856,-0.025872971526688326,-0.05500610747587125,0.003636459104762957,-0.0037815884457949077,-0.0024559303504842612,0.04939856779213213,0.0235397979773033,-0.07488831129244027,-0.014517973684614756,-0.0036269529570932685,-0.0761860079122085,0.05224417744783491,-2.82895726246013e-05,0.0852567845051517,0.03987782489739051,-0.11927406625576681,-0.2856904011439496,-0.42671695935938575,-0.252990517813256,-0.15451820772598837,-0.014557074378870577,0.022477586806242875,0.06297630227137296,-0.3600817238397538
81.9186019897461,1.2991943359375,-0.37377343153260695,-0.09979883772825261,-0.07724490483174978,-0.07510028645620209,0.15309214873903354,-0.11471152218041547,0.2909410717083947,0.2704067113264347,-0.009835697174946947,0.23130349490351412,0.28079068061480494,-0.11165776293869975,-0.012952498955985756,-0.020159024468709763,-0.003927065719146127,0.05646287947986228,0.16679978179882327,-0.02481818437671624,-0.12352073931134919,-0.06229091473712776,-0.3045353321798368,-0.0016922108446012635,-0.07326190786605292,0.35259070127925163,0.051740765875784515,-0.02874109940738486,-0.0313865312701965,0.027074002504875405,0.12897028742284616,0.07075561591441995,0.004761109918115571,0.050525884825589944,0.03633398231886675,0.0242847417447659,-0.023413197088205166,-0.0024791693437490486,0.00036956258403998747,0.00017503579026169704,-0.005705069057857429,0.00022560554204058942,-0.004359548129798122,0.059746823852989336,0.0003958505610276209,0.06266581090247388,0.058921604046850984,-0.08807819789802815,-0.0771715198837706,0.03639039910769316,-0.11206669198655,0.010336926540905166,0.008443953702214006,0.019088447313635584,0.002289052435250048,0.0021493810369947464,0.0011623968607367484,-0.0011276065148475888,-0.09773377196217214,0.023644234063725875,0.017473499967315856,0.05216531290090873,-0.03033631690298652,0.06025731346474668,-0.003582989829863604,0.003589012506222963,0.10097333130575747,-0.056095373372696614,-0.0386368250890747,-0.0038096753842420984,-0.0003090588487505863,0.0878595872868204,0.006716346787013351,-0.002949893055507935,0.003084743491521741,-0.004888647616282814,0.05900482174308408,0.03593889107597114,-0.0037459404424581705,0.00621528052507887,-0.018025996594469924,-0.017824448052221206,-0.06775691110535505,0.02329877699354458,0.00228643287613434,0.04726504918831024,-0.020515208003386826,-0.0032055284458480564,-0.08119268972666538,-0.04245350832159917,-0.04725587949321347,-0.07061585035011034,-0.07686645807872501,-0.013532909550366623,0.11511915678260166,-0.06298960135142431,0.10731442943930304,0.028532039656925974,0.0874057147711705,0.12445230212631499,-0.007552530134271384,0.1577734304591838
83.2177963256836,1.3491058349609375,-0.0037881738074497517,-0.22220412419224012,-0.14154841588267883,-0.40742533258503977,-0.32433073026772247,-0.1564340337005601,-0.09695395503024466,-0.15844615746481702,0.2805278715048362,0.057444414935349145,-0.2692327107550157,0.1805615823976115,-0.19038592319154685,-0.2764949127002365,-0.13880842839416263,-0.08179597390980434,0.04700358418103946,0.05146764103564232,0.012812659286417609,0.027764499606644493,-0.09428360707668926,-0.03044777730543298,0.044609121447876085,-0.06337568290973576,-0.08490049090869609,0.1028581329267488,0.30579523181579443,0.037020974029811506,-0.025127917767674937,-0.024813036262052834,-0.1301882776758843,-0.025521109387322036,-0.006087585512438821,0.07553431019635316,0.06520687565711888,0.008598325737032349,-0.0012950533335723807,-0.003619101875539447,-0.0037005883735436577,-0.017306268067649025,-0.017412547388545446,-0.03430010390452173,0.0011359022800353665,-0.018786193503133285,-0.04042360875153273,-0.06064870430136067,0.030879843122346564,-0.06697768145904609,0.008948975437757925,0.007001919639963104,0.005698201857229342,-9.430813232538157e-05,0.0063926964521088675,-0.0010194583579102323,0.0001070591849235182,5.094967251852388e-05,-3.1399428267605416e-05,-0.00017834236956012126,0.0010318092281445044,-0.0021852324461238393,-0.060638387740005045,0.03753597363638165,0.10662160269619893,-0.05764904939311961,0.05006685097460129,-0.003419362451350804,0.014385171992385006,0.007617932592177468,-0.020532259742284564,0.015133863008007504,-0.031163151229334992,-0.0671094856587838,-0.03017871525708369,0.03438416753808246,0.056415363633536574,-0.08362841007428626,0.04206399364729488,0.032577918931707556,0.08832798479949597,-0.00449096678737614,0.0015613234203862537,-0.05675658710998986,-0.026652122076992878,0.016502243903478393,0.06358119127840221,-0.006534540912077661,-0.027284516379565124,0.02398972589336051,0.13140850428113815,0.15428880389422484,0.05829969297307275,0.14592157782028353,0.04149830440792345,0.1920190243658645,0.034465248415235,-0.3095161588320342,-0.017613584166322027,0.016204582902027743,0.08857788921863213,0.2194688225208203
84.56690216064453,1.3492965698242188,0.21961631939381385,-0.06842384944830769,-0.07202101360782559,-0.033503303596902206,0.09866073522309284,0.12532061380175027,0.2876066535845992,-0.222548804947698,-0.08273470985046211,-0.04836893432013693,0.04594238603497362,-0.3823766577090917,-0.01878568412540796,-0.2067928370051178,0.07988978356877607,0.2648425499994123,-0.3566752257933651,-0.3334773833001964,-0.04442478702521881,0.22095877230374367,0.04426477792253885,-0.2141194984666117,-0.10993023234235581,-0.010870538171591781,0.01196802736146808,0.04288864253145852,-0.1171737452778889,-0.13267661814052398,-0.2624251344669839,-0.031935931262123365,-0.040281204037897235,0.04805138363893246,0.026542972052296727,-0.05151299975439431,0.059734174856854824,-0.011851134956379883,-0.009052444440592576,-0.011561077864690072,0.0015923478905277566,0.04950125063220903,0.06790054767571592,0.0670401668520293,0.08483686789008553,0.01927896293380715,-0.050720341051906676,-0.0034625392565789926,0.0012572938556481832,-0.0007318806864732026,-0.0030801719114162893,0.045496746018459114,-0.07782358036455403,0.10727899957275018,0.06493129110277542,0.06674060879366894,0.08452233259701412,-0.001616788818136275,0.0063481953846906,-0.0008543691328328116,-0.0017006413911750877,0.0029637122915309746,-0.004235281106735774,0.0100819141084674,-0.02539538537922479,-0.002380756456250315,-0.003308317117676882,0.09472139598130233,0.005660086714688711,-0.051226432788828484,-0.006021924928043112,0.0034636356879037466,-0.0003352157438380914,-0.05220539288034935,-0.03955673959912785,-0.017780736644375548,-0.061960234532175154,-0.03966693103104495,0.0066191744409173055,0.06558268277923802,0.03162257161027655,-0.0669721649939327,-0.024517729659876634,-0.0358047141372214,0.04607822777123768,0.020003850333462896,0.005161035512397994,-0.01044554900737634,-0.003615969721493635,0.009318879489789737,0.013902546552277531,-0.02109985766876749,0.05046490035265701,0.2837923504695144,-0.012601724380503092,0.05400449709527822,-0.16449327221597082,0.2005913349605768,0.05894516511298585,-0.0012523058833660092,0.061801500025382074,0.11696356112754866
85.91619873046875,1.2989044189453125,0.13681519468816145,0.007265958520162326,-0.15109254461256627,-0.15905439989700132,0.3070158120572264,-0.2725573045795391,-0.17129117138203026,-0.14066988727525004,-0.07648562022585349,-0.17584464769002417,-0.2059424425231598,-0.3665761727170713,0.12074179315062483,0.07536541318740109,-0.24325789430997283,-0.018026262829869202,0.11565281529652827,0.20130077303991362,-0.008265058187561292,-0.25200602309299613,-0.14032718154939666,-0.035242855272364135,-0.08108066507070906,0.2163517092638199,0.1743604498920207,0.2889149227736049,0.4948284960812167,0.05125971263894368,0.0366663035722035,-0.09822764839563683,-0.09258795139378803,0.028993975112803605,-0.032250235767500024,-0.001509475464220349,0.024611130552701956,0.053283267443859625,-0.07334857330841485,-0.079878307314329,-0.09399932578664168,0.023039728989460023,0.04237063426837224,0.018545976868080044,-0.08249181563217722,0.01677241954473218,0.012281175478043655,0.005313539535738563,0.008427355903497273,0.009295570652181966,0.010946953026616751,0.003484304215866958,0.08092459523078005,-0.006902125465882293,-0.06665840341485918,0.032708445906921436,-0.03664176381808225,0.017539407509561063,0.05291038139914294,-0.012132781515873374,-0.030529174415273246,-0.017544293798645607,0.0002735044778501906,-0.01548828598363583,0.002284984283817521,-0.0068457708475773375,-0.005923318488853928,0.00966877154172593,-0.0559717104350099,-0.05541408237605267,-0.07145715654706047,-0.001021054370379255,-0.034197191195607386,0.007334052892105737,0.05467727374361772,-0.09076027740676931,-0.09830643956104988,-0.040883899908725194,-0.007989266848310157,-0.03146570793078814,0.011167243262141498,-0.017801443283931295,-0.024750312925125747,0.0016969320607334026,-0.07095697135935353,0.042593123647142586,-0.039407367855498115,-0.0023985665660815098,0.034490172230113796,0.04056118284073486,0.03948550063816884,0.015505256689044067,0.08696842264595314,0.21107650760121044,0.0635131475385039,0.1591270297891251,-0.10651560328166658,-0.09473328727018146,0.044662496351440636,0.06087418550276123,0.1127924203018293,0.20773056952977048
87.21510314941406,1.2588958740234375,0.20390128580328176,0.25935990249786456,0.08953886446871206,0.02710544394584488,-0.02533802107877027,0.3028532109160237,-0.08398627797530428,0.04760994292193301,0.14139692804440207,-0.22990638230744348,0.3316867720173292,0.10085335646647031,0.08522217410080686,0.13939237031017124,0.07701760748278987,-0.18237637071655372,-0.039793957392147236,0.023838594795024374,-0.1439817898777546,-0.007769957150705441,-0.07339902458328502,0.043868662970262894,-0.018049769629557205,-0.04677681876337353,-0.012848700745616733,-0.09194838686144788,0.048301904548100495,0.08114078867207476,-0.22119081749759895,-0.053534309123840995,0.04254398822587075,0.019280765328763307,0.03461321858026718,0.02415309013306466,0.06270129211520203,0.0034048299473429713,-0.0045445254395078336,0.0030538335357276924,-0.012799348865348087,-0.00916324481331594,-0.03770664059847476,-0.0611939420288573,-0.02494971195697948,-0.024022828615508862,-0.021395476454000344,0.0677418358993199,0.008269915305968122,0.02291312397680869,0.04219127006462046,0.008726146790057369,-0.0011719387331571123,0.007797918101069452,0.002519800290132019,0.0011160639878517206,-0.00070848715633041,0.011340619152229668,0.01169903450133577,0.019513632676567375,0.038312208796845375,0.05242226377498953,-0.0021707432956024246,0.026418187078372762,0.05109036266399635,0.05556473061131119,0.03573465557179636,-0.0020068969334672733,0.00017918928784474712,-0.007883897011640925,0.12151344944983923,-0.034179636367213516,-0.07406028242925758,0.07717820345151738,-0.011378347270223538,-0.0920108075056305,0.10244140921873995,-0.028123586454534253,0.07796670396179817,0.018519657888152657,-0.018389215712839718,-0.0729458643304484,0.04787157828351864,0.007214467583555466,0.006898937355072762,0.03390527427348139,-0.005569750410706405,-0.006059712081955074,-0.018604555832296237,0.01998240726364683,-0.0997594579865501,-0.33645036105818876,0.09362340433079244,-0.12728287357722057,0.15341871271280558,0.12832103036468276,0.225172484934074,-0.07174519901032642,0.005648086089735332,0.04078589033625976,0.20877824769725722,-0.37456315602668916
88.4739990234375,1.3097000122070312,-0.389954835294465,-0.0029909077072615975,0.0067568961592406745,0.17901729939862376,0.12489671103439652,0.414927750894548,0.24485763075289707,-0.5905782025394499,-0.31047063760367666,-0.08903795511943541,0.14317394022362412,-0.26555928593499495,0.0658354424471774,0.04981165187915105,-0.061278264699101664,0.05598418833999379,-0.09167640059604466,-0.16097574266238782,-0.1672603121612014,-0.027882200044229154,-0.1149976391155961,0.05878475235583304,0.10008944119878617,-0.14557634892856966,-0.005009925432536519,0.04974617208944351,0.1163945574701288,-0.13849941615449157,-0.09032111209036685,-0.04139439678237058,-0.05771422785626922,0.013968099541639821,0.059815760362911564,-0.12313595617010861,-0.04942332253978744,-0.1217276442991269,-0.0013317131853722267,0.0036210526127319776,-0.014469576410286351,-0.003654739511502046,0.01013589848185825,0.0783118698094052,0.026999469077450232,0.03141357682016638,0.05391588267892187,-0.022061620611256848,-0.008035692222553473,0.005814206004720566,-0.002893146850786787,-0.024138031890361126,-0.06933670084573064,0.05632276858953178,0.08997581498234401,-0.04575818796627656,0.013734370356051077,0.06393307955771385,0.017402148839134796,-0.11614260828580117,-0.03297167777176104,-0.014125846367974463,-0.034406097044456366,0.0022380247597136955,0.09359550615360886,-0.10427961323690849,-0.04932191162475495,0.01451124560352307,0.006586375265695553,-0.0037100898123225436,0.004500265559917759,-0.09500342438242292,0.013134464083499942,0.06823250496399931,-0.04261679859958112,0.008756016554019013,-0.03451343686696444,-0.0034249858448540025,0.024496022656260795,0.03705277568592025,-0.010152894521805761,-0.008054463637329335,0.004795630655899142,0.033994320943898836,0.03818513593178287,0.031984301310332176,0.004084914562598941,0.009586363206829566,0.050896158860362195,-0.11980383672906572,0.06378760264237668,0.2133980823087852,-0.03114135736110235,-0.32801399842567613,0.07359628269824187,0.05205042289830942,0.04794657640824196,-0.18819181454336756,0.12820628772979079,-0.017599330471475584,-0.22961841027376478,-0.08686735707608245
89.78369903564453,1.35870361328125,-0.21446796715869124,0.00653279139699061,0.04143177873268443,-0.16447760536400188,-0.32162252701991323,-0.08037335542916632,0.07635744385620104,0.36314753058652777,0.31072169390900306,-0.016799823349017307,-0.37880588680981486,0.05982255255315311,-0.2338415272660079,-0.17130381059793268,-0.2942914666416124,0.052325698746345344,0.011478539753759221,0.05173233827718616,0.04260627075150988,0.08841311523133569,0.022213622704566095,-0.05352449005532143,0.13748385031866714,-0.07621790228352499,0.05884435950748268,-0.0368166547496781,-0.025058155739624347,0.04645290181303466,0.057310526216508645,-0.03234101998951788,0.08396536329236544,0.0727412255330109,0.08279330637622362,0.0769293519630789,-0.0009719052836377399,0.08680623472567758,-0.02347972601499879,0.10531896300697925,0.03801597634759113,-0.09663464631999766,-0.10042062063548976,0.01624770950888888,0.011131217170801937,0.0015464027350460528,0.00492272459396125,-0.00722080057642756,-1.7865355097851035e-05,-0.01002570090982001,-0.04764958335333462,-0.028504274748172465,0.04597075118943627,0.058887505416926667,0.045265333879568354,-0.07815692317038338,-0.05483400854382097,-0.04397347291696618,0.0851530811560339,0.06532186763286865,-0.037521031296091946,-0.042779112357093245,-0.02872048590217882,0.01705420413865799,0.020401653322854218,-0.011269033975147974,-0.047869407351243315,-0.052524711756142296,-0.0017870863957240835,-0.00024165460016876652,0.03174538598034405,-0.01366792591259175,0.0511698743567567,0.015901490726258738,0.003889547433295332,0.013692652692968734,-0.02827532674975717,-0.045096972545984555,0.017788160333958046,0.006707358069462752,-0.004124575779021173,-0.03718454088559711,-0.025085204165115203,0.03433780757987423,0.012793845853923097,-0.05963449336012255,-0.012248294518218034,0.020024748088867183,-0.01024475706576342,0.0043124500989217135,-0.03310991988623254,0.21682259932451903,0.09389629511208586,-0.12711012167170033,0.034423948740149334,0.024865697264802852,0.002781155024010418,0.040212419484073246,0.06820240343139466,-0.035573971638233955,0.13643511666856017,-0.181012155954202
91.14240264892578,1.3694992065429688,-0.06155762906111574,-0.1465804406735408,-0.1437195378382859,0.012704739318413562,0.0072083441287666625,-0.17858130865851848,-0.13142790621514144,-0.19861392055655336,0.13806076087889801,-0.18560290244600583,-0.017337443661544508,0.024232225960697577,0.17125007272975135,0.20316154322543126,-0.09735209922885017,-0.07019735457359187,-0.1063548051200343,-0.006072998821177725,0.008518383845471794,-0.001413780856587919,0.0040029404876569,0.0028112222528850544,-0.013200396768455885,-0.015331303979538916,0.08250670286977935,-0.0004015047379575921,0.038185590614216475,-0.029572703212799523,-0.009439606299062734,-0.06856266789444351,0.0033247105170120597,-0.000287276729114332,-0.0029893487931122093,-0.011567754908618232,-0.03836324582003551,-0.01686355639626262,-0.056503688125123526,0.04642037623681228,0.007919006972611942,-0.06399482981740415,0.027433458933479794,0.008571772810694708,0.0031471652345142443,0.0003251635950847818,-0.0002514290350492324,9.732584032026652e-05,-0.000382913550616117,0.0010720245988098396,-0.007388051350042701,0.0005058798464807223,-0.010056809718306426,0.053129754916443596,0.07966145986054277,0.023224718413572064,-0.06064048839935679,-0.019889465513819305,-0.02366208610550287,-0.012084386883634016,0.08248692606930308,-0.06466077033085461,-0.026739066426635774,-0.008415967014850579,6.588208801138619e-05,0.0003077221622776254,0.005261912106720927,-0.04947323155962827,-0.06889972063089468,-0.05799203605488294,-0.0059734447528470794,0.06350611132523265,-0.021609601654440803,-0.0029322200258842523,0.023477107649880462,0.07144756637619948,0.025090882908301824,-0.164689788634241,0.010377721188624872,0.09662094338580188,-0.14086079960556325,0.07143126532865045,0.04437941345968531,-0.020101455915143063,-0.042039555613665715,0.004965276380332158,-0.025460202965100796,0.012908229783835178,0.09482924938003612,0.06640762967512151,0.08061081316159635,-0.23792691483658576,0.0020813809140223516,0.060145168775269764,-0.04646793105262079,-0.1548983207909188,0.08117912861666646,0.06652103036809916,-0.1458131804911175,0.05753704593476068,0.03035901427297054,0.11634026321114516
92.51190185546875,1.28900146484375,0.14403794881355106,-0.012230774747190545,-0.15370125186918557,0.03940085057500848,0.058076488533865704,0.09167661119256257,0.03265534983513997,-0.03297721757261594,0.06699773514651074,-0.014488391478537,-0.01603409896937952,-0.00679162410375711,0.001436170377340431,-0.0004253535177574703,-0.01546683629676276,-0.017309336758445024,-0.008734271710248967,-0.017046395366343142,-0.026702721876704694,-0.0006365040958789675,0.012558374340098568,0.010985380718356145,0.005830491644601095,-0.0010819349303057184,0.00846992359884291,0.025464157447825566,0.08615039392649984,0.06741587537912123,0.0056096059010413285,-0.006944315028439847,-0.02220755971927677,-0.008620924783925179,-0.00022975508920282226,-0.004638183860860167,0.0003626041822285271,6.453192606190362e-05,-0.00038650656430979356,0.0020568738343563447,-0.025461112083389022,0.07562805014855932,0.006923802676946679,0.00015022751983015558,-1.4995480809683816e-05,-0.007506943125267354,-0.00943179769531149,-0.0441681204647613,-0.04040973432358916,-0.05669975692556642,0.059778831625957554,0.0277797491322933,0.006265928575587512,-0.005715350984552541,-0.016662721060325326,0.0016947500531870304,0.005275911116469228,0.008142916528789625,0.012047575577837208,-0.0686120139315955,0.07137015148044014,0.05197923540905239,0.010624536779276194,-0.05936232782345791,0.06130523998483344,0.08708777594982073,-0.035060538378047255,0.0883164707033341,0.0030729658593602964,0.0004078391725088423,-0.00544374762666013,0.015649997855022486,0.12109042349467034,0.01892721815526957,-0.022715889447867788,0.013613114933857869,0.0017584209733620348,0.01951434946714834,0.011488191169868097,0.024745699082158415,-0.0081003934097968,0.0061118408815691895,0.03071728125294575,0.1509939348748751,0.08464413146954641,-0.03413204386452319,-0.06608558467340592,0.02943842526717816,0.02326416541194564,-0.09676230892055114,0.053029516741472826,0.12400542229532356,-0.31650958931211404,-0.12516486513831027,-0.229056654783597,-0.46355777703054635,-0.9559590780174859,-0.12835350209148122,-0.058013179188848615,-0.11140956669644075,0.11005910061397055,-0.040004054411718476
93.8009033203125,1.2791976928710938,-0.03096208374382081,-0.07160958074199208,0.05451656561106166,0.05740549874732892,0.012979985975301886,-0.05363893842727597,0.02480835153626762,0.06940713472370198,0.15126442882286872,-0.21178888957381492,0.10134192106148905,0.1316357630468454,0.1026566723791311,-0.275122365454139,0.31892263937159,-0.14075475515303715,0.07705277000842008,-0.10760386242995282,0.3435557023123286,0.048983248995108315,0.4115325343687953,0.5211426887423103,0.09330236215964129,-0.2222564903703801,0.35412963357594746,0.24461379004584155,0.08439191052784593,-0.047409118867551725,-0.29325413526000493,0.11947772892314035,0.007719154150504837,0.08065690381741031,0.214297184183476,-0.048665097855170286,0.030857099800485465,0.06762182225197573,0.12305892843909036,-0.10618162410422796,0.013716252240991211,0.04524337484277652,0.03996672244839789,0.00037185041810549463,0.04888065108461585,-0.01758097703104293,0.07039614694020631,0.008062061774914375,0.005952662748951953,0.002485056299988611,-0.012443477612348543,-0.004284325712848063,-0.038745497122639666,-0.007475228471083209,-0.031437300638492136,0.0406342507497775,0.07978638884901487,0.039618018374209085,0.01474812989878264,-0.01842124066628766,0.08660942396482148,0.04619687906816462,0.007195263367894834,-0.004737495214180012,-0.012620534377466776,0.006996306535100978,-0.0065045463351551935,-0.0003828069000785614,0.06117957341821871,-0.04317552938947159,0.012460828374334496,-0.017632487011991365,0.00840861884607062,0.01105521314890724,7.073493458570351e-05,-0.03162785926131577,-0.002410937900930618,0.06965031626631858,-0.02376930410078494,-0.07681854876336688,0.025491833496234167,-0.014837016024491632,0.03185373799918038,-0.026708382902315912,0.0031866376886387675,-0.027794407925961898,-0.005609787528768506,-0.020642635102504164,-0.012165083435083542,0.021596801622067882,0.004166360683936231,-0.00017003175222120043,0.03388343218733489,-0.1789627842945207,0.27589636057827055,-0.17541726214714026,-0.13964946111972582,0.1346455637656335,0.037794658414450885,-0.19005871923368142,-0.19636530123887563,0.06164052611227566
95.0801010131836,1.2592010498046875,0.06321698141690124,-0.14853939503866734,-0.07553854983203065,-0.3445858321521579,0.33343240964409787,0.237896280329549,-0.1274522210095622,-0.39103185150006703,-0.15081519747601574,-0.05435396664557446,0.16825946528360244,0.1526716405836454,0.01630122667742156,-0.03615792455567787,-0.30486491556553574,0.02122694851946058,-0.19454441913579376,-0.01799293365859184,0.08298969628615518,-0.007677216794852124,0.01776351215949263,-0.12794678248009878,0.20271344922461493,-0.21077998283305843,-0.11990127687909122,-0.198975433414116,-0.010345915862286836,-0.005725923613223749,0.16608430045014966,-0.23182568794284691,0.0037424853429518117,-0.023642183255405586,0.0990980196967061,-0.1087227955356324,0.10174846977309797,-0.11380964860340086,-0.061834339246516455,-0.08740101620466467,-0.0038640930741090096,0.0024896147373383052,-0.0012167457516295875,0.002766485628521543,-0.022500820542193253,-0.007537352147211247,-0.005109404114491518,0.05257184034222999,-0.049121541840639944,-0.0689546617922629,-0.07626727698504857,0.013204699337417134,-0.003335806972807017,-0.009190387984319705,-0.02391822223699041,0.003371395235107596,-0.013527274924837516,0.000613304997903235,0.130476220021572,0.001962619638683179,-0.002535476623102037,0.0048360501217727695,0.0027944969503047846,0.0031825326003032455,0.027440386992009614,0.02210366241444736,-0.00742509176889799,0.033684712645582725,0.09688669426745491,0.005443442872552402,-0.0036584365278681114,0.0023298126737720058,0.00022146593067981502,-0.06089139497888927,-0.02533442015897189,0.005313553189230865,-0.001062462262025167,-0.025082760682754696,-0.03569858696472969,0.028822644743231995,0.010464125760211229,0.005310954949559684,-0.006415915723078536,-0.004473579299650039,0.002085185994733762,0.010697774896641173,-0.00656462255882836,-0.005501824382930102,-0.004831816513219368,0.001961216343626759,-0.06178293019387658,0.006499338570316308,-0.011309389406254816,0.22608051654064187,-0.02966089980337104,-0.38723132533965365,0.11347433610636395,0.04746616795287134,-0.026052988286888998,0.05089089438009487,0.05056866783329154,-0.3062311364655427
