start,duration,0,1,2,3,4,5,6,7,8,9,10,11,12,13,14,15,16,17,18,19,20,21,22,23,24,25,26,27,28,29,30,31,32,33,34,35,36,37,38,39,40,41,42,43,44,45,46,47,48,49,50,51,52,53,54,55,56,57,58,59,60,61,62,63,64,65,66,67,68,69,70,71,72,73,74,75,76,77,78,79,80,81,82,83,84,85,86,87,88,89,90,91,92,93,94,95,96,97,98,99
157.82249450683594,1.2902984619140625,-0.01210410293678938,0.013342605794080788,0.22507832317938659,-0.1029199545670057,0.024199138447012835,0.2946620759930538,0.23449417717252774,-0.1485317764502731,0.10426517244341008,0.06681411566201792,-0.3225109303317136,-0.3834176269760339,0.0764741790091673,0.02712160868359205,-0.1253823205704401,-0.16482901274391654,0.08418120877404726,0.19634155501411787,-0.15565173089637313,-0.04005819335443603,-0.0744174892847515,-0.06929171364413725,0.05897245878119044,0.04145705661920124,-0.008168154511808058,-0.14539525635128434,-0.03702291531397397,0.1306831516928518,-0.02644105786176188,0.0006227674204708133,-0.04219858832737462,-0.07047209617384952,-0.031423758518945896,-0.06318171373187323,-0.033899209632484384,-0.07184989364211923,-0.003232263799340383,0.06691946451637432,0.20541475252809244,0.18120352485855803,-0.12026229616774828,0.0332183117162906,0.034381379586228014,0.21202483987897155,0.17121847463945136,-0.1836355912619341,0.052287399277901714,0.3517171385574811,0.23495187489942038,-0.4244881869031944,0.019785426991667,0.28329412838462675,0.05220188579591744,1.007150372678408,0.09790262196342828,0.2740383546525482,-0.2208837389484624,0.0026793156545268687,0.035569651843357586,-0.034927197548761287,-0.053410182951529064,0.05970423913932661,-0.02462064060295613,-0.003049652906074763,0.18066160589717745,-0.09241474958190404,-0.2918924387434927,-0.10839252941623141,-0.20035053363267114,-0.08950365638967847,-0.16506448522672518,-0.11106717767106217,-0.03165030289146096,0.16833981846468926,0.11215359867137789,-0.09750514073975493,-0.0430637512518888,-0.06915801461309823,-0.04365125418842056,0.10521119005597915,-0.12071424527153846,-0.01496826397441401,0.12883461502717058,0.013540091929374734,0.016983431714302367,0.19257684071037307,0.01337245839141364,-0.07839378319860696,-0.00476941749560459,0.046529703834532796,-0.07862393696264641,0.006775759404649528,0.06801246515575902,-0.015877112227581695,0.004564784213438122,-0.008527549886058666,0.04066828014426596,0.10637539352713071,-0.07702818756523427,0.03533661393229677
159.11279296875,2.0911102294921875,0.0384881738653776,0.06876919613401539,0.07075705442394029,-0.04053145732086455,-0.15385436641925,-0.013470694543040247,0.3526453739592638,-0.09804210605302789,0.0844527644766171,-0.18420845588946244,-0.003510760700328242,0.14213158097533926,-0.1253209467377682,0.05238222008283002,0.051787881064578274,0.07669525767093481,0.11946320659388954,0.019314277482570315,-0.1547409784260245,0.012226853802055833,-0.029897455261033934,-0.018271824480506908,-0.04268641224053374,-0.04942720591999836,-0.00800498339842641,0.10901517336447593,0.2771840326256606,-0.007446399900948503,-0.005710032698477643,0.05321831155649316,-0.08467281995263645,0.08365372976372562,0.03816323970962047,-0.11078645996760017,-0.1322282902882089,-0.015468884543961876,0.042672757080647356,0.09371406686464759,-0.10697609941178439,0.23899424247639833,0.29769454175113597,0.22455345669851548,0.3011158075177806,-0.14094791971816922,-0.1270156379416054,0.12578301357358612,-0.340233970100035,0.12076937386295206,0.26849975931700704,-0.3304599449636222,0.08099043232152539,0.32708457661895,0.11407486205251878,-0.02011834388742577,0.04784144253127461,-0.3131940282158538,-0.08648487384992344,0.009668469126853995,0.048814689284321,0.033762862943776534,-0.155925866824111,-0.029145712412833966,0.08473956181506272,0.037886671831142554,-0.0011636040137269453,0.12367841512331673,0.23939626551077117,0.037810885055642875,0.07694177224375928,-0.0032412437687726284,0.29136706678700935,0.11125678404782983,0.10358445520155722,-0.03018769379013203,0.42280856573027925,0.4036395366313209,-0.019583174524592406,0.04050505623723469,0.270737476489512,-0.015263519281594036,-0.026557271900155333,-0.04600124449877958,0.0156326196189945,-0.09224346671460483,0.011303277591100155,0.1247032540251535,0.10632858406067097,0.03128256698366559,0.021144771718614706,-0.12000573647668158,-0.10634000382469741,-0.08078928071057358,-0.14298667010541355,-0.08464733563358974,0.0673617018976681,0.05112564307231491,0.1055765993722312,0.042577456661406644,-0.09862580010563034,-0.13008598996875234
248.50320434570312,2.0612945556640625,0.03834305315942732,-0.01903606503651776,0.27232616231851225,0.0894045278936967,-0.07067537206697082,0.02224571938786519,-0.046378498987580265,0.049235041236255425,-0.08404008833317331,0.02107467773842825,0.05397027353302522,-0.03209298185750363,0.07799940590147789,-0.008449080175047382,0.046369320624031894,-0.004136753182914427,-0.12328147013989994,0.020944020517880517,-0.0350057005127437,-0.055826077734188705,-0.007996426205666438,-0.09421882801786342,0.030792092070080473,-0.08125539023485046,0.033058967947511064,-0.051876660289485045,-0.25864969520162273,0.1359987574252258,-0.07812277241394569,-0.3141580059721233,0.26956499710251447,0.05319311107392822,-0.4472585736728097,-0.7638163178742209,-0.22669297972446295,-0.22617912584741884,-0.26527310877669563,0.023508352829875553,-0.3577758089692366,0.11432160963612495,-0.23431271980547164,0.07056759724741996,-0.07401488567433145,-0.010961253126412135,-0.184995752920934,-0.14438128069330758,-0.03601541242102309,-0.18315612403115783,-0.0022608334939515553,-0.2610081966559823,-0.11585590897892294,-0.2515826595499474,-0.19819353097251502,0.13328313286236518,-0.0610492567576558,0.08962844872606043,-0.015533897016295786,0.27405013955265745,-0.25087422665190495,0.09470899802787723,-0.19336567299534835,0.4044196148426813,0.1505386019050241,-0.07293965820920265,-0.24798658710806734,-0.15178764528994942,0.07101968795065167,-0.014176440562385588,-0.08840177436698424,0.16088418205188507,-0.0022993681389003122,-0.03240747431851163,-0.004582594003027485,0.03613612430719965,0.1672918880456259,0.043233510242117745,0.010055748552639555,0.0008383984357514529,-0.30978708627506957,0.14498791101644318,-0.028747814312709157,-0.21549492091637817,0.07339294490085937,-0.06494099595625964,-0.08838746041570246,-0.06840114235005362,0.010371310317259512,-0.020663732326177922,-0.01896163430339202,-0.00029194399893506316,0.03706584978915767,0.011494744607047122,-0.053769503994193786,0.02797855937525329,0.05993474776212443,0.03407192552082868,0.17067051209201883,0.0060349312356613935,-0.0029096338718863956,0.005590391301980857
250.5644989013672,1.9810943603515625,0.0030807394178619524,-0.0667995919476482,-0.07629189263866472,0.023709047297957413,-0.0018682150652202106,-0.0712068016363084,0.043397156750981866,-0.034061213762834476,-0.4387537076431972,0.2891828686727162,0.13480038628592902,-0.045519428033973935,0.11139349369207778,-0.09448883037662001,0.10125903670218976,-0.0043715648227423826,0.11304912757849991,-0.15395728609898363,0.044531273112973196,0.035271127569758545,-0.06873498114624423,-0.07290162066416442,-0.10077838570238366,0.060157863940139986,0.02610367089017818,0.0592864486719781,-0.10079512267176315,0.039584453273923736,-0.1058571655436662,-0.17796381049231863,-0.007777490868049356,-0.01523210509928938,-0.030190745921042192,-0.7666412473909019,-0.046815416970531425,-0.2209484349005417,-0.06033261334132614,-0.12210134462657879,0.18594816166696082,0.013448738220154325,-0.16099362880866608,-0.0025146259619247763,0.06269196054066833,0.02041558664737711,-0.07919004999607955,-0.6327249619752494,0.05992389251787935,0.014805620758856101,-0.28038929013371733,-0.19797181308154702,0.2408312636947409,-0.41851771096303947,-0.127586920081282,0.2772144998855452,0.27302501085058123,-0.012045765395985508,0.03695419107732993,0.1836124997519665,-0.27721074989764494,0.37786017076084893,0.6277237329117348,-0.12046041705816343,0.10706355158113472,-0.22014802186187774,0.0052075497988964695,-0.015698260590336285,0.015248581177370666,-0.06755771999381194,0.015068729816598316,0.05906493090475075,-0.007501489724608499,-0.2699593873338129,0.05832633030836666,0.26646375700491004,-0.25711228488051596,-0.4193584311008103,0.39378179209667075,-0.09675598160435708,0.04516544802666413,0.008465709914079321,-0.10790912873803707,0.1904397727742115,0.01632642309717134,-0.10329974761439699,0.06591179147645046,0.0743872173567968,0.13021780954356385,-0.04747778484533053,0.0012806939793101714,0.00795615399287369,-0.014015152372698542,0.023460025360999587,-0.1874332227685183,0.057084796548779834,0.0014624316544204034,0.019873472960328046,-0.1725331700676052,0.03519906616686529,0.03963232694091738,0.006824178891268476
252.54559326171875,1.9209136962890625,-0.0016006602409299464,-0.06000400018407444,-0.1299431321701458,-0.0028390146285348417,-0.009089063175063696,0.04051823697099918,-0.020270446873093734,-0.20015693443808621,0.04701785450300627,-0.039465138487960835,-0.14552986234291843,-0.19693182171165527,-0.05663734939983744,-0.005909154110658505,-0.022964251518571704,-0.08748031661759761,-0.07106380573986512,-0.25544259160965227,-0.025666818072412338,-0.15289747219780428,-0.10285726227747241,0.05900783233255502,-0.03468415489078049,0.06771801877908894,0.000773450826062706,-0.0212568629399045,-0.03865076803385867,0.0630006494408703,-0.05037995159807185,-0.04315491169432262,0.042133461479787596,0.006109797356757542,-0.10913797935230737,0.08901736717042649,-0.04401962118286626,-0.0013483714776088853,-0.0657474932785445,0.02900982485821763,0.0014318437145211722,0.10566823371786481,0.15467566321079304,0.09525147289061216,-0.016196720612314072,0.022945099073431386,-0.06175254507024358,-0.031540893227214685,0.048084327465255414,-0.11953797250779011,0.07138945349763005,-0.07928809255982133,-0.12560920250553037,0.13485225468609227,0.28382834323889733,-0.15922002255794782,-0.7737638971257358,0.150964664758976,0.9144670944835818,0.4645118464474118,-0.6889368422663136,-0.7946324518371148,-1.4402413684832456,0.048107601656975515,0.4689100003224824,0.26250098058925425,0.00042016676220936466,-0.11178144849321714,0.0744365013294923,0.035335288637186754,0.0010112294840173156,0.03188496132027142,0.06257432177260225,0.31209741712200295,0.11085057332843336,0.1573279589395321,0.024934490690192157,0.06548294246132964,0.15793216820561423,-0.13860604014194633,0.13294499349106603,-0.0813210938373153,0.23141259481096504,-0.21628669526431343,0.010559099825096351,-0.1681314228568372,0.005894462151526322,-0.007204067890137321,-0.024925254779887447,-0.0123026419107133,0.09053899420376733,-0.008930677441222643,-0.07907709851952315,0.0018398076356828524,0.04761548542825285,0.10337289727992995,0.09732989771554058,-0.004854512793849471,-0.4556273736212106,0.03829708358638141,0.20437632799193411,0.0722634703991225
254.4665069580078,1.8614959716796875,-0.07600705880471528,-0.007163654955239157,-0.02091414618013022,0.004203794755015802,-0.08903409387449249,-0.20817175106879304,0.05752172996096346,0.0843891004277781,-0.06101829819516944,0.5095810146156889,-0.2561153408422691,0.2934070735387431,0.2490724270540562,0.20179858594436795,-0.3250639084640143,-0.4648554297654777,0.04341501633354353,0.014805344811342297,-0.1105838386946721,-0.018777057830822924,-0.06555699472233059,0.13928991452729986,-0.11377821967712402,0.247293551321632,-0.5261802044600894,-0.5371679290748872,0.026996264891333978,-0.05141386841098564,0.0005526914416878947,-0.2988001195365956,0.04144129640687727,-0.2506735971243532,0.25114692183117965,0.3451570386775236,0.09115624250810987,-0.19411693360249424,0.05865378827262088,-0.14042694156606877,0.10665211626415756,-0.1052267402254071,0.02856515197011575,0.10668860543254376,-0.004987194922446196,0.3215137142027819,0.15909540058495772,-0.2056995538745181,0.010936599459065215,0.40562360782452006,0.37442783214699216,-0.01884814700945826,-0.5191951993950401,-0.5225318761747568,0.4732880145071027,0.19113708360011614,0.8892665081997092,-0.3253259069729348,0.07315578223338257,0.24872244838047944,0.22256601784676516,0.04807711600287145,-0.20989020170740214,-0.18104794495519116,-0.5434944581912452,-0.005207942460698505,-0.05504242036951572,-0.040379945611181266,-0.29411979538291433,-0.006783223606324889,0.13027681394659626,-0.03695034874034561,-0.11812879221218844,0.024518097938038618,0.039628117237592825,-0.02294923854369657,-0.027211787733833908,0.04192312429433023,0.21238934044327584,-0.2094555098701713,0.09907262276395412,-0.19661794747574607,-0.0021120920670212127,-0.036274410236736755,0.09723597793895394,0.011710848896168352,0.05818053761516108,-0.11044938280778104,0.11664054780031238,-0.07693784244414864,-0.1098953361948603,0.22229315782771644,-0.12504396462156808,0.1300806594870954,0.012296141044460357,-0.08134963792287915,0.03393671981181469,-0.015368734945990989,0.02799112043765944,-0.008968412965612967,0.06571455484046451,0.011287638701348635
256.3280029296875,1.881011962890625,0.01421385722486243,-0.039630440601853036,0.013692887269581693,-0.03341064640578727,-0.025241011554314765,0.013539305350983457,-0.07871436448518679,-0.18855832806945216,-0.17855429934351516,-0.15200261647228605,-0.1485749134094192,-0.2962807212244001,-0.49856960291615526,0.18920428684580642,-0.289231558850157,0.04018487327134562,0.16617775707231583,0.03240571104316028,-0.031704987576631566,-0.009800148782401069,0.016660500539614834,-0.1033235298822848,0.08207877368734486,-0.0807193609334532,0.14894073563619922,-0.14739227340039154,-0.06717431305806444,0.0726623065354566,0.04728179436467384,0.08008225837718579,-0.0239781250677125,-0.02773689503129617,0.028858869300292838,0.020416032078617988,-0.01601001625482469,0.055669757614491285,0.013761416044478308,-0.03532936635217151,0.04084329494618191,0.08670921324503977,0.31691395023916114,-0.1840950678052066,-0.0987290890660626,-0.04254175558912808,0.00991551419878186,-0.1356214861165037,-0.13633999661095925,-0.278959886196335,0.5731791569697688,0.03094823397192939,-0.022296707317151332,-0.11201636220695937,0.21208306663502674,-0.42843162793615003,0.13853965961251916,-0.004068371343126043,-0.03179313361892105,0.014604772000494141,0.18288147083755965,0.2185810518748058,0.10204352167979651,0.1270159582587885,0.04901360545785302,-0.2435626029208011,0.16664818318494895,-0.048343476200157914,0.15740907307155985,-0.059785506689522344,-0.004668434270637508,-0.02104133589266568,-0.07785746540070794,0.01694743432219311,0.17082686424522817,0.3277252175758812,0.04373527488904741,-0.03237619201347172,-0.1435665895137976,0.11698059630594967,0.034287368768676926,0.17223430642005932,-0.11780364698729616,0.16858317440572637,-0.3936476793637276,0.05217303660039762,-0.2077363323119303,-0.07113609334699433,0.008058461964706906,0.08226816400570348,0.031633308121179815,-0.17166486651457102,-0.06642894501554693,0.04063563407381916,0.015133194731991411,-0.017978788899289624,-0.058687922046123026,0.02312347468535051,-0.0602149582694098,-0.18548267740704963,0.10831754848746436,-0.1548647724699134
258.2090148925781,1.8212890625,-0.010108213972638155,-0.1734341508482623,-0.16158147945104603,-0.014951680009264796,-0.022322725042712963,-0.0019873387938914716,-0.10802271366520508,0.07298058533394428,0.20979798071421668,0.050834560828857706,-0.3749010494730629,0.023098101308566113,0.09425674945844154,-0.10085053227752495,0.05655679335681884,0.1081654013174444,-0.15778107947102632,-0.12385201001884669,-0.1281639510382105,0.26823858795509475,-0.18863094926449178,-0.02466358411862754,0.010714576090973343,-0.08495477953180552,-0.02214547678531775,-0.0042002091438712716,-0.1299978805305178,-0.09374622863054687,0.07934033604060903,1.5983953131903927e-05,-0.06268501199034583,0.13460151149772698,-0.04937712633916238,-0.04660601981184334,-0.09664964790162145,0.06075464895557533,-0.09572857623767032,-0.019439796446917488,0.0528333676205522,0.04752757133474368,-0.12257553607183616,-0.05283064403452668,-0.052796488722262405,-0.04037891603637171,0.21223452395670114,-0.0013426247815425552,0.18976715035364972,-0.0037080951146998883,0.18497062559224975,0.006036084110646453,0.05933570968196733,0.04741128312220397,0.023715256874234557,-0.0749883898253488,0.41382365927521725,0.1923446316907426,-0.14360639847151602,0.8291401645915843,0.21212485392897357,0.2997156024843646,-0.0448189504680654,0.037089348644573195,-0.05619787147540053,-0.024630600250133375,0.07795045104728367,0.05226508541787036,0.0570866739099699,0.04723160647350162,0.02790152950572448,0.020827683512295497,0.047558011647640466,-0.14469966828592276,-0.3100548303652188,-0.011819085967412272,0.20263877359392218,0.002498246015420577,0.12630736517766555,-0.021287760564828416,-0.2649853601579016,-0.032626755582620556,-0.12833429546003,0.2691512327978611,-0.05072467435440596,-0.1242352134018652,-0.18511019260732497,0.0680873999211915,0.07798501032861813,0.0031856782294145533,0.04478466029234531,0.01183271577895446,0.13941005828879474,-0.08191927538314367,0.1524130850276014,0.0822410489417931,0.09124404929316145,0.13549405154522504,0.007812952078682586,-0.06780131347885038,0.19855465270446024,0.011232034019997703
260.0303039550781,1.950897216796875,0.010526719078158542,0.02912525745043421,0.00137179704732672,-0.006336430029169064,0.056786828278950416,-0.029273320919101505,-0.08237196857810189,-0.13862456344650728,-0.13478878400417776,-0.01896540951353716,-0.28629570647649305,-0.12153113906750117,0.0745662081763128,0.09637471808442517,0.07608863965652263,-0.08079472635894897,-0.03647297380126051,0.10225166811116754,0.05303504758719862,-0.05948665249237142,0.061953055557755196,-0.07472234314837461,0.019204987474735754,0.031007347918168844,-0.09203150248157511,-0.0034049445136176805,-0.20214035977961903,0.10322043790452859,0.12396922517039552,0.0011574408479396775,0.057089515848732425,0.11144626963892149,0.07155389663234131,0.04303422682223701,-0.23939478323438151,-0.15445150097313903,0.1281334037989255,-0.17023884047577317,-0.13142641965945606,0.24479416584890581,0.2889984204080613,-0.04116891362114015,-0.02567754635998116,-0.1987060663645775,-0.04564177367097615,0.032166009113384374,0.6428765532215385,0.058504554209603696,0.04653714512274393,-0.28398063589765027,-0.2263533140069178,-0.049792011677918066,-0.12090602895217335,-0.29767155373447407,-0.2668772028858094,-0.31715883661882766,-0.24098259576679354,0.148905945303083,-0.1288267637613202,-0.14993393572578723,0.2090842881721748,-1.1255279900973234,0.0021849361197745372,-0.09723198589950001,0.04476502770299379,0.003570317482265654,-0.027936832290230588,0.05991705383744293,0.06266425622141694,-0.055582720683991386,0.010629035640664947,0.16377301595747815,-0.010571585273139263,-0.1367564030125143,0.10783538074341209,-0.13746396848910128,0.07311067361928145,-0.2515224515391937,0.0036519048786401997,0.219089884986767,0.1035562184746911,0.17259187188698352,0.004216671058952741,0.03588350747220968,0.1457048110702117,0.15892408435486083,0.05902015610360652,0.046967104329507285,0.07863795645887366,-0.03684609903594187,-0.013230624508666057,-0.07738944876297084,-0.17797821221055615,0.2106668966448843,0.16529830901938913,-0.027454018071471804,0.05768407559517912,0.11118510910549687,-0.1723022513299048,-0.015592303232785616
261.981201171875,1.860992431640625,-0.01876527238189547,0.02050851532807246,-0.0250082464899524,0.05846630585733581,-0.01998810429799977,-0.2541013335763807,0.15186316829310345,-0.08043738981145279,-0.053272065371057345,-0.05018295033546622,-0.013342596894856356,0.06167657084421728,-0.025852430598006328,0.48002208450442396,0.7899668614317821,0.052077661197771095,0.12916822751607798,0.21232104815966527,0.1519025434567966,-0.019640847244347982,-0.10847950718053313,-0.12505308166399987,-0.03192339684719134,-0.08768781665273502,0.2118106844498544,-0.0775348861505067,-0.009953833604662232,-0.03559633638095216,-0.1672537203167498,0.04395111297155911,-0.05782674219396416,0.038931857042510266,-0.14245460244142355,-0.0770206060923977,-0.32005248044257867,0.3413756223478356,0.00805344437931102,-0.10672979131891967,-0.03943740460130372,-0.05619577763087693,0.3063025337662667,-0.12317883849560908,0.011749322933609687,0.38769020706956664,0.11768072368923853,-0.019818949106335172,0.1645974170220794,-0.07483862956020863,-0.09271451062249801,-0.1898935075518127,0.22415436709985154,0.032639713070988056,-0.3102389614927483,-0.4368712331889416,0.2143163020763013,-0.07133835822298273,0.007851105588658324,-0.009697388015427608,-0.007008842026686464,0.09976577439069896,-0.06304703083982055,-0.001980048895109554,0.11434594740652704,-0.010302519108976529,-0.03830759631951787,0.09436471789448402,-0.09844922003555864,-0.05995055878707095,0.0069129978206612305,-0.11320776555215176,0.07411172963494621,0.15127900181484447,-0.004560249563935366,0.0055694471366046295,-0.14217655345502386,0.03210603654898489,-0.050995511733398224,-0.2067811935718843,-0.165993800154558,0.04391665435409461,0.0595954259890555,0.05033580999313904,-0.003409360783998283,0.02188429192085141,0.028598666033700027,0.06959441834356946,0.021171162847858412,0.014362811542905769,0.030450960625689267,-0.05519128546779161,-0.006842747120870948,-0.05513186601817287,-0.19189750796161412,-0.03512584969918042,0.00879278997701171,0.10132157019758432,0.03810590602357108,-0.1105490859840006,-0.11297632645490953,-0.0052519108413871946
263.8421936035156,1.831298828125,0.0017660201413967382,-0.060082101141794304,0.013223936813695372,-0.18725274885627213,-0.08261824248702619,0.023993657569879978,0.0267219180308991,-0.06820459197062555,-0.0761472712611587,0.08828314485394946,-0.051424234257628855,0.04120240469091124,-0.04248560168146806,0.08926299187126896,-0.04512178511772638,0.20834181538346971,-0.015755719380011173,-0.259585869060737,0.16346670147275133,-0.0146235422937667,-0.07054199403331642,-0.1812477769511947,-0.04385778727306443,-0.060632052492452876,-0.05175445792760219,0.05387024406135385,0.1261546626072234,0.04475271417248001,-0.012690458223474772,-0.07701049931706584,-0.019677417344060148,0.04649209684924279,0.32062524157027383,-0.04008383671690519,-0.05983493824167784,-0.596820330988024,-0.13419766025801125,0.09373057296213941,0.17147624632979297,-0.04352541457579762,0.630850829612507,0.2136078821362815,-0.08019035285671175,-0.043606637543082576,0.10151743271863252,-0.029701539865591733,-0.19614918756395125,-0.1478285385519265,0.1410206329220121,-0.0007138191504485955,0.053494599114920896,-0.38962055941452656,-0.0022532221615800124,-0.5975879513844544,-0.6823349779262126,-0.007477106251234796,0.006468767675640382,-0.01269888035224671,0.31439909579222763,0.19465005144333944,-0.5130244775848868,-0.06478065728542923,0.03556392261893414,-0.319221491841501,-0.0967931533857444,-0.09166998210696004,0.10049206138483119,-0.08582709618692416,-0.0023115296062206085,0.05639341102930974,0.06365392278976079,0.07267481869258263,-0.04978920213731108,0.09055594006705438,0.17997442257987298,0.003213829655811516,-0.0039038941871707227,-0.058196143706833986,0.1907950641043569,0.027467343638185218,0.31929191271470375,-0.44099836621028626,-0.11542931450262031,0.23902653950887667,-0.027563296507269287,0.012221757824000617,0.0908913975788857,-0.10100287446541939,0.06428137479335405,-0.14505768393665633,-0.16462878775947945,-0.0018624513885915437,-0.0021321600499967877,-0.09816680152956074,-0.03283805370406693,-0.12721848150973558,0.0780498618496008,-0.09782749533341194,0.03901721126417326,0.022911593562360152
265.6734924316406,1.841094970703125,0.02338791903938841,0.08804404460482272,0.08241419853511105,-0.08404284648709075,0.1663110636198327,0.26112223082855585,0.2542602133442034,-0.13519846788596276,-0.20467335947266027,-0.3117665332288308,0.010356573380273005,0.385045868080561,-0.03690265808147851,-0.14041810614449768,-0.11283305346489707,-0.061502508082307436,0.2670334173877714,0.014224763338975354,0.035078732612877896,-0.046508288363840015,0.09965738867966574,-0.034467852379573075,-0.09686310749385552,-0.10364154582240855,-0.10777825476319722,-0.11694640443092616,0.21084549702615712,-0.05957154247649148,0.017575341620110426,0.3291179633047125,-0.17875437559443966,0.1300602744920092,0.047125380229301114,0.0593419132763745,0.07214044362872488,0.20962971759868038,-0.05191203778613869,0.08962195819674391,-0.1565522180800285,0.019900104641443705,0.2761983986397212,-0.12545165490485483,0.01675351645108442,0.09681815692985812,-0.0806109277419685,0.04032351431232739,0.29928682145448,-0.1579143163191092,-0.22422872178488346,-0.29472486498993106,-0.23776921804249013,0.572258947743424,0.03242028274318709,-0.21167986183668192,0.02964412587157147,0.8037481424684626,-0.19224053918043052,-0.15869077376475862,0.3002798986816261,-0.05829949112556236,0.1444177080995971,-0.09694421983009657,0.03550175209442004,0.011458628907593414,0.004650179212168274,0.008370201001193286,0.0378891634169926,0.020605942713269258,-0.04656878812198412,-0.15844913750537162,0.22831684962039245,-0.07597511026578933,0.11222970926944395,-0.12894962531615836,0.20572938188389014,-0.10538020410735949,-0.17121262672309662,0.0658901882262259,0.10658576347468061,0.03103931272992893,-0.0963051336051493,0.20603979044047335,-0.053869815030234525,-0.04828454723811741,0.05004395999896947,0.07885834881684568,0.062362562645797884,-0.0012298204907887356,-0.06581164477012945,-0.026659233892321874,0.074397767004735,0.08975723985768573,0.0990786159280754,-0.03777006954562808,-0.07724868992502566,-0.10140775339452998,-0.13750139204683484,-0.06762474854375672,-0.10981436783388804,-0.0019232252128128817
267.51458740234375,1.97100830078125,0.0015703260225713098,-0.019784256044634078,0.01478639151484758,-0.013942764045316167,-0.032314349094194096,0.06301344840131938,0.10997446563287594,0.013133412544828402,0.02646912163954347,-0.10778077605475612,0.07827405490143433,-0.006836101882919571,0.10528439173450194,0.03614193420418729,0.020066090535712042,0.16950116347451147,-0.15522272697335102,0.5155074633711835,0.1265849198850571,0.1258129815558859,-0.5706369420527679,-0.04174042515876138,-0.23222120699525045,0.09519353923847791,-0.007076729594047651,0.1585002541453478,0.056379699323924254,0.017564472478374615,0.24231442516050397,0.14241795134136226,-0.21829308980736176,0.3117996161539221,-0.2236700775895364,0.3171787597219181,0.04327861468862014,-0.03244336876642847,-0.44243424950984717,0.4920471402604187,-0.0002943234281987774,0.07468609179695543,-0.04572661163909452,-0.12032061368404118,-0.371748136211297,0.16096276404098403,0.07009041929470919,-0.08236172679493702,-0.03486389180497299,0.3429876671294932,0.48944466543316073,-0.014947105246630312,-0.06316447883405038,0.005197020467664182,-0.3255989946318482,-0.27086795004837527,-0.11851944339596851,-0.196157600873726,-0.3187557715512777,-0.13114580615385943,-0.5623851505276842,0.1251647174594273,0.08733343482823977,0.4715415492868581,0.4627554720711645,-0.1511356799751234,-0.0923126162685346,-0.03336674822279603,-0.03387639155581974,-0.00759471989452111,0.028546479356849182,-0.03845384751700485,-0.1880149167431119,0.19054385288109935,0.09562619722465542,0.13025695673246926,0.035531725528660504,0.11724834075775256,-0.23624862536119604,-0.18532755559350314,0.13292027316606908,0.15319876395169907,-0.0323419957159817,-0.18056278330079678,0.09910460832058154,0.09747971911685384,0.18975473210336194,0.12108031551618868,-0.03531753005600599,0.13421097352430986,-0.05298978874955032,0.020188301845515524,0.08276513759160581,-0.0902295983586982,0.0391312038718262,0.11834856100133395,0.07087290113794917,0.04268913385507238,0.12852457425937752,0.11201007466446843,0.018092413962624763,0.06592357034907573
269.485595703125,1.810791015625,-0.07523043507221902,-0.032912432119739286,0.02351603915487551,0.2501641699069341,0.18176382758003037,-0.10175097922955748,-0.2196537861632668,-0.07513892996408794,-0.08606770927686208,-0.057115109039651155,0.12750765439792294,0.08422304276892024,0.15387235672036914,0.026889721065920896,0.013968038935622405,-0.07406176346123673,-0.10866061558994405,0.16654925590361366,0.268520557665905,-0.013036717990704601,0.1383511888944481,0.0921630055241676,-0.007153171094707492,0.022720014756033368,0.13921493836311838,-0.03395889604382424,-0.010885328309146448,-0.018845788564535042,0.05058735014000021,-0.06211742669863225,0.014300167586372009,0.059976305457355286,-0.0033941996120525324,-0.00492018673609379,-0.02074831589381529,0.25304574099270966,0.12410260296459684,-0.0019270973231057691,-0.3107732387493675,0.3619500007057324,0.008522779884748808,-0.061770729091447305,0.2146782168165913,0.045301275348588695,-0.13249569798858332,0.37024915885702736,0.3760485127261336,-0.19489130251532083,-0.07005819290226527,-0.1319230072485678,0.0735960058973204,0.06795452517511659,-0.2386635056153528,-0.15812788398959987,-0.21413962979525264,-0.19936107595717079,-0.29907207805500924,0.14512539811935554,0.1579025591010709,0.3939412901199371,0.06968282297072789,0.1780583448092211,0.009780811258416094,-0.08457780476950304,0.011510811035298284,-0.07682700727886449,0.005310729922650515,-0.04830155523358585,-0.0978246529245651,-0.008891502583512352,0.04502264565852688,0.027012237566894894,-0.03440691669998222,-0.062403956719838644,0.2040040063229335,0.018463011062981274,-0.1801436917023272,0.13563473425975087,-0.013078145764664102,0.17855514524719346,0.02473984510350348,0.08630761090117753,0.18131992563811467,0.09000794447175436,0.22394711496434153,0.1213147670534269,-0.00490403232232431,0.0600081161608786,0.058597802530436865,-0.05423518860167523,0.09293941210410452,0.006299360800085864,0.03598958278418956,0.06361669338938826,0.04700049922324725,-0.06144853029513234,-0.04401393910453376,-0.09690776307592992,-0.07695652540891171,-0.04478584580313226
271.29638671875,1.81121826171875,-0.058468547392934805,0.0054296244644479845,-0.051653207175646365,-0.002797577402532246,0.05246404185822978,0.09286496668899923,-0.11666871887334046,0.14189473216159942,-0.329632796987196,-0.047113731739547596,0.1804389681170975,-0.024215562127475804,-0.20625036088533955,-0.05762085621769741,-0.07113573697337006,0.0035758741988267534,-0.03178089203939207,0.19489385497807418,0.002740368162177622,0.027121672686398722,0.1935643210168508,-0.2972872120647034,0.4286074886187477,0.20180317228706,0.03566478566188035,0.00687246929870837,0.07280701947010818,-0.18142680651096693,0.13722409425603785,-0.023440600629248347,0.25815560770891355,-0.14050587932125919,0.4416771862478459,-0.15890090247277264,0.07354577862402331,0.36065077267296153,-0.14527414272949452,-0.1723090978944379,0.21526361938899594,-0.00819553630974599,0.10040403903063816,0.8612598135032855,-0.21703197393348417,0.2197746221567834,-0.02879857103540019,-0.23432255463979765,0.023859920735383545,0.2189952409684628,0.25926380710085767,0.04251706124265064,0.25496663505656897,-0.17394992519652785,-0.10102401255929094,-0.2230132743878405,0.05089596294368193,-0.07326053586368603,-0.08933110951647363,-0.13134427781440464,-0.11177791380096566,0.0034531543787193197,0.011268591445094518,0.007791064996719204,-0.4145499934937952,-0.08533170862545138,-0.060861993870417706,0.12436454781668638,-0.03680290875475393,-0.06601095293959566,0.0962419435190922,0.11493906798107917,0.16209332533643644,0.25415211321387376,0.021124423399365502,-0.1447179690209788,-0.10230828876320755,0.25133103873948137,-0.021426982095950235,-0.38453977338962575,-0.07408055546353877,-0.09007992254052943,0.1392607021227518,-0.04126335201967042,-0.040873806696037226,0.21981183853427388,0.11706027996429852,-0.07344677869015373,0.11708690568926161,0.006538010237832884,-0.08482572780888645,0.07523877393096275,-0.1625627215980283,-0.0022941134371887587,-0.06710322379010222,-0.06797594723398205,0.013269215792737002,0.032992941332501816,0.041696064543718686,0.025094099747479563,-0.022114571979993947,0.04752291099019321
273.10760498046875,1.84100341796875,0.042797645148888466,0.047608812603337214,-0.021237675176477247,0.013744993253442394,0.01900237903227379,0.005484979735159341,-0.050314803609326234,0.1654917933210333,0.3561067180205855,-0.1456735515715973,0.4105921363530927,-0.20450344317769062,-0.20029077911368823,-0.12039849976753011,-0.050867348973384297,0.08153836140499532,0.05227239294263672,-0.10320857458916448,-0.04751837898187824,0.04206544580835013,0.15079509815185543,-0.04026567871792055,0.1115130292011233,-0.08368217829671187,0.04011954981423834,-0.03363092089611405,0.014999348575076343,0.059368234881896076,0.10204932013945714,-0.1993379356590851,-0.054946897334577215,-0.047859430562755774,0.0020211042303064737,-0.0352176396799208,-0.1779743099388894,-0.05482242983425899,-0.06746353342509241,-0.10592738072529521,0.00030309783846317476,0.04922056456400378,0.1371595108261905,0.06507766503131109,0.02156249051679486,-0.17458644192880524,-0.11169248980064182,-0.039326274756318905,-0.3135932866688659,0.09946929074762857,-0.024696076301825097,0.19733772170731856,0.07540263555920883,0.02412190603492454,0.4157624277418352,0.0879429856979248,0.0018271875725547615,0.05405951398889325,-0.17310241929645256,-0.08425234609407634,-0.24953104416031055,-0.18396211033527587,0.05054171557613427,0.04476915318528521,-0.09439285248283705,-0.1901640040049002,0.00817893272218634,0.10968200432344868,-0.02059427412166826,-0.030726763835892637,-0.1565472279386906,-0.003354802673809859,0.10467612457108796,0.10737963756624941,0.08157526770217671,0.24390076019556306,0.14836357740453582,-0.17648463270216683,0.14177278811250255,-0.027979331240039207,-0.06119285946787273,0.07069657250171094,0.008471034477148231,-0.09933565262949551,-0.1429434821226254,0.13964665453340752,-0.01880863925178124,0.002175675848903602,0.03357784453419888,0.1406546270814352,0.04741650390679953,0.0035240516219448353,0.002936487724367379,0.065616668350046,-0.05448314708559967,0.08697068166073409,0.04353936125003262,0.0828201923365591,-0.06519859848315165,0.013411872948741304,-0.08278931416153903,0.017647188973118233
274.9486083984375,1.730987548828125,0.021501858974963838,-0.08850263976400842,0.01720026712237771,0.005053429594601677,-0.08167770944954067,-0.02167860099868437,-0.12851924607157866,-0.05821423398320816,0.2756501307839323,0.2713597707175874,0.06726413246511445,-0.1715989162309101,-0.05009691681834889,0.1394800655278356,0.05441821292673113,0.10250398125238121,-0.16117269747239407,0.023333876970847715,-0.08572832639889491,0.13282232145724476,-0.05712021715720277,0.12278467056509199,-0.031773599136339994,0.2094932744754299,-0.1653495559296317,-0.3010487553671907,-0.020728599691134695,0.3432171505399807,-0.21009261077947958,-0.08916626742729027,-0.17254916830001787,0.09738692011334041,-0.006135733616676603,0.08059335618849581,0.2062814085943561,0.12893371368517578,-0.03796302395235427,-0.09242006315978864,0.06413762876157633,-0.07663815231141256,-0.03827554164896479,-0.14089066930045896,0.142156277178854,-0.07465987102759394,-0.04410356693200422,-0.10680007093395931,-0.06000591314732863,0.18021609249287399,0.1967944324489896,0.07435801473659126,0.003819651580916567,-0.031455133849272676,-0.16607194465747654,-0.23103287838288528,-0.05496878558521629,-0.04707275576689307,-0.0833541901448587,0.44394607048907675,0.37052384235878816,-0.007937674429657288,0.18749425996793548,0.11785671421977457,-0.10734154271542824,-0.09196620183236881,0.01798638416490385,0.007037312991549735,0.06240678344964312,-0.0032482492121540425,0.08584158726710343,0.19496906947128934,-0.04483084701870229,-0.00032688537499563075,0.242104853507742,-0.12506810016170894,0.22983880881341628,-0.08682793736237168,0.38946473450428704,-0.09255895065657563,-0.1708350540092861,0.17546151480110966,-0.22180255223442208,0.0274037682457011,-0.12731902372551163,-0.1626189551060922,0.012631279487709366,-0.049050163617969746,-0.029291002901389286,0.07317015145909331,-0.05946645509221213,0.12994040049867714,0.12052364787099215,0.11259836150459578,-0.017039761882523864,0.1455669609255161,0.16388662644171942,0.045558404913478234,0.006372093153928059,-0.02605388252468574,0.09280180122402029,0.02601747396789414
276.6795959472656,1.791107177734375,-0.11971350427537417,0.0007784055878536527,0.054735550682095194,-0.11229070750282868,0.05635125884775647,0.12060276503737027,-0.04765488112289141,0.1736250621347743,0.0003776374749644368,0.0647253584749454,0.24900269018331028,-0.03993257795839977,-0.026172424887933764,0.07593197501423642,0.13173906230892368,0.26933340413873524,-0.004085379645320814,-0.06913165128897542,0.003622925937927248,-0.04590060597359007,-0.042952231945130634,0.1299066129397149,0.07703981138295637,4.274312798823371e-05,-0.14673062287877764,0.02332401739809467,0.011279449638719624,-0.027781464634933237,0.1610853915202393,0.11909011726692995,-0.17048170271719243,0.11882907907475078,0.054472154718939805,0.005487279308258621,0.008113461283668931,0.005558430719022607,0.013085331790394786,-0.020424193210234566,0.051535983335219436,0.14352236861673529,-0.07392875559177231,-0.1273615103712967,-0.1093606172189196,0.12451514072546038,-0.161602429889945,0.03758216435749681,0.0027814032281290252,0.0012870567325189864,0.0528753984296194,0.15915210879473884,-0.1135122387804498,0.23797021285937697,0.1490425308227491,-0.03729825610883918,-0.08219744577973856,-0.01350254408545104,-0.15013808375182472,-0.41632756034404217,-0.2150459495495621,-0.33557739803395314,-0.15599266100623027,0.14641558072053784,-0.13077751939816729,0.13758443946571555,-0.02917240714465565,0.03911220864233858,0.045417784629479346,0.1279037822806119,0.012613732195364248,0.1722913098934943,0.22726239380756413,0.009953778637772921,-0.02992752445946563,-0.08995782482500556,0.1576673293073446,-0.2079066459312822,-0.08881395070884936,0.1374053902322521,-0.0726867267925711,-0.09191413330774106,0.052694796109103825,-0.0669920065697492,-0.0761782530204949,0.1882747004868512,0.04960388314236957,0.08888222233218956,0.02494976774915222,-0.11967491962049595,-0.0004298532084074124,-0.014505923884033933,-0.09575825982405728,0.08777103614051494,-0.0013910616889111233,-0.004155256769464504,0.04770656412950341,-0.05768587590927796,0.1423690859449871,-0.012102620058709244,0.029649388677222048,-0.07670198073851653
283.84381103515625,1.790985107421875,-0.0011515034598632012,-0.10084979907704249,0.0361919474168961,0.09433067321195661,0.17781849463254018,0.2237231366120207,0.289723344250872,0.031534481897061706,-0.11096194378384111,-0.32491901521962196,0.11237748597039376,0.04841156447196576,-0.12319334802637681,0.012946628920395598,-0.00928054880976942,-0.3891216771345135,0.08492082627306162,0.09882016986359059,-0.23752704105437383,0.06790315388328544,0.22858712335838532,-0.06655795303780697,0.12322582391769792,0.04285075716894082,-0.05650576409240905,-0.10532001295845492,0.12200470725431484,-0.15860896105424774,0.007868830365695516,0.07642017224749512,-0.26670244029811296,0.1522858771599206,0.1747001461935368,0.08068192911655282,-0.02430383051229577,0.06732630751928666,-0.007596258510702672,-0.005020919873606354,0.14261502869994427,-0.21705889192192496,0.0587632341910261,0.0713828947047692,0.1594488372369463,0.19814999309701348,0.094682065718921,0.0775352706996307,0.05901722063201272,0.19144762175506913,0.20362223665798584,0.20027635600275237,-0.1325614984521818,-0.14072451889036314,-0.03234382967575683,0.10448708908195982,-0.40654733145339994,-0.10954627451929336,0.1618976078554307,0.028810174182769016,-1.520566064204821,0.029927394212291958,-0.0158592560501305,0.152173276500859,0.09821659656922462,0.0405982436692392,-0.14815885785281271,-0.0069142211108698315,0.07697754513714934,-0.3403044669758717,-0.3038512455146098,-0.0756778021994246,0.05239027566833976,-0.10307212836507061,0.25450524527296986,0.15463981738710839,0.13979556097556373,-0.016558807115525785,-0.07681415751178809,0.017036911885129652,0.5096606062583655,0.09658585463484456,-0.20293419537562055,-0.5401987045265929,-0.06460560894868526,0.026716658076478578,0.051969477545070863,0.04471540658697966,0.06607036749975001,0.06682351378322808,0.04492181059637326,-0.04739772092412541,-0.016979081857810878,0.07523607969731629,0.008650537053924707,-0.05723595233662116,-0.10980225951393141,0.07502451254977117,0.15883358799372593,-0.029406495324697204,0.02957239851663163,-0.13277399593871902
285.6347961425781,1.85089111328125,-0.12506975210217827,-0.015844353291042,-0.08418132274994333,0.08923674019756875,0.07458193581116816,-0.04641100680632186,-0.10144296617583227,0.10574265523533903,-0.02183267085225929,0.21004030005289528,0.08408748703974225,-0.17714470115525263,0.0213025430422438,0.027311288714342356,0.01691553284152089,0.07709685010550778,0.017293152178240605,-0.061739001897236856,0.11290272453464362,-0.1579626780842599,-0.03875343875653895,0.05935054297520517,-0.07151035794764221,-0.04142258298380182,-0.25297885794832287,0.06987265198341266,-0.14692644537589888,-0.015272511887180817,-0.10464237950705019,-0.028032028769228053,-0.232003017783752,-0.014651380546818207,0.0028184258732674577,0.12036107347085757,-0.1590769097872302,0.015354233449959433,0.07460782085234857,0.0043986985082459795,-0.13416761509342204,0.0685182687389202,-0.1190905305416889,-0.028946538388265886,-0.059054931910200295,0.09767635596123864,0.021264337488658983,0.06682518819052889,0.02470714549159316,0.029832517406237904,-0.22110584013608772,-0.09917654022631134,-0.04110672347746047,-0.14549918630822767,-0.20800847541662115,-0.01339146995134662,0.22136723165607777,0.3008158424943839,-0.22889801980126245,0.06583937508049216,-0.23850320123537172,-0.11746920143411486,-0.2803846945503278,0.13883008528890084,-0.33350031573634575,-0.46414748478888884,0.04434738401610652,0.19391091213180542,0.06754355855559122,0.8486029782353688,0.20649386103446002,-0.38827094368620535,0.06307297650961209,-0.2904675310118734,0.015519519178038024,0.019498589438798345,0.03005383342791142,0.032769446303119495,0.10287216264773516,0.11198708837623152,0.0012252215538037375,-0.0016380848303147767,0.07808326463039149,0.2356758051083253,0.06827019738161089,-0.08021058733544065,-0.005249759279215966,0.07370543926269016,-0.1943912517409213,-0.11673754746060214,-0.03625637764681065,0.09057286978849705,-0.061486277293705496,-0.091405165707571,-0.05671230209010193,0.17695659343045544,-0.07911057784845821,0.08203199515128959,0.1160280397982586,0.09649503216645984,-0.04866002757416637,0.2080416825656715
287.4856872558594,1.88092041015625,0.20984884571219722,0.18755673544747023,0.3015060806474898,-0.10440604025719046,-0.011391658651816787,-0.06116813041519813,-0.06057171268419234,0.08625454316549669,0.29452703326025637,-0.367096237075465,-0.11894230726404073,0.014891166376446927,0.17679580039301895,0.06660110889063439,0.19589601598836684,-0.010036011342581946,-0.15197763357785607,-0.1139396926530799,0.01289154077566275,0.22342103030225957,-0.07238598906424315,-0.36806196422183735,0.2471016183221094,-0.30381346875513576,0.008609102242640249,0.29550765997269396,-0.07499650121140095,-0.043485921106198824,-0.2076429847260169,-0.060801005712872884,0.10173975035679672,0.49748476878887316,0.024888435961349285,-0.17745079169375233,0.18543368282861766,0.20837026638676123,-0.2091223646763743,-1.1322889163598842,-0.07861802347716615,-0.14276412305814395,-0.06549355427158886,0.55017156470992,-0.003581951922241783,-0.5299720680243136,0.19132346074926426,-0.42810425726325263,-0.20385902778878667,-0.11057728190644847,0.40368590704007346,-0.1300251686641177,-0.13321007153269637,0.1416281403498834,-0.40453021338167827,0.06477214420920954,0.04527286430497825,-0.449193852314348,-0.5571178748013418,-0.3651768286132447,0.2975198397155319,0.10837449572329574,0.16510005352725582,-0.13706507907391133,0.09056974096230741,-0.17818174891113664,-0.06282725067349343,0.06975633556133819,-0.0031374614663993608,0.025133085960229486,0.03324073860577008,-0.24560656472394257,-0.004597502593262728,-0.02979736516160797,-0.1345848495188258,-0.1641337892227416,0.3653294825336987,-0.5229896992105285,-0.3970135463067475,0.06583858698187234,-0.07661172684544275,0.13074163252225432,0.07963804399733705,0.17665460678638714,-0.13941402220151436,0.08606128780469835,-0.08814590112336379,-0.07415634251268655,0.026556810702968222,0.059005082532114395,0.07129688257439476,0.004012664911481101,0.020720780004666043,-0.02664741167800208,0.013119255249723738,-0.06977477536501475,-0.045796376837048916,0.1982650569241163,0.02413676940901999,0.0004143234847019434,-0.10825732333004578,0.11800344463457457
289.3666076660156,1.82110595703125,0.10172675554421817,0.004796095881691612,0.07114136545445926,-0.09546053349696261,-0.04105376917250662,-0.02038277247728737,-0.17743779968282514,0.3276659779653682,-0.1338639781300276,0.02584989834410533,-0.057014973408677005,-0.0182659282488135,0.0866048145214094,0.07623431272901415,-0.010765863192653668,0.10162643966516957,-0.07951372773621353,0.0668267379143085,-0.01547420208973363,0.005746513659935462,0.03235954127995283,0.6840993541888549,0.24134489797433464,-0.38840906761323135,-0.7138662957689343,-1.0676700121591935,0.24885311111914804,0.39369698938970105,0.19148788795305077,-0.006629876057544332,0.10531978525548835,0.0006788132712376655,-0.344515240183063,-0.3012755410957284,0.29485823219089025,-0.23408449629028244,-0.02514947874976333,0.1562023386370051,-0.05294864028286235,0.155810289878072,0.022118114367884373,0.3515273787875761,0.1499510035656728,-0.014775169128672744,-0.001191421156603395,0.11238320905772205,0.37301939890976543,-0.13619913976841924,0.2534678714826385,0.13211284337096688,0.17417348470059515,-0.06712548927061146,-0.11212443234500948,0.03651193205650539,0.2530680092386364,0.14655725377306045,0.27647115110976533,-0.10011813365363098,0.030988974473511552,-0.619014120909125,-0.008313049459767755,-0.00141396428697875,0.2222176573408138,-0.45444370214979435,-0.06940026849251832,-0.11016483259146631,0.04858871364604379,-0.013885912962480287,0.0342553401350493,0.04195472959734925,0.0574452922875817,-0.2611397069932201,0.14604381969086416,0.06222777755509228,0.07282082881228095,0.03732946407575643,-0.0017140724574927577,-0.022044276672470813,-0.383262371481096,0.177211395852601,0.10063116292159413,0.006256691359321064,-0.14137362342254028,-0.0908601766993229,0.004730789414051599,0.10001709185833182,-0.06619323016640508,-0.08511920039760422,0.03627820687814418,-0.04231946879550918,0.13777897554439908,-0.08563838420505107,-0.05260703504694715,-0.03118275042791044,0.048072912484944316,0.05943928434699682,-0.005945603204989481,-0.09138643464008293,-0.08908111856206356,0.10869456368325625
291.1877136230469,1.95159912109375,0.2484493787133511,0.01778633229625606,0.05681289709852957,0.09526746591570177,0.07575019388609111,0.013739789016583997,0.15159203603622431,0.11527403654227462,0.08639138816125,0.24636574931660385,0.11228646648835777,-0.2371040914322075,0.28577662408931315,-0.04748491729729455,-0.18267077696305198,-0.14505585539466986,-0.07406141569099456,0.14611428694762815,-0.024688209944073575,-0.11759068205176498,-0.08225740755602741,-0.06562352536935726,-0.021890641122111126,0.02872977752740659,-0.010081846154782553,0.0026842602892055744,0.06920714091325339,0.18401783467488847,-0.03193758862647506,0.032856165406050616,-0.085992407934822,-0.011538308263180301,0.17601790671698309,0.10009977670600227,0.057526015316328,0.03597495450380646,0.012907664392899157,-0.08566289594202237,-0.11377823845712438,-0.09204013401761972,0.13412364523160866,-0.03279315628581224,-0.12684943090837827,-0.04551529699305584,-0.14709800859016745,-0.06706534695926576,0.1767883521705573,0.09525483441506825,-0.13249882665502943,-0.08895394059187224,0.19305976131271074,-0.15738995325818342,0.24553645827720244,0.03961354597016485,0.19061905026896248,0.09014066592401349,-0.08269041442259872,-0.41967594032472366,0.19878449120702457,-0.082403196851965,-0.002126541376445676,-0.24786631992701452,-0.08607582602859135,-0.09824321481082927,0.07437879271439925,0.1829857473624505,0.008768180353628138,-0.0025708468957306024,0.05973624332059202,-0.06132930951616135,-0.03038359632207956,-0.002364921196058578,0.018335561140754075,-0.15679051993931892,-0.08304292641326788,0.12425536200881374,0.013777635346053725,-0.058060965873042436,-0.06873745314301777,-0.1544383637707106,-0.09463775266534327,0.11249255494205995,0.00418822210909107,0.00448869486282278,0.07858689649690025,-0.3741318103071815,-0.2365057338586956,-0.09664021366593943,0.016706538395513275,-0.05494817046802714,-0.018534059359832506,-0.006798921810851056,-0.02858035237600984,0.1338253699923174,-0.026163599391749975,0.19977152313484067,-0.052104280123278286,-0.06247209283716697,0.06646548585526947,-0.2750368515355178
293.1393127441406,1.710784912109375,-0.12627077039939344,-0.06895204056192203,0.029670287291333933,0.09523907933134293,0.1640873120178417,0.24651547201757737,-0.128244808924317,-0.3462356020914072,-0.08944262234321207,-0.06879970240956769,0.14874830406560216,-0.09202860103434087,-0.01069016415408048,-0.01113361110000703,0.004039834497543027,0.1095136076416699,-0.08264600443431024,0.13958341025990736,-0.08340897149342356,-0.04782502270213849,-0.11194082141022221,0.2887189981569665,-0.0030307159230437307,-0.23530570282077767,0.25894610057196527,-0.3959344232765112,-0.05920442552053824,0.23002416896012062,0.08144145036024343,-0.03018434082754064,0.049455947816745754,0.10788744076319373,0.08119082087501776,-0.03594456877668628,0.09112067011792872,0.029416313682696794,0.034655088735210324,-0.14181705864003175,-0.9390105607397389,0.05514892636746724,-0.21793249082197094,-0.11900084110458167,-0.34122785530707883,-0.14123231921979204,0.07505428762555927,-0.019900861500952258,-0.13006475145202018,0.2103781636485232,0.1404371878630656,-0.24930228220629375,-0.2396051553229744,0.10591309366599443,-0.04971451190006888,0.10093155381259623,-0.08935740336566508,-0.08939083810786991,-0.02704832951031641,0.017922347061716866,0.039615045970454274,-0.07479630210626642,-0.06931919398032442,-0.04668790783530159,-0.14338325531948096,0.020372367564958582,0.07617213674122401,-0.09229055461100015,-0.014695964372937242,0.08006871528228725,-0.4949327610891355,-0.08964834838015494,0.08861957833068854,0.08485424716866392,0.01664609816866651,0.03867391814173768,0.10849670175711668,0.01814805791777148,0.042788798847645707,-0.24190642670268106,0.1978562172011586,-0.14491466743525566,0.06104929817431011,-0.05953325922106415,0.1072778415613888,0.05262184948053701,0.093793907706583,0.15080712182586944,-0.0010628661986292216,0.09689224720388617,-0.13535928600974118,0.14293248515117468,0.003894975240381666,0.07035364085479212,-0.015821303839482673,-0.03627508106703016,0.060920126213289225,0.06279056949197538,-0.06600122018812411,0.1349076672898224,-0.03314418056716156,0.04121532790490215
294.85009765625,1.81109619140625,0.032679039829871935,0.07849181372870072,-0.059557908675646955,-0.03214228501470005,-0.055607864061356066,0.0051582421156821795,0.01214092191197707,-0.03716891303579843,0.07645607920639777,-0.09504103512077199,-0.04556045857259223,0.006231658091866354,0.05526103486851259,-0.021626420458027807,-0.022407821519728463,0.0004029745611012187,0.08443871225388372,-0.05516943395472839,0.034306912314770545,-0.11429137536996799,-0.1194850626786441,0.005179630751450577,-0.08011106916184114,1.0092158693300481,-0.0441519194426617,0.005867917633653175,0.020094669225077622,-0.04351773341125423,-0.02128352503136555,0.014172010885659753,0.09196448752528838,0.020720686114485604,0.07789491764358296,0.03155693851174321,0.04105557541294544,-0.16443924343161928,-0.07791106767782399,-0.23241279036823131,0.07987518526741841,0.015330081285373443,-0.14134587306549595,-0.06729071933292165,0.159351813131675,0.0054172924121021655,0.003091196158861923,-0.0050524346318252256,0.08702710808269304,-0.12625865352393878,0.07228025708220392,0.2705541009991374,-0.15163991024473264,-0.25684066189764837,0.1025954105725036,0.11501507691814625,-0.08062262162182446,-0.11286129539351078,0.114542136589834,-0.10921077482053124,0.17152293792045792,-0.04316961330891202,0.2512454965951228,-0.2631686755371229,-0.358036108500263,-0.04311266690738162,0.08228903992829122,-0.32235374351526636,-0.29191470256725244,-0.042416677908416384,0.03472530646074099,-0.13735081706463304,0.0898215882237128,0.07181232373375465,0.13061753395731604,0.07181376889092532,-0.016916225954714797,-0.15988826828635527,0.36290387592994344,0.04217054596754867,-0.10087659109524705,0.11536907031936254,-0.030909519766155323,0.0766452028412947,-0.17224035718894365,0.12565946912601897,0.023464524050934524,0.04740650974899302,-0.13518059370742114,-0.11188132475550562,0.023806186133732934,-0.08485558965566671,-0.06766805167510939,0.04544194912768568,0.17404005147452536,-0.06571848159470893,-0.3803192814532001,-0.020497519730829125,-0.11913789409218123,-0.15693996539366242,0.020578798732411106,0.06243327536608162
302.3044128417969,1.760986328125,-0.09834671090134114,-0.0926558596443982,0.0680434917568934,-0.043453348914656444,-0.05631526414487026,0.019802716570526756,0.09982833164763515,-0.0015264713137646962,0.07016613088711686,-0.1725277438505898,-0.13354247736880254,0.05519838322538976,-0.0058537590702043675,0.045580510583883134,-0.04957646627732058,-0.005425514507355746,-0.0009194077867733996,0.08610472011792192,0.02837490076585375,-0.04195274028794138,-0.04824958021393359,0.02497515295237078,-0.020536041693051264,-0.14410838419248528,0.05097918147239775,-0.023532468381126027,-0.02000394870360856,-0.07570717913994894,0.02200125615552483,0.04867024552189695,-0.07183805074828471,0.14593062020058925,-0.08139958767231885,-0.14341224469453404,0.11096413906454825,0.02073242662993756,-0.13698451939200892,-0.15795860729537758,0.09483493070214433,-0.07257329509938455,-0.13553318092898872,-0.03656921797296292,-0.050563950137368724,-0.23303020944003872,-0.20836368641398342,-0.1810302138746453,-0.10159109656975873,0.24518786298392847,-0.2882340283893202,0.8319956229683606,-0.2726580407847913,0.14243174101840395,0.15987520598148625,-0.2509800387895933,-0.3218463868017037,-0.14107330319587558,0.06169154694696238,0.012775317944107268,-0.08882471203707723,-0.08201698953895564,-0.14224824978277342,0.018867303368999114,-0.0013858843762025311,0.01729165907477711,-0.0652000725236569,-0.12861299006782262,-0.14230436468529492,-0.1646134157834575,0.07056257253562437,-0.0297401132085071,0.10780922271775806,-0.17623514789760233,0.017085210753743522,0.10423818676768264,0.034528484992987454,-0.1495775237064594,-0.09718404698843808,0.3217434334314238,-0.03405344112541538,-0.09062796812047055,0.07087771863540022,-0.0736846670920616,0.010179821724645273,-0.19986190014514524,0.02734638935406375,-0.029552820187317322,-0.046884264605300985,-0.11973307378966504,-0.07561042554835268,-0.1057274269018638,0.08088007147865725,-0.0389241559296547,0.06439779458301478,-0.06534820765875643,-0.012951093191502977,0.002870654451130661,-0.07054184429094718,0.03072880057385674,-0.06847094521407254,-0.1500810243116885
304.0653991699219,1.78118896484375,-0.15085290877083443,-0.00299888728734749,0.03949495492020874,-0.02414919080727325,0.0469925887976411,0.025599940518652713,0.036060321593507916,-0.13974138482694015,-0.029328164164252005,0.06986875985644228,-0.22580807138184783,-0.1882189723087345,-0.06063713234595458,-0.22828586974188603,0.1555230470184145,-0.05741462820179326,-0.24378327806003638,-0.06792427530732212,0.09536431761483306,-0.0008007327425999522,0.03187599696719853,0.005845417899258733,0.01718453897033404,-0.053317249758015405,-0.12857608679558422,-0.122172494144152,-0.12428961052212102,-0.17038781837694242,-0.1277219560262303,0.14747396572929336,0.13199335666694478,0.12383928344438686,0.0739724859043205,0.09282739981732767,0.017407823842729764,-0.004566138643137596,-0.010063589633847956,0.15180321956238368,0.11107007487167299,0.18159386413995582,0.5421702253339797,0.0526387256493319,0.09680819264403577,0.14331210140776993,0.08566159159679947,-0.04169274460008085,-0.13404865288529774,0.06651433967428752,-0.03407836652012382,-0.14230699025624613,0.523440673408664,-0.30339262372462306,-0.15858672819040417,-0.06423672729673338,-0.01172340600948493,0.15440433535312545,0.03007403504014497,-0.18474127366067436,0.03820302160644526,0.16417477872666794,-0.1455159412375877,-0.18334502307839162,-0.294453114019959,-0.024129121022010397,-0.15479770456580028,0.007882199005044478,0.031480033169860734,0.028127822075383595,0.07993240446045996,0.1288245923389644,0.2381109390285087,-0.12023574905175269,-0.08734925177857852,0.005580269543556657,-0.112880052559971,-0.1618658399839016,-0.1868894942966932,0.40621603521926314,-0.017728889979426714,-0.04909753023280845,-0.3205454450935924,0.06567042002482248,-0.0735690284357516,-0.084517816739031,-0.017422163923641848,-0.010172343449891843,-0.0010943353906135512,-0.008448657036985876,0.03867547669117277,-0.01159026048882172,-0.06809606494151871,0.002420114392461717,0.0491250918100689,0.04792576361532286,-0.02525392180148068,0.010543679986083764,-0.009816119060570108,0.007149779532658742,-0.03322745089627693,0.010304943073692452
305.8465881347656,1.680999755859375,0.016140478198364644,0.041245537358102,0.049481635504386765,0.05737313637089185,0.007334086629858183,-0.08319585359771045,-0.16208872159268853,-0.10869338807020319,-0.3653903898303597,-0.027588021304167366,0.020935417458507917,-0.09405013562519082,0.1853397212034134,0.030004476955952736,-0.03629966869313163,0.15080189238454067,-0.049098772623494484,-0.00845853361963163,-0.05596470908330664,-0.03171710576352194,0.15231672722070602,0.05816746469747022,0.045059459548269024,0.031448101371551074,0.13102353211780898,0.047860822750498466,0.059102735531372234,-0.07546316857958578,0.027523551432923163,0.12098580884007458,0.04556918867127411,-0.1179586999028409,-0.049371278979263786,0.05228021791457564,0.041968812515666164,0.0070448821552403645,0.23620608834195636,0.017484379191633596,-0.06387373313061319,0.10639247290605443,-0.045437239893877185,-0.0760346196164681,0.020954880252336563,-0.007468141002773224,0.028917654038175755,-0.10914341349302754,-0.1598690941453338,0.193143642279018,0.048963678875642944,0.01602847184352378,-0.04158607264490574,0.2042833296122858,0.07633671974143116,0.24857844069902624,0.13233421835374706,-0.24007002072805192,0.12310439460025985,0.29529841353236375,-0.07330947308251637,-0.08333153645259686,-0.002634836569837683,-0.12498040707513391,-0.010835139455965292,-0.04609130888509559,0.02663847003241913,0.0316691762154972,-0.018499849127860533,0.07315737650121099,0.07498510614220827,0.020122164700118864,-0.09259873480364789,-0.002091558367328764,0.08075060636154704,-0.1677513531256374,-0.1467493959065231,-0.1506681842481289,-0.07125418583211686,0.04681274444494776,0.04679683562901297,-0.151422198449207,0.07010148409145832,-0.013353371438551111,0.12535058225497192,0.05062125260744688,-0.017798602055910148,0.07623574923179756,-0.07364891956636459,-0.037233406932480284,-0.0634174289136364,0.10021015624856343,0.008703637071030064,-0.11438530955465288,-0.08751244791456131,0.15021550044933615,-0.10139380772934224,0.07074385084149931,0.0890221375960395,-0.03016922824165163,-0.0013335476466371774,-0.019533492262975925
307.527587890625,1.740997314453125,-0.15147525446819404,0.01649837617915891,-0.1053881272029981,0.040951389342057054,0.04689039331868753,0.15816994582535543,0.08380112674074633,-0.13366387240768937,0.18234299212523075,-0.09684981386343172,-0.034545367023655925,-0.03201462809470372,-0.14650310054812507,0.044880959723077124,0.010806148425998571,0.2289908769528681,0.011219929354424465,-0.08243642576212379,0.2704823041664485,0.027460578251501593,-0.12971060389035094,0.07109283606712989,-0.14348307950549447,0.008443695636360476,-0.14552553322886794,0.2141512282320978,0.03508648404152241,0.27263793878769166,-0.02534331466206989,0.14656703023885126,-0.026845582675922356,0.07135820472827982,0.258257449601148,-0.0047505747597696305,0.042240494507906914,0.14494830902790976,0.16753762128245636,-0.42695708069816934,-0.007784466296026995,0.13429032700842702,0.067669351742426,-0.5794007605177852,-0.2982957458440002,0.5583252449864244,-0.08629612988199029,-0.325055253369838,-0.2312868928559485,-0.2380663698054134,0.10821259286216382,0.023738240014685635,0.05468793863696419,0.011332944946226158,-0.13502223630734247,-0.03918051665047138,0.3898446125074369,-0.13521055347144373,-0.2029873014180749,0.1726949889074987,0.0445165673729583,-0.025008978164243516,-0.013385897250065932,-0.3403337676898459,0.1407925529255477,0.19525115765704365,0.07085090270104269,-0.19794266557077672,-0.044448815435338684,0.11456821012692854,-0.055390994367362105,0.24770370822474233,-0.051249858616922384,0.14187723519973924,0.17217332689767248,0.17983140135519693,0.16972549981965462,-0.1749727862821996,-0.13963681811167605,-0.07936563301897329,-0.1677603050046404,-0.029060571783472728,-0.10207929161360405,-0.00630697207254489,-0.08067846623600464,0.0674225957815034,-0.07516592838148206,0.00592539214655306,-0.05048914929892348,-0.07442573017911583,0.03697463162519073,-0.0036412797884240733,-0.10643291667283865,-0.040206383477515206,-0.035253274231152675,0.04604509673075664,-0.06590031863675601,0.06046146592400239,0.08415061648533516,-0.07110316994924683,-0.055057638604928266,-0.2437624494204749
309.2685852050781,1.861114501953125,-0.10076562853107952,-0.041053609774762675,0.017767491039178046,0.0029462958151558792,-0.08386548043195888,-0.0463866463998363,0.11270184317631843,0.054994682756148744,0.16728755965913228,0.07806368868588912,-0.1876588428778779,0.0214835125015247,0.1204094630155943,0.037095939048106624,0.0873527156709883,0.058585374885984316,0.11048478577445531,-0.025203342837818055,0.07050564334288664,-0.12008702831884231,0.014287761576403608,-0.00940476648806748,0.06205686937637121,-0.03022350632139332,-0.013629075052560821,0.030572532219217137,0.20361037074362143,0.082198867967913,0.09893203924520229,-5.839884975108458e-05,0.023998941842588883,0.08531843555563871,0.005883092541093815,0.11909692487917704,-0.08985968144506823,0.835198925205622,0.02962848951969168,-0.21390993557068932,0.04860918166117636,-0.6342000812479966,-0.04159779404209061,0.151896142214565,-0.049136564781157216,0.2774046924475564,-0.0059635473111915235,-0.007841470702111887,-0.05967215337906075,-0.12119177880307211,0.052755196659896475,-0.31774236082772983,0.27783207565184714,-0.17925897152916392,0.2808906524890279,-0.22558387024749899,-0.1810492597998736,-0.13882516073855372,-0.00529384246502726,-0.17245717686116246,0.011718223562676558,-0.4549126051987445,0.5697638288829212,-0.06570963035056653,-0.14281572170066462,0.030314017205613622,8.225982652268497e-05,0.00426286671677598,0.08097605943266156,-0.06219698110909824,-0.010801779086093873,0.05998401128262292,-0.06694144685462801,-0.2197100933721998,-0.12843333307849256,-0.4652507212833636,-0.2770255599420404,-0.23856052633373687,0.1589593426290295,0.05293736873471531,0.15160714550590126,0.2557276752165741,-0.35674123420093273,-0.020592478937305966,-0.0032661339696303483,-0.00382189305897062,-0.014929985075079491,0.19275227150442162,0.14100989145029474,0.02310500499081651,-0.0510883848608584,0.006272204642003518,0.004424986428518416,-0.09127702754723599,-0.0767833697896195,0.05019274069827656,0.1500637765631785,0.060227152722555743,0.09786055360940443,-0.10623179038618472,-0.12261279494935988,0.04698015290576028
311.12969970703125,1.7510986328125,0.0687057384805792,-0.03352524859584261,-0.015331034477636495,0.023793718600799235,-0.03472083322200261,0.05675738724393285,-0.01605599792055907,0.10856259377019284,-0.02811656638809269,-0.038746956034899416,0.22059061477767192,0.03737104051201245,0.00208539740682876,0.055803188673645115,0.07435941518502506,-0.18652524910981053,0.05166384873856756,0.11938264375879669,-0.03289152817605554,0.22238084384260715,-0.039466820302757576,0.1334090769457096,0.03895541964065408,-0.12348792481058916,-0.024541063028306883,-0.08685935555459812,-0.05061058762571964,-0.15628313507839206,0.008838315555625295,0.08253936869778515,-0.06861902859469565,0.026853982603924492,-0.041273339196651965,0.05725595333420942,-0.11820028493031863,-0.05955171835369585,0.014894282274336666,-0.05467340236154218,0.010352208216245351,-0.107050419444438,0.26277944235736506,0.09072636983271919,0.001107953253490293,0.034995786801663466,0.018749707883255022,0.00043406835858154284,0.07678460782869412,0.04733370206774898,0.12369054945931082,0.0793460468624147,-0.10124548294105407,-0.21054073722029779,0.3789533331979563,0.2214412929108537,0.19265257548066805,-0.12395895643092919,0.3390583697016008,0.07798014185827754,-0.07249824232141484,0.27490921809375496,-0.039592417599173965,0.24386897856508905,0.08806308671192065,0.017356182759780306,-0.017220454219343803,-0.1243782684040209,0.38390714632306727,-0.01030073424184566,-0.03198684091826258,0.012885271374848831,0.024606555629097297,0.035137578994791224,0.07120929454454397,0.1664429878778358,0.22923952270344328,0.20645296992840378,-0.05932024441532566,0.09580964276758873,-0.2188886463489907,-0.2954357108068331,0.01818554541153594,0.12981526189455944,-0.18254781255936794,-0.26022854189939104,0.037088963830230214,0.11377442234410744,0.2259458260273426,0.10940447698883968,0.001507347521067684,-0.03930669339563307,0.0010020188486308808,-0.012896280474944358,0.029674193017457474,-0.019195507628358033,0.006577875682731188,0.08988591869459488,0.11834963620273974,0.011435972173830657,-0.008886189426811643,-0.0753046164461042
312.88079833984375,1.8009033203125,0.0624945585647384,0.03100029151812552,0.005985122286062124,-0.00410568317582299,-0.22558062431291623,-0.08319086895619826,-0.04910669402122443,0.12010608183331815,-0.25274785250607057,-0.07687476993226743,0.11654766441091503,-0.045961499420492755,-0.05455855933096211,-0.0229815897176716,-0.041456682723808806,0.03469669069821943,0.04882942290870423,-0.009151710026038803,-0.32932309291242945,-0.12094046316278428,0.26998804804307586,0.1793219507515299,0.31896926696807726,0.07573313964488407,0.008269116501765787,-0.00814468032529543,-0.03296152723229523,-0.1939652171814923,0.19146192911606252,0.22892588029597746,0.06509312384670707,-0.09265084601474015,-0.08247325787572447,-0.869089599318259,-0.09469914772494566,0.02201095066469136,-0.41315497195295287,0.522477916848201,-0.05579998575973279,0.09881901689441465,0.28763631732664696,0.38707740355070586,-0.4061443627478676,0.42484529097472207,-0.2585970351423161,0.07196917494709158,0.172979470358965,0.06450972387648998,-0.07595759896712886,0.134320782300959,0.21050321318458387,0.18641549151677933,0.2112654493231835,-0.09166658420969262,-0.19639810747695433,0.08074140623716525,-0.0721090728051621,-0.14218557505859244,0.06275691903559025,-0.09264942654066817,0.10279850738138019,0.2839922030913961,-0.2948360554287902,0.10815798799769118,-0.028060078653965124,-0.007866515057996867,-0.03219560800587484,0.1302826066864507,0.10372920493987473,-0.07357123621083964,0.10365840659710289,-0.22384094351261408,-0.26740126688400145,0.1347640921933491,0.18888589727756672,-0.10199131252751362,-0.23246685571223985,0.06022282448347199,0.10158252112452755,0.40752325701011066,0.007088890533559953,-0.04220057682096869,-0.21133081521775965,-0.08323312008437282,-0.147209038548505,-0.0030851460675905534,0.06895350412071757,-0.0036009927071455738,-0.015918206343553242,0.06426339780439745,0.18883365510351907,0.05065622996201601,0.04714786834472724,0.05929958402302434,-0.05242458283502643,-0.04857202928485145,-0.096050869519839,0.010987816774379974,-0.05125994433143071,0.0946902695761176
314.68170166015625,3.491912841796875,0.09439296806507802,0.024802976026777716,-0.059406680304764606,0.10897953121279062,0.08211437840258022,-0.1446690140679777,0.12168904212340467,0.18121568828993434,-0.030198352592662608,0.15308247522026946,0.11636675086167983,0.0789619696564768,0.18912448513177596,-0.21310181259025093,-0.1268454879131004,0.040206610008743295,-0.022864298992935305,0.06902364995661131,0.10487099451353114,0.2733267889116915,-0.014870465780626639,-0.1222279891326289,-0.10740251507912656,0.10304832043107516,-0.05560063064077232,0.026543591631343844,-0.11306017411766653,0.060732372351925634,-0.12288269654933555,-0.07891847910362526,-0.061172450107971794,-0.2019064211084929,0.3406735990064174,-0.1130042594731428,-0.1728777418529975,0.19647749907517006,0.09880883845166899,-0.09978845121733969,-0.15871318449792646,-0.004272614259299819,-0.0868004957215697,-0.3213867432177173,0.04079496636985522,-0.150892286989685,-0.060991508557283775,0.24076270091329627,0.19124092954169308,-0.02028049119102348,-0.06743472318569733,-0.4161181670124015,-0.006133606700563482,0.06938445586817368,-0.37373725509243083,-0.3897716779971731,0.3997444850833897,0.2341788175792006,-0.2382901552414075,-0.416569226736934,0.17989626716679546,-0.17647172260493546,0.052673836724311175,0.4147254286677311,-0.10631931493810386,-0.015283744298674296,0.014554836710556969,-0.084096684467112,-0.013009027691385879,0.06408068485371625,-0.028307943665471926,-0.01120815514357655,-0.3533735593563638,-0.1246651269363445,0.20582022713986703,-0.07278468243538738,0.03628479893162349,-0.08706731864191584,0.08221532298820763,0.08440235827257335,-0.13634494477269096,-0.06391619405254223,-0.07627138999598305,0.027864573012609258,0.05128424362090249,0.046164577802303264,0.08659426446453093,0.118275223808256,-0.0026353480628842837,0.12300839908045196,-0.000590279978723629,-0.07781646497963379,-0.01353508665369641,-0.009201845996797192,-0.10912865452863586,-0.1603339472999888,-0.07823298728328304,-0.06245938237579469,-0.1190135878129808,-0.11674757257676738,0.08255576585759647,0.05992948935283546
321.6658020019531,1.62091064453125,0.05372095393654248,0.03331951824679207,-0.005683302345958361,0.0151274654056009,0.00845759030211886,0.04510788810372265,-0.15100651973222073,0.3032747379382427,0.021911298514988155,-0.08974532737190224,0.21548857612409056,-0.19324024921062294,0.023173195639594912,0.03469575227425238,0.28082856950750323,-0.016666669332667694,0.027953676919405816,0.3859771460466496,0.1334205165634096,-0.08104271132717622,0.027240927054394334,-0.03773475962371285,-0.04396997962124034,0.06909208769626671,-0.056252604175986404,-0.028989881137332335,-0.02267586617470889,0.030456709846029845,-0.06329577567964761,0.09739592238763675,0.0648010129732386,-0.17635093881685046,0.07575615440887601,0.08739578286413709,-0.05717857862957643,0.05374007667359645,-0.14601405574337983,-0.24868473610653263,0.05850871356251777,0.04646191962948275,0.033875673993332564,-0.020939749992544054,0.08525065689050725,0.17536743161748367,0.4317854396357498,0.2222328266296672,-0.15122415042468354,-0.140890302051776,-0.24130173025592794,0.9305035300393344,-0.17289610176613307,-0.06983345320805834,0.03599917228468688,0.035603905059029266,0.28409996842835095,0.22582519936376094,0.11137091746547861,0.13510788378353036,0.34098260079829146,0.31748272681166884,-0.2756143663926297,-0.5244525216206408,0.301521853244764,-0.08963945365521385,0.02424883190970961,0.01270916323459717,-0.0634265909674266,-0.0229484588122641,-0.0924997659335604,-0.010108552646184201,-0.296506089638139,-0.23674853950065367,-0.04484702838424259,-0.2945478800844133,-0.08565289181230132,0.16272121929973044,-0.1728276448727147,-0.11452003307908043,-0.057223683341613124,0.1400738042348644,0.0543472708932354,0.004735072960509061,0.006676911239897242,-0.19867554849160085,0.04878526608614565,0.0065926978272730285,-0.17783670368573704,-0.07935393547095816,-0.05457338561632983,-0.024047851980786194,-0.05060417859757479,-0.09514035248016149,0.001211851987418109,-0.0763448528203309,-0.1043394686190805,0.011772546039656221,0.03577451031271826,-0.0035944396260983017,-0.0887201024052469,0.2152374302742166
323.2867126464844,1.690887451171875,0.20725266078864518,-0.016675486405392653,0.06212258984934843,0.01578482521845055,0.0525643995570014,0.1964521616889224,0.2413470119227943,0.22321459578176941,0.021966883624784585,0.20947823448012162,0.13451662374836434,0.22362264307070462,-0.11135218791339759,0.16388841184950964,0.06941771105664851,-0.23919024055740468,-0.03540463786345345,0.0580988043823393,0.04758505664559116,-0.06962201822081292,-0.3169317613925248,-0.05088887345381799,-0.14377729912605697,-0.028034555764980446,0.10731775255576274,-0.10533153379692865,0.7574355355859578,0.05492652927998244,-0.008556500225333889,-0.08912481460439065,0.06919671435414126,0.12129228090205282,-0.17372163653906275,0.035572760507867805,-0.11801012556732776,0.03280001837688483,0.026391221362808862,-0.07512287071293249,0.11239958157370426,0.0027428697077992266,-0.06458203315100358,-0.135053894600348,-0.35544380887693167,0.2052128651886918,-0.3805523363571447,-0.0320921930947341,-0.03741866711562344,0.387204505608553,-0.19818572602931073,0.2064659904389854,-0.09844400784204993,-0.24857716396321713,0.04924599390410902,-0.27385543585042516,-0.03020915122371011,-0.07110447973155454,0.10599474739759318,0.1529643048973685,0.007391425418176445,-0.2289057459338446,0.22420756283578824,0.0732120124177233,-0.007281801346165664,-0.593485499076774,0.13100089597549236,-0.0238993230363233,-0.03797718909696704,0.06599234801563886,0.05312915307370289,0.1474537595159967,0.10583941354365997,0.20294972419166613,-0.010663067246209194,0.021047699699293886,0.026689418943024498,-0.14662132386811982,-0.041400093738023225,0.050956305581705004,-0.0028962063512160087,-0.08107781863067355,-0.007275196271189102,-0.059351210809549027,-0.019038312212936365,0.1414177727241321,-0.023853803050718946,-0.24819494247946916,-0.1057491944481833,-0.11126553621867531,-0.0665785183828603,-0.06681208917363325,-0.1572693504551304,-0.07770276806241973,-0.01048917689897326,-0.007940002859606136,0.005660184116996358,0.21787306500502043,0.052577685568359386,-0.08158937657643285,0.09213481559488472,0.03622641596888804
324.97760009765625,1.831298828125,0.02660360382720965,0.060936116663498865,0.10801396379285319,0.30872738358771473,0.09961058706678208,-0.0764253392635896,-0.10385528187318344,-0.27999977870238485,-0.26715136484087315,-0.08238247244434359,0.07099590613869058,0.23103828746870428,0.019688231143742633,0.19106289274712351,0.4076651021763194,0.26148806599698804,0.05286205879857221,0.07998357618748157,-0.13814830860703362,-0.03726264027418637,-0.20564073078618858,0.000601724992395013,-0.19349676003448416,0.03616210321154305,-0.051677897355355815,-1.1076807027032227,0.26937039830145676,0.37442777048400905,8.846610241958208e-05,0.013492210235087149,0.43646060767634476,0.22336310276427015,-0.014094230019024809,-0.6170936975760948,-0.5281474804058286,-0.10291878669096632,0.04140823664417792,-0.22798246962613652,0.0983506820377883,-0.3308382196214199,-0.12130311077418365,0.6359843694498087,-1.1865150004747695,-0.12084808704529972,-0.10209621430913232,-0.08826549557643831,0.23747953586289228,-0.09487118050350504,-0.6716044607615667,-0.11165313886671394,0.018382099000419518,0.03398751454627415,0.2609324025546704,0.23570671595706183,-0.07207529826774348,-0.3151265986939083,0.12368978862930756,0.02114962962223839,0.017949458768492632,0.05892426673443485,0.1133283703464189,0.07354590493957136,0.2893082298739655,0.15340616796849355,-0.01954808681626741,-0.04131273010671378,0.19332680499428467,-0.09191358626092025,0.09231792095287554,0.08278427476414445,0.14722821161919517,0.20480516206527993,-0.12924001283958422,0.08965419316791083,-0.031334210871964516,0.10546637080381091,-0.07108021697010714,0.011838655276110664,0.27702976817051944,0.1383159142906081,0.16277203381279176,-0.00045801581133710556,-0.11620409324277381,-0.09742669949387675,0.05678686251394671,0.06742950362048279,0.02976324641214531,0.12100658996717237,-0.023157048749756274,-0.02779378356470203,0.03737432587135422,-0.09127029758217908,0.01838098515693563,0.029167148804512384,0.11428006839629616,0.025898197379200873,0.032307311313722165,0.04768913942401255,-0.032059268825993345,0.05366763307188349
326.80889892578125,1.830902099609375,-0.0786950454765285,0.052967513068441135,0.05418771369002556,-0.03470649640551277,0.04422996745738768,0.047767806317786876,0.08418381828940139,0.20294138952280327,0.07957260672658711,-0.267396892487287,0.09701003553331065,0.12362412224285349,-0.18183204612015333,-0.4327010373510848,-0.21081162646418852,-0.17254929179528242,0.3229823957564101,0.06652929630762275,0.2664745213840733,-0.06667451283964357,0.2657005031306453,0.18924007739454482,-0.3456749018323134,-0.11642282115061732,-0.11162687188736317,-0.05440476302001937,-0.13917972195741385,-0.05030386414692486,0.026728014047057498,0.013928787991359133,0.20934824499813978,0.0644247496433891,0.027090029352758265,-0.08251446111002149,-0.06012398722673362,0.13109905689818277,0.18849316697437757,-0.21868793271604647,0.0134147804768989,-0.10211817690545728,-0.04495254271718775,0.1410758907653065,0.07901963659820097,-1.054319349587862,0.07135194368162076,-0.026572866793438607,-0.48125608010424376,0.12330548135825485,0.07290259187855903,0.08581743680714121,-0.045438746213187595,0.10487570626375249,-0.9212173289799476,0.28198760248017735,0.05592776140053929,-0.08982037844475209,0.06537377162540914,-0.11629569308986093,-0.022311781384283906,0.12047203605870767,-0.003428427599551448,0.2666406583580965,0.01244390550180544,0.34491147759595836,0.14331489184477816,-0.0632359078346943,-0.01205341522927409,-0.09558414003015189,-0.04004842936176549,-0.1513058777939925,0.048964459886020016,-0.04374096843160995,0.1922853946313064,0.02501463421151194,-0.06705156401605421,0.1829703067457031,0.03302551128357187,0.10144637004756835,-0.2755890683504577,-0.028668809470156036,-0.12464018109650145,0.0459689888987806,-0.08996891164600415,0.2030336815560346,0.0301050987626335,-0.01951578726844931,-0.042214452497569915,-0.06617378919218801,-0.05196373482018369,-0.014327078816904839,0.008711783346799942,-0.019627013821977325,0.04213922217627932,0.0711766576588425,0.03732907409367865,-0.24456930536927102,-0.11162426175213559,-0.05079885504629418,-0.026143685999885254,0.10961729256596524
328.6398010253906,1.85101318359375,0.11243586658094232,0.09827654147108308,-0.0721635133382813,0.014984549229148367,-0.028220659215429905,0.0393131005898514,0.18466803314987706,0.04815225940517569,-0.021134987892684705,-0.1538525174956587,0.08540996114885135,0.04851121342843285,0.22271443348596554,-0.07375886753030449,-0.1252732323557289,0.06603824630644126,-0.006616766002659744,-0.0622078619018438,-0.06510577683531547,-0.008079883112789205,0.15473559358950506,0.09708520223519929,0.0252487933506128,0.04704647484179408,0.13932337778679885,0.20762822834977082,0.07283421037739751,-0.0237565956094634,-0.04484560237944885,0.2652021481494081,0.0267203839915765,-0.060717155298825556,-0.07107416225514482,0.17311007408279833,-0.32658833735200343,-0.13359743563511087,0.04088378547905143,0.03995861697530499,-0.2549712776706996,-0.25780740399562957,-0.22102174234302305,0.2633765487236114,0.12376439814301522,-0.6027731325819563,-0.08553653309945736,-0.10142740870741149,-0.20755599378952588,0.271360956323395,0.38385810454791,0.21033755724292774,-0.23916908146583615,-0.04289816449981647,-0.16167840778274906,-0.031474494033962505,0.0662907399099654,0.17306179467193744,-0.3641742898309872,-0.3839915306236315,-0.26639765481530303,-0.07073081599282326,0.12708841415576572,-0.2053922916459237,-0.0583898883503009,-0.11916168093862699,-0.00022201103973973346,0.03616778357293192,-0.05067780258038304,0.030366725918577628,0.15054379856238784,0.1105276439725698,-0.1905566063995419,0.03802836791236629,0.22999452937119197,-0.06778358062834493,-0.03183148053133815,-0.21241897169457394,0.1549654828845355,0.08944829967858621,-0.16536065917389783,-0.10665225677969262,0.26520064281870653,0.21709545819664813,0.01071511935133943,0.28329400901759955,-0.08629020596443421,-0.1787797755134801,-0.09193829357807473,0.04381956960365564,-0.02802218438305807,0.07105847586224376,0.027328703783132232,-0.13122436855836075,0.07985990680380003,-0.013704717989789502,0.10867739962756698,0.04622669911861095,-0.0427436901696545,-0.02301105378327934,0.03126296394059477,-0.1564216652280826
330.4908142089844,1.811187744140625,-0.1507472771535609,0.07156585698797101,-0.04321288590321781,0.0315204028856636,0.12125057291725833,-0.030438483028972153,0.07495937350875433,-0.09177245550124405,0.16563958764759487,-0.26765695193072936,0.06887056047289294,0.2506602417285969,0.04865758113826202,-0.05609122296151415,-0.01974340460322086,0.09681593399112892,0.022823775835242695,0.2227079314743925,-0.35868583601935333,-0.10129932809946374,-0.3089231557927968,-0.1338585114773092,0.030357744316283485,-0.1363531439218111,0.15851608532660044,-0.1442201140106117,-0.10840552787176003,-0.2683165541091174,0.03556372038394644,-0.1427811568675382,-0.0911766330589751,0.22493000090846305,-0.005140429680101415,-0.07670142620776191,-0.03066335275455239,-0.2927638786314254,-0.2840409785751281,0.07555502673940682,-0.052986961487527816,-0.016270988226597102,0.17487584720822927,0.10213840059809627,0.25466921116425584,0.1354797105420164,-0.2927326555267016,0.19792273939568314,0.07676707232450392,-0.12278756250705138,0.16882373919414528,-0.06943155433350734,-0.25197282801845644,-0.21550021222605567,-0.3738408801628616,0.06555513380403824,-0.06153372906429779,-0.2815971316822709,-0.4170823365642545,-0.07662963858298544,-0.26972179551056935,0.039250026141764836,-0.014366359021492928,-0.3418035735787037,-0.0237549674776011,0.2378646383505014,-0.03239931774348001,-0.05950979489207341,0.10452920512313238,-0.011327258327396806,-0.10576331742384462,-0.030276934579021128,-0.052100457507860416,0.2022448954523983,-0.03260269097083202,0.1376636306442097,0.021129579598967718,0.19412505854416867,0.281774919271817,-0.09821396599907528,0.029490451318059753,0.008739995900307704,0.11664321050829682,0.0822225896071556,-0.02589598785004293,-0.11181905048691153,0.045866697852935484,-0.38579768483912336,-0.0937786648784247,-0.04527900239530921,-0.025732964944240606,-0.12177886850742389,-0.13758524285286955,0.03289870733007535,-0.10962956500495569,-0.0596075497124834,0.04205748282600951,0.06989016228650624,0.022580788785493133,-0.03159590584311508,-0.20203061642893116,0.10139813139836829
332.302001953125,2.110809326171875,-0.043799159859210936,-0.15448692664586905,0.035254186803597334,0.0652298144700031,0.06399238719558663,-0.21892922461056022,-0.11387804527014615,-0.018541056118631383,-0.102932164406122,0.06579877005354691,0.10732592503687255,-0.2024230564578829,0.07120849006235291,0.21275455923193645,0.043233716181303936,0.039507056782022404,0.039909358750616776,-0.045822190769712674,-0.08576062011315966,0.03259422529684691,0.0737682316502857,0.23407277693290127,-0.7051438261176499,0.059181958777414626,0.05182145264932582,0.2466602504011782,-0.714389760206402,-0.38237276748836724,0.1362711936315621,-0.8300076838348901,-0.18834541864940674,-0.3845196592194183,0.27236651485000846,-0.22623535418587246,0.07829277044973307,-0.04382789972095785,0.1536587810792411,-0.0493488500363603,0.03634000829657179,0.04717381416842069,0.033760184354073394,-0.032511062763875,0.20587105477404946,0.07550570680819248,1.2602919002820987,0.04447892535996889,-0.1291966746116616,0.05617071000801327,0.008122002529449023,-0.031144190580166344,-0.33770159168279495,-1.0158441817820987,-0.13591129524066586,0.03320451554308991,-0.017198852313730553,0.051192281598610764,-0.030396202946908892,0.1476086934478367,-0.29328226746881647,-0.12536114423821723,-0.33500864680365683,-0.6689571502627835,-0.26429463838216616,0.4652099723820028,-0.022106096842051046,-0.014086272557719137,-0.028158710848970776,0.027123419174697568,0.04325371832696477,0.12394073804900221,-0.13487366480711338,-0.03252967498886889,-0.22950403791360371,-0.17614821372042863,0.06725323411060188,-0.25940732776800546,0.11024373382013,-0.26696484229825757,-0.033178093837267504,-0.11251294246004967,-0.021447563856953147,-0.17879167123668666,0.1286387413164855,0.08968583675635856,0.03252705666724122,-0.0694638141981727,0.06220622133553499,0.0026053510170117285,-0.025373209608255853,-0.04303454088161894,0.04167901698004581,0.04900214386342473,-0.02694935423360281,0.032221819700298006,-0.14834034577588637,0.13419959527168887,-0.028421201989104868,-0.11759882796107955,-0.08937308323713944,0.14083545743077164
337.8251037597656,1.6610107421875,0.05373035735584507,-0.09092212680845639,-0.005712330253906666,-0.08223753408633558,-0.33468683706557895,0.030320348694859278,0.13196342478870143,0.1616514872810191,0.06939637778552013,-0.003532091899689394,0.05507177905203665,-0.04792746717949839,-0.075000159393265,-0.011228632305025429,0.010965146844816767,0.006725552520169473,0.06133502497382354,0.024394001292938755,0.017683426909473547,-0.061885223476561155,0.01587760084661146,0.17787029014421796,-0.13999100464025543,0.01760464978577,-0.0108310627165603,-0.026296979829219077,0.030853628928087497,0.09430677893957377,-0.03475270864042274,0.07086908100631564,0.07063786480540223,0.03697387502795677,0.08250220965323525,0.1574031930411073,0.0007489732268372911,-0.03970770847636788,0.005394765842647329,-0.001592256380344909,0.07754439334185231,-0.07200583259853854,0.07101203968998104,-0.02413447154439624,-0.27782482620059656,-0.03733659005781917,0.01459235593806392,0.4395963747203815,-0.1339162648208704,-0.12577192233922013,0.06416070536335958,0.09026118289502963,-0.12659200405329096,-0.27233257246774256,0.057562313446079955,-0.25710867164988266,-0.05732755229875295,-0.014486654457049192,-0.4652571032780298,0.21688203804932724,-0.0602221754676995,0.045000431736723495,-0.15823382584767615,0.05044596231264891,0.02738929753959732,-0.001197812798503845,0.05460468601157366,-0.04814783890447151,-0.31083198976444215,-0.020674122476702684,-0.0601422484184232,0.41276479704681684,-0.06975989923705642,-0.24665079009392565,0.04971751127060389,0.14334373694589472,0.16064517355817018,0.10677853193140767,0.12308216409886771,0.21084996508185683,0.044377683668403264,0.1560262925373762,0.05160898350893731,0.10787940177509432,-0.11762651501192863,-0.06543122272404164,0.07175152300983006,0.027313902303157236,0.016226911295941504,-0.0628842127486646,-0.023212639490280178,-0.018608131800485452,0.02236437066430514,-0.08792702468534762,0.0031892946216716947,0.01911448195282435,-0.16698972298446652,-0.006831235432116285,0.045507126398031617,0.016598042645266736,0.1556046215446159,0.020514455465968078
339.4861145019531,1.70098876953125,0.016629311103846228,0.00788500855827364,-0.016689636475273748,-0.1539674775489138,0.011039008128190107,-0.04262408404483852,0.06485899928896789,0.10314898175668263,-0.3553798294089602,-0.03662186802173563,-0.12006133524193192,0.017963654933821894,0.06430200412743732,-0.19448929984455368,-0.010986858918750037,0.049089995827386185,-0.1164491560555701,-0.1095076879628876,-0.02765590145604755,0.1620121604829919,0.008023136390636511,-0.10441071818459276,-0.04993674777871128,-0.0712952234326748,-0.10494002270087457,-0.0270061498030432,0.0706794568151719,0.08666033368409447,-0.07443811435047015,0.023080582741630273,-0.019301377049995263,-0.03565522790701943,0.16497587902267885,-0.0368437842267845,0.10497225923832679,0.03179300462423509,0.009031264036630918,0.142712475550537,0.009915150755483252,-0.19862673786155602,0.06281033814034713,-0.28206703397694083,0.1572108731785733,-0.05260390587565126,-0.2044475117206348,-0.05776188456458347,0.16967255054535885,0.22430470426051322,0.1515615829189481,0.053287853212525715,-0.0262514275479925,-0.03830329781573259,-0.014911760221130055,0.18371331348836398,-0.13377251556531883,0.09397911508670888,0.3567575198067264,0.0242511523364763,0.18617849949301266,0.049266332477654766,0.02022168897049403,-0.007485986545712084,-0.04329255361999275,-0.009197549827691909,0.029697411367392956,0.0669228011736463,0.15771771353362907,-0.0027909704867082885,0.08958614233144765,0.036784754270414874,-0.061679424568559765,-0.2445117567187804,0.030952453774156785,0.06865909081570536,-0.23876175673625877,-0.21300300677362988,-0.033631767214016894,-0.13632715129016315,0.01781683575811173,0.037268094867853443,-0.04435214076164852,-0.03930147099325307,-0.0012236962971414974,-0.03288084742606642,0.058297740690385416,0.2527181341347354,-0.07286803415007102,0.0443757481258899,0.015479109200875071,-0.07412762908583025,0.08486300935861107,-0.10239795760529956,-0.006802801232611466,-0.08496471557003724,0.02856960624531585,0.07691739907876345,0.007930383050631536,-0.02410244349218613,-0.06798917350565041,0.07053140620068839
341.1871032714844,1.72088623046875,0.06663316920444637,0.0008441898985061186,-0.0015612288872711502,-0.2868794962306092,0.22998617975947483,-0.03367395274791113,-0.10272186688764443,0.1259702217027722,-0.07981609877160221,-0.04564705921743589,0.11346782555228144,0.3035122144868408,-0.18622702803465066,0.013400743781380106,-0.14022007475423032,-0.0100827718243064,0.1779091866741995,-0.02932192909665805,-0.004977836746747713,-0.061705275595635434,-0.33915782728338695,-0.14735402782334409,-0.12284029578662531,-0.09458601296999508,0.04759658409709576,-0.17916094274488015,0.012006525138231843,0.022296491822999788,0.06045572737450586,0.0757513522098603,0.05140402523472825,-0.00782015821921734,-0.09419395512144582,0.01803083466288256,-0.010946915282213018,-0.003481639624637503,0.08872025982546303,0.16065948570323985,0.01693640608809978,-0.10626079604726403,0.04480311198056343,-0.13495135287579035,-0.18002034662433725,0.07384278441003483,-0.2837645297076367,-0.6283449258063202,-0.10919311573217773,-0.23721396995914873,-0.6413982749278606,-0.10325182006420774,0.15434183654628958,-0.15454906325474224,0.049224947983620676,0.08135525480798755,0.18725589345892402,-0.009024620656185232,-0.007999324536661523,-0.1428354686211224,-0.18830752765659137,-0.10263437962205163,0.05518713519594326,-0.034619123812138435,0.01591557998356457,0.2682726115916063,-0.00586000218408524,0.019639227054744787,0.09852667736940196,-0.11270005652683622,0.0929312595651623,-0.19271283694231175,0.013386062272841365,0.16941728449234994,0.043032709217868205,0.14507423492360974,-0.068394222033437,-0.477510211465175,-0.2541004127714366,-0.16090683661167532,-0.2692394886071489,-0.06050548364135605,0.0416949339668382,-0.20627984973854796,0.10119551819504605,-0.08312112021426352,-0.05476562802000604,-0.08612977322313077,-0.0028100101694841385,-0.03829255490857138,0.00718864682005833,-0.00322819405950034,-0.015222160917296293,-0.01354956070137613,0.02708247039748281,0.12647088605846754,-0.05374964823116509,0.14741196533798326,0.14870910083992334,-0.11531218845054286,-0.05818522453085458,0.05961560539293594
342.9079895019531,1.681121826171875,0.05355189673328756,-0.09316314213934303,-0.16514729601205635,-0.017347466778524646,0.13751598510441237,-0.07286976663255774,0.09283750461611401,-0.10054372639159603,-0.20324500023365957,-0.23311966112009183,0.24186524248815738,-0.04363173044425616,-0.02162903120137144,-0.06410029792481516,-0.12931318106119696,0.15130837671936959,0.10366705388742746,-0.025746896641420536,-0.1393922644353383,-0.01686530107294877,-0.013801997807802925,-0.3124084863012795,0.05188319832272335,-0.0642905362199043,-0.09140021616318093,0.036733510422732665,-0.01861363509543767,0.06181184599599726,-0.025043353859745394,0.030790990772895377,-0.007836909811391079,0.01637855280346906,-0.07879453004935773,0.042872272980813066,0.14941234435353412,0.13583922853385333,-0.2150500778826108,0.03574252826404331,0.016609284925770972,0.18244276156983918,-0.08984461838914864,-0.030905115272010217,0.023264754971309365,-0.2049318104232432,0.24544991762336082,-0.1853972559009747,-0.0873042575891011,0.11571778204654273,-0.03528047506838547,0.09319789980222663,0.1921105182307214,-0.10038171693656738,-0.08292567820901978,-0.09690310367446085,-0.14414100349342618,0.14165682841987637,-0.2543066315970602,0.04481564693601831,-0.09898199849811702,0.18153714056302694,-0.25771616197376185,0.038113809211947534,-0.1704086641857508,-0.09569726421702497,-0.2284319430261833,-0.12130274222614366,-0.06747011709838643,-0.006138742096523584,-0.0011505469644310516,-0.015789313331099813,-0.016530341586777055,-0.02222238634736424,0.02158172458366184,0.08133525634694562,0.09784580172258707,0.025784227344827076,0.126487892720385,-0.05839562861481225,0.25416439096100607,0.050829244571720306,0.0859994381916247,-0.22825741322768153,-0.2537297428800002,-0.013502036457963731,0.024602952599209735,0.06462444409884592,-0.06577306829320838,-0.06572226479587738,-0.015060251473508738,-0.060944430356886244,0.02103009168818389,0.035713922697936266,0.17074901638455295,-0.06781454281327973,-0.13161681700055106,-0.11124183496512562,-0.17239115588343995,0.012593330668265878,-0.05051203815541537,0.00940593229720105
344.589111328125,1.750701904296875,0.012335452480295009,-0.02285370298258374,-0.0710213820687639,-0.0076133415155621815,-0.04893035117006705,0.24097226468148658,0.038159749504462555,-0.004166345790028975,-0.24746822542314897,0.08728142977775105,0.04601967888646193,-0.07229462185790687,0.05405568463660202,-0.026378727810336688,0.014427416234615645,0.08150990761130461,-0.1610500207472481,-0.051623391946551245,0.03129270217984822,0.021401354704245455,-0.045218466118346595,-0.01875271580603308,0.07951388049975662,-0.19784096262358888,0.025985330529626066,-0.014725186015872603,0.06297016237455695,0.003498421321234566,-0.19301509428975383,0.02408036980674048,-0.03920268720844026,0.17549459636779746,0.001961927688804083,-0.07255308449699206,-0.09761709394640916,0.2126924353359681,0.016617958590075067,0.20220291772436555,0.0026042180226702426,-0.448342930914096,-0.05546566775865707,-0.024919824745200256,-0.15303731890886726,-0.03793998017617418,-0.122154171861614,-0.24875769144584567,0.13993519951613803,0.3247775947325676,-0.16069153685383508,-0.17907792474754058,0.06332830384450264,-0.06611772010200964,-0.1546299269527856,0.44794048069664205,-0.35804508450129774,0.018801728602183654,0.03435215679587705,-0.11688046793302985,0.07771141905542787,0.01689868494915121,-0.059964994688198936,-0.005235670731460473,-0.06087337165419801,-0.01739773407309403,-0.04914346204168259,-0.007591762996269973,-0.003942547908635305,0.053856234095443795,0.14547844803955778,0.009240461656154044,-0.25137746776300834,0.03217382042565233,0.10783929233907524,-0.03207672012064712,-0.07762363353456105,-0.14129976294378355,-0.07295543930036515,0.17619185152122716,0.1575234352562842,-0.03450477346263395,0.2765725064038844,0.3418423546687362,-0.1267294062910487,-0.014135696630926023,-0.044703561632018454,0.05881220816875643,0.08088899548868497,0.060444271910542705,-0.04528187483429857,0.04903924422318461,-0.052092190911410596,-0.05168487980143669,-0.188779987565815,-0.11215691454139007,-0.003524644119043311,-0.06370948323996711,-0.009800421813671432,-0.08729178594961318,-0.017231936231801394,-0.0011318494854833851
346.3398132324219,1.891387939453125,-0.0053965397930407066,0.034917913951275664,0.04264725870515837,-0.0502090024850325,0.03410674422950271,-0.10767992158141805,-0.30986051986728885,-0.12031507930947158,0.020633269598240408,0.07955138905876538,-0.13173461087393995,0.038039025490044925,-0.06769845090479534,-0.011696011740148823,-0.1319399251653405,0.018892534679967588,-0.07944869351038432,-0.20765558786860927,0.09558179365787782,-0.011211904313199891,-0.0425488714049183,0.06059935916512627,0.2001427144817453,-0.12737276320397925,0.013890241276212764,0.05835845056038831,0.09904685677754203,0.016496339190485387,-0.14936699727738878,-0.026812621175812873,0.12538482645613536,-0.04938593729647258,0.017193342153892177,-0.061515016292969626,-0.014924629511136796,0.04416577614189716,0.04391388492711883,0.18334015710686072,-0.08099870443173125,0.25926871948182956,0.07364631925342381,-0.11899335807696806,0.12060406043857383,-0.015558771557426972,-0.12124507222708249,-0.22081040194532037,0.0026662896176123385,-0.06732785642220432,-0.058781708692230455,0.05994301815543315,0.01675427973706266,0.1517033170615163,-0.10555873014520109,-0.06144393965599508,0.10918848022025537,0.15672058988308232,0.017122091191812107,-0.019479711411801246,-0.5102695656863206,-0.13225941807404223,0.01517152796566707,0.0037291219688314445,0.009385313340085018,-0.002771863612168876,0.09757953028405833,0.05528324296840173,-0.023961769239196636,0.06418235552151721,0.13697862411924128,-0.05973814697514199,-0.005517010627685094,-0.11345047161793129,-0.10206508224947176,0.12913142946216932,-0.02905598087804339,-0.029242996622271464,-0.019800419756796972,-0.04824638953531424,0.1153089617579501,0.10086712646222928,-0.17624431186388112,-0.019297443942781684,-0.025217916908592243,-0.10201734992917572,0.1005630938798996,0.045912018344950484,0.10740848354022921,0.1744719145134259,-0.04413137958708888,0.023218794243875872,0.01948781449724602,0.07191360243137733,0.008874882220601546,-0.11054315520118754,0.13600664684473313,0.0936184551653633,-0.05289348318211321,-0.020852801378811174,0.11085625968892376,0.06669559422693963
348.231201171875,1.730987548828125,-0.07971511543318147,-0.1338083012487038,-0.016612779819066704,0.07859127745623302,-0.21084442959957395,-0.08830048634251579,-0.018692661401429507,0.2580155884388785,-0.0846935897177449,0.029478978248105366,-0.05140451585623017,-0.19568582619771124,0.08584650640207056,-0.1561972547938839,-0.13328426589305759,-0.1267590048294268,0.13296863785519925,-0.061350499845297876,0.06329390949695114,-0.1261469626894529,-0.0647112923827733,-0.09760028402712671,0.003867464600360843,-0.018418747515745706,0.07971378108748048,0.12071106575897936,-0.05587978241758097,0.13442259793401304,0.07472252855304415,-0.04919661294891031,0.005620871819700245,0.009207949532359648,-0.07134952214206366,-0.12469609137778476,0.11277670400020066,-0.08815038121077735,0.0017330722306394006,0.01466533517039644,0.018722228337195498,0.03625816181980813,0.11373430746778768,0.0065203671141896985,0.08670540857786924,-0.005071838064167292,0.2005786344745643,0.10328811532006774,0.04005461810518192,-0.10901886945232975,-0.04101183766431681,-0.12663611106182987,0.25654193610082965,0.200708947742223,-0.04966880858320827,-0.44627796359881977,0.12196694179462082,-0.0927499268427051,-0.1791425391087084,-0.11045034105604558,0.011203392852012916,0.09720510996165466,0.363494440275728,0.07730847449079868,-0.05372525612145148,-0.09560798581177597,0.040044750311263005,-0.03486097461868181,-0.024803195677692208,-0.140361280946443,-0.1176302835099183,-0.0494268567425737,-0.00919389621455935,-0.06473209887581745,0.06164364892939342,0.09852934642519975,0.08784599348987426,-0.012419825366959205,0.029951795949904804,0.10472410869077228,-0.3056521714945255,-0.09466837316021738,-0.03338992473528137,0.011563198116467693,0.35390405728024815,-0.2965649488351082,-0.1371568207987043,0.038781973920050165,-0.010473856897629065,0.06959255494589682,0.05910022155532786,-0.024489101570718836,0.06517639497725705,-0.05043585455313139,0.06033899024348312,0.17468691319899862,0.02100719709149682,0.09400831365090939,-0.06457353150008349,-0.10483469637560183,0.000983711808200699,-0.024433361022468597
349.9621887207031,2.071319580078125,-0.025115387261159493,-0.06638491084102553,0.07452299197807605,-0.07531969565082601,-0.06697449711947726,-0.058527895505982315,0.10549092105778177,-0.20138695820226465,-0.13141992135720804,-0.05817021325977295,-0.01599742556412848,0.04677303627372565,0.021585554361615515,-0.006065137602778506,0.052131801486364336,0.03846191618555548,0.05614215662575013,-0.149386220118629,-0.0007031264658504336,0.002080187155229514,-0.22128073535841253,0.017819522146410815,-0.1099269353736384,-0.024765951249348522,0.1240878433185566,-0.0436840175053481,-0.37742589057812725,0.25423096094656694,0.022580830063868882,-0.14426567811479626,-0.06023194813840892,-0.10312353995738949,0.20736435898033279,-0.07716411839176444,0.006555365549105826,0.1274320106466784,0.13108276094742594,-0.017655286234977752,0.0036619060978181905,0.05563938297093513,0.2809697093707803,0.012194081242877783,0.1639233775956625,-0.19791975317239333,-0.09599688481648296,0.10652893048103557,0.03350090313221616,0.37671405379350986,-0.11766392591739575,0.2547254137374344,-0.11365092616270674,0.029369755946784256,-0.606709133839996,0.09763503904306532,0.024433802213653183,0.27962241540426264,-0.033595464661566314,-0.14285761399696645,0.07341524918503908,-0.16177537446492213,0.05983386086613653,-0.2437394354795382,0.05067875962150422,-0.04891504925103101,-0.044613695342544925,-0.06791666457092391,-0.010015729389808926,0.04043069681578475,-0.0996799501673287,0.2702898724643342,-0.12556455633658004,0.039122739307312845,-0.13718320036565967,0.14892695508654838,0.06217762237711858,0.15618877270309547,-0.14816445933816763,0.06294332466768329,-0.35612055237717255,0.12448685213891915,0.022860779011445197,0.11381690347977615,0.2362562652871976,0.015462891077003185,0.12230542397293054,0.07008160069428812,0.051444793729165425,0.16783715159737228,0.10614147375416323,0.05947628559445896,-0.03267726829841926,0.05529255645114757,-0.031033831203948745,0.026267214686301006,-0.14858971693423179,-0.08343398415448745,-0.11345349260899756,-0.15418718192665035,-0.0537617978427902,0.05249914750852007
355.71551513671875,1.811187744140625,-0.18927870386580137,-0.04693886581658595,-0.04780065286590755,-0.4339358826603869,-0.13698095583220263,-0.050639893812300336,-0.07292360703698834,0.04753011737671351,-0.03070622396591236,-0.03186976979445391,0.010875278214652503,0.1096822697253784,0.05766367920727255,-0.174554672141316,-0.4169597083612692,0.17154657324135142,0.14547760897571116,-0.4297986938374293,-0.13971757361300594,0.5812890087471186,-0.08248763589585431,0.056653544534629466,0.26993226650752145,-0.039193237633920956,0.10974157616816183,0.10887594422218988,-0.03667464185565077,0.0724324226797314,-0.013073153811567415,0.3679528057578184,0.2573796135005828,0.10902808339783313,-0.04670331693540915,0.07890924923141973,-0.04029161064818485,0.19281564009460767,0.134811091029932,0.06057726270378666,0.01546461544532734,0.06069554002892001,-0.1769055188222357,-0.05350678345679722,0.11092780717416605,-0.08165522482102396,0.0958513895212446,-0.04312173949469892,-0.04365217563630744,-0.13936741401583985,0.2636310586127012,0.03608539334569691,0.42286558874376723,-0.6045762323457387,0.1535467587291628,0.3215125639199662,-0.13562349684184222,-0.20368181909333918,0.19968897086573692,0.13511291209625315,-0.026264587192317092,-0.4029903168219452,0.08285994852625776,0.3314955918992207,-0.07652335248166586,-0.1301022352696074,0.1331748194346934,-0.257772236442616,-0.030564682050967726,-0.15485191449616803,-0.07121228881546077,-0.008208476790915062,0.08114734227050492,-0.13860131483107457,0.18893491074233415,0.08106591435280663,-0.22548820353060953,0.028575287194318042,-0.13221585491876187,-0.21102648181642544,0.04726224219374568,0.11836049750159054,-0.032568185986348336,-0.15234517663395974,0.15920375594774308,0.026403541456939874,0.019257678629448688,-0.058919056922862784,0.07287689994710041,0.01826049719098001,0.14229517170679792,0.08509441996125414,0.09014557128266959,0.08996628359278638,-0.036085875652705345,0.05466379354962626,-0.0008867904566947043,-0.06093883750245054,-0.16963775327045366,0.004330713768739381,-0.07997839275474956,-0.049502051539929086
357.5267028808594,1.881103515625,0.0735229134200524,-0.2605128596491709,-0.030179866906474506,0.049235773827112216,-0.014361876290931216,-0.0027552533509625637,-0.006738817077484019,-0.034301800758173136,0.13194344553472892,-0.1375452601265682,0.20879350226484886,0.058843377285889266,-0.08670373636617028,-0.12060073184877433,0.14131667824733898,0.07002025847326028,-0.0890765490605936,-0.149032741882792,0.03589154991345367,-0.2284885074689982,-0.3906216115040369,0.04526715499496312,0.08318702739530398,0.45316036822110156,0.12259384260875682,-0.21344096796678005,-0.15340488469413072,0.010731655209153744,-0.12428567687164448,0.0896354484783152,0.0424260749557902,0.03333817981837754,0.18552310328200683,0.2937814051468377,0.32532939599539945,0.0715046996277687,-0.06811366421149276,0.12838363359697832,0.1056513650643184,0.06842321457470832,0.09633698443254987,-0.024534713449632803,0.03626472948403831,-0.09474921889337455,0.36385294822938224,-0.030212318184430778,-0.2577146792895035,-0.1124206554076419,-0.012897093826349425,-0.02333021653219329,-0.5691872612175974,0.2569668671970284,-0.368251436445013,-0.2546016537144597,0.04393228295578999,-0.35783431066904525,-0.06237496487721527,0.09312973596534077,-0.3427933641635248,-0.21395160874766894,0.061762635448446755,-0.3530649898283243,-0.021179299369319206,0.22304595626496176,0.15959586907259454,0.2629765657043911,0.017704896163828712,0.07106085294001221,-0.0854233433632818,-0.0036908454558231135,-0.0002055814944223332,-0.0033692961491921594,0.2638107573461616,0.20117445799886005,0.1266510298525423,-0.09379273823985611,-0.2748331772758478,-0.08336997513298235,-0.017742425751176957,-0.1318443749722808,0.12687181519624446,0.1704136864524093,-0.03910668618717094,-0.3018759855333528,-0.1791090566590356,0.023858145707675516,-0.129935012395507,0.1269934919261748,-0.05361078694986579,-0.27535031203763616,0.036093491239124254,0.05190666676923767,-0.011638296467752,0.14630701072591817,0.0277780877681848,0.09759045192815248,0.026199178977944857,0.044326907828414926,0.0569850095519578,0.16537998480943045
359.4078063964844,1.830902099609375,0.0136751602330073,0.007371253793948822,-0.17890118109877995,-0.020134238662144407,-0.006243588384147772,0.15997253686530835,-0.37666807944617664,0.09397130360473638,0.14898005714752927,-0.05456671520900093,-0.06198033808932879,-0.00012100624462230754,0.013003110032183712,0.08957465736714619,-0.02074957874448773,-0.03044518681324033,-0.1463542488939729,-0.022569471966222804,0.10206542139930055,0.007856845828631148,0.04119069656793481,0.1418007210912543,-0.27432085232337633,-0.1989964396308675,-0.06502634741154514,0.13379910468540557,0.11001761554099355,0.0020097297325654614,0.2406724913657855,-0.01809939448458565,-0.09924307996056284,-0.05543232308975447,-0.04527708487504317,0.1268049479675209,-0.3358534831587821,-0.2133167892975524,0.04732449792191515,-0.11038800297540301,-0.05007052815859428,0.005537610135753384,0.10119725095103514,-0.028912799783761725,0.1934127244319263,0.036216771860872354,0.11022705512899002,-0.23717494310571247,-0.03439371260268887,0.11018241416493972,0.00794608644780375,0.08456476798587757,-0.24234023909356725,-0.04123455922024107,-0.30332395779807403,0.06799112304808506,-0.00639410606718897,0.14177159432579056,0.08893579587396513,-0.02673573755931906,-0.16672671858291307,-0.02870231562062325,-0.047311092942749274,-0.024847011254565603,-0.08972801575320706,0.3981731371433503,0.1658887530366615,-0.38470691646845695,0.23837928453426696,0.0875844863582439,0.07141314466325793,-0.15897145571056928,-0.033985432783017924,0.12439904237748739,0.11886423514558646,-0.0015157292988791649,0.19489846463992683,-0.19145721210883487,-0.14816540601750405,0.04153502627277241,0.26155946812391245,0.09630466857019981,0.032017450761722625,0.04172250302690059,-0.10616850535418502,0.030742478369507813,0.03185547906829092,0.005349443430444183,0.0867223541420751,0.10125929632007868,0.09885892912674733,-0.015228133055130502,0.051223427355097655,0.030686107130530285,0.021140195537099206,0.04080106416567892,-0.10536538162762431,0.0020965110200595683,-0.07725130410051621,-0.02146183428337805,0.03605710794897835,-0.003775623148258675
361.23870849609375,1.831085205078125,-0.011026096530778622,0.05725604503586491,0.015478252118990472,-0.03888384438833238,0.09426585602807343,-0.13151076451584914,0.015100902995892338,0.22506870650853594,-0.05990337708150046,0.13263901364026115,-0.19921413700417337,0.03679187110148846,0.13212869406586536,-0.027821443981382213,-0.2264802060502219,0.0611528129346989,-0.023054446565017324,-0.34370097223911944,0.06052011972684154,-0.6476281635919319,0.3891356524527892,0.029264652355109978,0.17409631700233957,-0.08772959897532873,0.09962673260085174,-0.037031498965177906,0.057468644126109955,-0.10252143897102699,-0.08887921088208256,-0.886162745895166,-0.2208865091233572,-0.36026473817585764,0.4805072060547071,-0.10340886253311594,-0.23605841433528843,-0.17734165767358015,-0.05704641694078429,-0.05278153796671754,0.5384680570767448,0.18839332183933538,0.14585908710532788,-0.14864101763056775,0.18020619810349647,-0.40752784935151837,-0.16340220556487206,-0.2822150215141116,-0.04196830101873408,-0.05016764427699764,-0.07779919341482992,0.10811350565027045,-0.05338786251514102,0.05748170308022456,0.06024890323175945,0.13287812960320772,-0.0004764657006161657,0.5122609251972424,-0.14017633776804822,-0.09157518336034233,-0.10851292892954281,-0.1305273910450263,-0.011847933340940732,0.11270564292505382,-0.027603350456386497,-0.03557539762094963,-0.10164092939053972,-0.04320146534597202,0.04038212694566265,0.024147606050391898,-0.044164933151630476,0.012749032422955348,-0.048084185952031434,-0.12940727845108327,0.2298285778751158,0.09541798694015752,-0.4574783004663189,0.1690652512021835,0.009212214303171339,-0.22372409445227706,0.000447527841852805,0.19155571314669967,-0.13155824370930286,0.0202209256159544,-0.0361755300813761,0.04188419174543277,0.009367135790361084,0.0079021527146806,0.05384366935961182,0.00785984173939868,0.08222033978878802,0.043728740280735534,0.09980992236746229,0.01637671416631746,0.07017792378676554,-0.003989395793922428,0.01361478362889539,-0.009670750544718925,-0.09153396340723532,0.10812367643305337,0.02849163388462945,-0.062007250527761834
363.0697937011719,1.7611083984375,-0.06519856669399249,0.026837095364097494,-0.1544428052835873,0.10291369110025267,0.07910707204391568,0.02119197915601663,0.06905739988588686,-0.3031964193347095,0.19127954192069677,-0.10391806566755026,-0.2949852722092767,0.09371791766287571,-0.11340461328630813,-0.09009035032662925,0.1112361376630174,0.02272198098113505,-0.04638927875096059,0.11129754072008465,0.23033626821901473,0.03706171776645466,-0.12318574311715702,0.3613643107198132,0.26970046079819565,0.34407437142524244,0.05919395156873838,0.264702817743551,0.28733047013536933,-0.4881940282806678,-1.1114365732625342,-0.12165831224703472,-0.007047353234755804,-0.3381801959106595,0.38769060707172737,-0.0038599312246692663,0.2072254479471342,0.0378209370893283,-0.13542824010494103,-0.06533975267255104,0.12595733919975236,-0.06483950194119564,0.26070976000144575,-0.2105608723617,0.04445684271187922,-0.15337289423263112,-0.24457338987370025,-0.35653488282637114,-0.13366497534838273,0.08492139061996662,-0.33461609800681835,-0.10297623164083088,-0.027162398455632716,-0.05362218630778387,0.06273699210902518,-0.015207767694175076,0.09935055707311966,0.13239619990594428,0.13617565200957277,0.006237767764922548,-0.23264899021898716,-0.1703579814288297,-0.03780974970108001,0.009808605578125695,0.044697455787845994,0.060503937371529294,0.08705233208139021,0.0011470445296051163,0.007145423705648014,-0.023830072051777985,0.022568606040138623,0.1072817607012741,0.015411689313144699,0.17837376452480136,0.15027688812918932,0.047628373999234704,0.021748741280050277,-0.0751784071118611,0.07447606840730209,-0.02632867074939886,-0.08747855274166277,0.02345677383350827,0.01234853609076233,0.129641684448682,0.07500103035037968,0.007658015687969496,-0.039437608691368246,0.011355168803916516,-0.004084545668631935,-0.01970603528299086,-0.030630196953698504,0.044475339264453295,-0.003367229454353078,-0.004645735042416046,0.038741652096715054,-0.07138779682359131,0.048136892680964195,-0.10132639806566188,-0.11068846644261005,0.10521575243621437,0.02178988806575988,0.0006027820862756807
364.8309020996094,1.79119873046875,-0.001335319957718779,0.01104589455102935,-0.05598909469230472,0.013939676103210372,0.06664546974821409,0.011946289899252335,0.45207749389685464,0.06449832628733781,-0.11342143932382286,-0.2447722257991153,0.02068557606202644,-0.011127551378429273,-0.5914414555602673,-0.2775540917274381,0.014540171565553154,-0.029543177206474557,-0.05957350631627388,0.1132669447511217,-0.20760478626418394,0.018961138529948553,-0.03223859758954856,-0.19489712187681243,-0.17076280259485313,0.024710685955979972,-0.07590843436021392,-0.008194006574506758,-0.058289349847650884,0.006763046057797872,-0.06560762789431437,0.08435475483950874,0.0807600648980657,-0.020826085814720043,0.1187218683103781,0.0775252397504159,-0.023816909469461613,0.08299877341501817,0.04058368965062415,-0.0529392062459218,-0.006822848877387072,-0.22467354993490968,-0.24123983507789082,0.17131679531522673,0.1663249698858525,-0.008502276817929012,0.013168971510208504,0.17631317858044263,0.20309789280859444,-0.22481923119739747,-0.04655924657464777,-0.034573984713296264,-0.2042017019341304,0.06313288687206914,-0.0408207978625461,-0.2898353682250925,0.1185914713359431,-0.3031105404397792,-0.1065312796429284,-0.013184242939353372,0.04446717950769863,0.3665512841849028,0.11963191774318173,0.019906000000071714,-0.11192095835877901,0.05754873514009697,0.059927139989124106,-0.08288664576775218,-0.08837525776252202,0.039046673517917574,-0.09844347272394795,-0.22233136948355717,-0.01397502721017686,0.1355744284516617,0.017474823589804817,0.0892034599636335,0.053195499017009304,0.04128660798516409,0.13558476173294626,0.3012234572477247,0.06693313173054476,-0.06077819497266858,-0.07332781750781348,0.0647000387284473,-0.007123817348967427,0.12879318193274725,-0.00542708860645229,0.08180783131440322,-0.10040578598393377,-0.002765602810513484,0.06753930182592055,-0.11098489126837442,-0.041297656352167686,-0.056408416934898786,0.01403006437368437,-0.034606137066385156,0.01382693912185615,0.09441723029801256,-0.04625029331855465,-0.08875822017557233,0.0323993870137451,0.15728548494022654
366.6221008300781,1.960906982421875,0.008606587313457426,0.040423519025188946,0.0517360517694394,0.1276794567276441,0.0790488544352665,0.028100130519802216,-0.01425427391091814,0.325170197861931,0.07920944697966857,-0.06427432155205566,0.09286408853098299,0.16163865458485624,0.3138276904239545,-0.07645036463805648,0.7131281929338464,-0.002085815808495012,0.009262492238384795,-0.2918644474286899,0.13527644661184318,-0.016287140787078682,0.14957099606945412,-0.2434817415561646,0.06244197106823515,-0.00668927531339511,0.07939105494555954,0.0990306811466567,0.11654834126908253,-0.019738867938278355,0.3661460532628715,-0.15482526635923505,-0.0422920491259719,-0.05699381367011682,0.1547670082411914,-0.17062033965017545,-0.05966622197699858,0.020567178726117404,-0.13967553386160492,-0.03503999326295566,0.05495292156413082,-0.2460709245422706,-0.0829271425186218,0.11460920993755275,-0.04441600230451444,-0.08514605795029923,-0.03967222722065445,-0.1662515906196667,-0.4744870318345829,-0.1024425976696466,0.13217242066557944,-0.06578182301197616,-0.060408275234239854,0.055575635587578553,0.06714756875611143,0.1786905229707595,-0.16819676404195308,-0.24836650033202462,0.5982329260417518,0.046919273728023625,-0.2818950701553745,0.22463262752784957,0.07629855310356656,-0.14730799557536117,-0.2686285301770468,0.004564149866715078,-0.008534027223789768,0.03607556531846375,0.027351000037667446,0.08402759855364232,0.028206846768057264,0.10837345845479471,0.1236875758124306,-0.01708985563280975,0.05873719195776153,0.09226979245795797,-0.03613105497126831,-0.04886535166774289,-0.10874443924967205,-0.14064746199322284,0.0017753438344249289,-0.14164175751983418,-0.03734206037936673,0.06291066763869861,0.044482980689830046,0.17376562150305935,-0.06894464611777697,-0.07101219126973422,0.01888815349193356,-0.04229382211288156,0.0212394322037222,0.034300336686478625,-0.04384117641080572,0.050196968004634884,0.03898806803091553,0.00450125660791405,-0.05400165936398344,-0.05450364162585803,-0.14896244210272433,-0.13096387473962412,0.1388000960315029,0.023266717991394147
368.5830078125,4.182586669921875,0.02489335072883458,0.13550210161170262,0.020986926546646124,-0.12172700757518883,-0.06820341029389847,0.01919044650101778,0.11593164378420283,0.11946794260908511,-0.4350100418844333,0.055066722413619776,0.0021710454220921858,-0.14314742089580756,-0.10439640441495095,-0.02243509843831178,-0.04718800628707536,-0.15415817263471826,-0.10446017727518075,-0.028463305171430472,0.2054423208052824,0.07639512299513798,-0.217219934385648,0.07996978046413784,0.2393757289140218,-0.12653859005698387,-0.09594128800231191,-0.05850884293906498,0.02938709756619588,0.04386506855921314,-0.2324493117078405,0.04893042911376903,-0.08641816933282775,0.18846181728226022,0.14120890030791347,0.3232669737407956,0.09009147587330761,-0.0510829991822392,0.002684565069086661,0.01253081561083973,0.36863436243098424,-0.1722411701449194,0.04406652514589411,-0.17809365870846186,-0.5387750455395117,0.08144177578257455,0.19433813496614738,-0.143369696377219,0.19852901063473372,-0.08237241448542248,0.049291977812662306,-0.28604977160338557,0.3636634694237717,-0.7098155496165343,0.1765645732817363,0.2664129898228631,-0.044612158065795965,0.3879103029027297,0.49649435309470913,-0.04765170259968947,-0.012142146568839721,-0.06144651271036321,0.5112774869372407,0.08876509961102984,0.04525201062648648,-0.06228507532607255,-0.22677328920557305,0.05027394665493102,-0.1068944078380956,0.02770770569881363,-0.022254382498504727,0.030552367050933497,0.12289349517535025,-0.10106704913227368,0.0014303032246631153,-0.0763336628773111,0.013580067024231928,0.15411959966939953,-0.14711675979170766,-0.0520983336421078,-0.016489099947979945,-0.22914185789657482,-0.051787987514762865,0.08028532382830054,0.015621670523788364,0.05436338668422329,-0.02431182520666774,0.043583386337936944,-0.1588175720867189,0.0014095012744478885,0.03627844789296362,-0.056111103735846754,-0.08876959094759698,0.001329545957841091,0.027425030053271217,-0.05548361443644009,-0.044063905304553494,-0.07023516466783257,-0.07591750702315389,-0.08445451417409733,0.02307056671529841,-0.04741399004045947
376.2774963378906,1.751190185546875,0.040912682813724566,0.021923491247288374,0.09944396562876487,0.08351723780035829,-0.0050190808944431614,-0.008913625089341777,-0.18224799293080962,-0.3377521334229915,-0.1580817916134339,-0.006185501601331949,-0.14540096160295593,-0.06755427358860847,-0.21284536007949406,0.07125807751018717,-0.028315449126651765,0.05741848092735064,0.41757718412640105,-0.036186142880885265,0.09317175252653545,-0.06169738434911762,0.07324668289356377,0.07513366910012176,0.058488140463015974,-0.13023851317218255,-0.46302152151947407,-0.5739390324366607,0.10613044692405088,0.09848997353986193,0.12316760524839224,0.6034360674253054,0.2381271234718324,-0.21752620210150198,-0.1717525254723974,0.14153742290163898,0.398040040304619,0.5659330141391984,0.13768618516038822,-0.21612100455013114,0.14444231611894226,0.3488630238661318,-0.28178527637343914,-0.17462055139541835,0.2757894470763501,0.5309436015968332,-0.4352098782477586,0.049550352113599205,0.22195057130693369,-0.18880496407969932,-0.03173431050105093,-0.5511722637188896,0.25373560993352456,-0.064509230289112,0.19260521477982617,-0.11966785256840407,-0.11589076386656941,-0.23960528930663258,0.0848612296554764,0.0029078067458040285,0.041560885650287566,-0.042723959245189506,-0.03171029762822122,0.033082900614481756,-0.06471334314105447,0.26917000917156786,-0.08008487292630419,0.014815249791523835,0.00519273188307047,0.10481286508762176,-0.029126021224723703,0.11304846573533917,0.21488083168656977,-0.1456142196355196,0.2577671115694265,-0.3687850615499611,-0.1510833800632278,-0.23110410448132243,-0.03576743314424994,-0.24435143446887403,-0.03805662394610418,0.06977391476290863,0.13810840057860221,0.0013270094910310735,-0.06260272028777798,-0.13203368084655687,0.022162020468284596,0.0264296578813851,0.01050526426131973,0.011193859109408545,-0.11159136183035713,0.10128448763659516,0.02067088361891256,-0.034354435693706595,-0.06462816785752308,-0.09632252892985126,0.0025032195414998186,-0.05191680660948505,0.01845260397106692,0.05816663546274885,0.060941971584025596,0.00376035260447409
