start,duration,0,1,2,3,4,5,6,7,8,9,10,11,12,13,14,15,16,17,18,19,20,21,22,23,24,25,26,27,28,29,30,31,32,33,34,35,36,37,38,39,40,41,42,43,44,45,46,47,48,49,50,51,52,53,54,55,56,57,58,59,60,61,62,63,64,65,66,67,68,69,70,71,72,73,74,75,76,77,78,79,80,81,82,83,84,85,86,87,88,89,90,91,92,93,94,95,96,97,98,99
293.05389404296875,1.307891845703125,0.0777045643457134,-0.17462495286611548,0.17036255387063598,-0.01653261610372833,0.14518974524893463,-0.36240018387217815,-0.2125415368474978,0.11544813745273552,0.16554593935148298,0.00770897860021931,-0.026520872175911432,0.0444140672792413,0.2808071305643774,-0.0006986639467173282,0.014210560270490665,0.4303555924136189,-0.19512349376737215,-0.04342855585191127,-0.033492917900823774,-0.00963276415451178,0.02104153673472393,0.1669975557408278,0.31274657795489924,0.10759215879050729,0.14990296799532146,0.01137122541804467,0.03819966760539602,-0.11111661328177284,-0.0291238296950094,-0.022824919232713334,-0.4058132329111167,-0.1506056420020544,-0.015078858072627144,0.06397351407003635,0.09623422550085575,-0.034025111414117515,0.10132806881452128,-0.037060456880237846,-0.04455362997683715,-0.09583216690762485,0.032824033802766245,0.020785886187544393,-0.12280917231641386,0.036699228521535295,-0.12790020151029136,-0.026852359768228362,-0.03831035496843359,-0.013690209581877789,-0.01559218816445155,0.018087635661390652,-0.04697066104755805,-0.11248349558466918,0.006190277702486048,-0.021326913031784148,-0.04406348035906078,-0.1581445504871195,0.014168035216527613,-0.019043993651096013,-0.14524109471247984,0.08248491675424899,0.250302853975206,0.0178211145179981,-0.036071444358786134,-6.21297888598987e-05,0.01548470383582062,0.032488332854018455,-0.0013934007238292738,0.021603088518678575,0.004394015446600422,0.0862185708624093,0.05581713047177103,-0.019991874470552645,-0.06837277293672273,0.0018514871920753376,0.0038790804055187952,-0.0001066737203357605,-0.0002728450726785679,0.03100823847225583,0.021662642510100527,0.07671537052177584,0.11431798878933089,0.08135468973371346,-0.0068099620404704206,-0.038291361460285486,-0.1779938752731079,-0.058868903115631144,0.018577273206368948,0.11763545458445969,-0.2586141956215246,-0.04192873121708952,0.07346368290744365,-0.05372645970357183,0.010720496588927986,0.19912012694428824,-0.03232623424918065,-0.11276383255538994,-0.1485398378899066,-0.039727929715315934,-0.12928692824785826,-0.09730290589959156
294.3617858886719,1.308624267578125,0.010488377504001195,-0.7475635456430842,0.02254390585625303,0.7100381485084039,0.17312385150360077,0.8328701424480883,0.3749257448056394,-0.1258778032143277,-0.1257298984505969,-0.15855435116124586,-0.019011624557412156,0.21974669081900164,-0.01639724986181772,0.06594339420236672,0.05814933008158696,0.0819923312110154,0.056158185858855084,0.10967193696635381,-0.04777865845466782,0.09548701362787818,-0.3010998902750007,-0.130808207445504,-0.029540774482290578,-0.06101399293173758,-0.2809609842955087,0.008043240365814067,-0.1628591287367924,-0.6089112124110643,-0.02547161699434014,-0.04205170561000603,0.013342002558596168,0.04492337391150443,-0.08159133036975759,0.047597530588479,-0.0587869877707851,-0.022965730370435773,-0.010093174396030627,0.10139849107485015,-0.06181167165347105,-0.01110937074504829,0.06860538597884959,-0.055881976986816975,-0.056336345038888326,-0.017782430767574423,0.09775356615847255,0.04192775596631402,-0.050969954586410626,0.0048430212999354275,0.016302927905213378,0.011596672935128324,0.0674980036509058,0.06667447878663128,-0.003906729097728295,0.026811836035478483,0.019038136348841203,-0.011933335099698928,-0.033068981982101855,0.09080830327273252,0.042437942100619686,0.04450590545014624,0.09887016992169938,0.03668317786747198,0.07597431310025005,-0.05555319858221669,0.03743805804638429,0.045580366098550665,-0.004697466509110175,0.09177920116863922,-0.01708607585486652,-0.005913635220436889,-0.011886575740417732,0.0035654009832056365,0.0714453723330197,-0.0018036049764159102,-0.12134379236226578,-0.06697590494469563,0.08088135198410171,0.031771658327073043,0.03335311514895168,-0.08467753036327004,-0.04284852428330941,0.057283012732395805,-0.01311743045804836,0.05576733346408958,0.029136761787239812,-0.05791637621117231,-0.17229216492068783,0.06251499446532972,0.06975247821046059,-0.07924414642058032,-0.13264252850788724,0.06101334920733029,0.2755505230022782,0.15137250857633047,-0.07551726918185728,-0.04780074377253832,-0.179866289518193,-0.03946205353017372,-0.027456557912168996,0.15928700498570222
295.67041015625,1.278594970703125,0.17620365218289144,0.21502529072729978,0.054635053453810756,-0.2208024381828848,-0.43661426821008065,-0.7211395433141032,0.0031770195396582544,-0.079766521861564,-0.21460031609372393,-0.28889674078904176,-0.03567630116485977,0.23599148671880266,0.00800663570631795,-0.24625076458073428,0.08120555680563482,-0.1331914923430316,-0.4071648465477406,0.07058981245990854,0.055067280525343605,0.07919572976382627,-0.05882529390248035,-0.12105020035193298,-0.058264292130510154,0.012265881041514696,-0.0344523949489669,0.09684409843462892,-0.08051057481363283,0.01421300850161658,-0.020462960435944796,0.056998548471094056,0.0781696090625287,-0.03144169576985005,-0.06833387548892744,-0.049338411343093726,0.016009420023536516,0.01088156975408882,0.09506760351935399,0.03838810860817499,-0.00832476342111125,-0.047140095165740636,0.026520633610551795,0.021028448582303308,0.012482116044740348,-0.044812076229382686,0.05979284029410767,-0.06888135376927215,-0.004391604816244706,-0.07597177054149212,0.0057650094807906475,0.0008010233800124734,-0.008411894522644937,0.05246050288930777,-0.008226243565295763,0.027769478422639056,-0.10018069991407726,-0.01390515229931729,0.010176498742704626,0.012782814145969802,-0.039462674730453756,0.06527415560859243,0.02046461421997943,-0.04571442377292885,-0.00048730138192846226,0.003750256667885583,-0.04300171472723104,0.02994156030777081,0.05348801009764472,-0.025209377933728794,0.00021163427441302706,-0.024553633555821828,-0.02294079400245546,-0.0029897771893292353,-0.01291490101407952,-0.049580679736999506,-0.031481083073860466,-0.018606917510444826,-0.0312555105854489,0.07695602399448533,-0.016784412311740306,-0.040306638462377656,0.041198046275531086,0.0755876728839341,0.11291136354057488,0.12295192948956869,0.014744913832282856,0.04263827274636654,0.12248801920843498,-0.28370758005479013,-0.23864087321093058,0.017790742920137936,0.13888342110390672,-0.24125288472692813,0.25657147414482545,0.14992033553085693,0.13000732358095748,0.5756639398828908,0.2847513333463044,0.0015121676299573374,-0.05064548914162238,0.2440133278110764
296.9490051269531,1.278289794921875,0.11570111597381666,0.05849793981228431,0.14388498787488319,-0.08790212130940529,-0.06786712358112075,0.17171018485746137,-0.021755846246667557,-0.011835823516059033,0.10691114957142964,0.3466209400296162,0.14860275791659577,-0.3912303221778493,0.16427420643614246,0.027007235125638865,-0.06927568951513659,0.11373802629321308,0.08697763318732073,-0.2012449293883179,-0.04112465950741177,-0.027976875946622185,-0.040181826668282634,-0.18571872803169054,0.08578190303662901,-0.05335658595964518,0.07599953115316836,-0.165422265447476,-0.04306104229347236,0.009426968134313055,0.06811727267485268,-0.010931285408180863,-0.04038697240719392,0.044998443999946014,-0.09065267667131442,0.005503189515055133,0.03358169899290475,0.06148859197919414,0.04638322320828696,-0.09466103045930041,-0.1872680821939449,0.013004164293782667,0.03598773159002967,-0.027866457587041083,-0.013648723324515926,-0.0395460322000213,-0.033799876528144424,-0.013905223762885735,-0.005169266458008477,-9.355138689292079e-05,-0.0639059951620594,0.019129492595137625,-0.009741253946562401,-0.022166849350612264,0.005729652198423063,0.08164033154251961,-0.0351342776059396,-0.008634769735680368,0.03831809554243661,-0.09454168468678772,0.034106557149283,0.0668266647935072,-0.06089787750595722,-0.08071484227324323,0.03494351858650433,0.11251421599648809,-0.007720056876385896,-0.06364338545354847,-0.002431128311687029,0.004782741247807463,0.04985605655666886,0.009315895727607553,-0.06729172997523626,-0.03689934097646234,-0.10048323390576692,-0.10048634995830298,0.050506839874718865,-0.06029988375068393,-0.04474763280723329,-0.14550865265172958,-0.07133451333114497,0.08811859646255228,0.09688506049166729,0.060182921889067695,0.018234134406716333,0.09826121894835606,0.04311587595797806,0.05846379195368658,0.2175272590932973,0.10056447752322364,-0.09215373342408092,-0.003079516144977666,0.13345843076335973,0.6324127463075955,0.1381846919238308,0.1794836111797285,0.1040267483689513,-0.0767373282005806,0.1393133810538001,0.36684930215654316,0.2620149282576028,-0.07546611346731653
298.227294921875,1.268707275390625,0.06551865151510636,-0.058990988542534754,0.12122152598649863,-0.027233660898903958,-0.042700101286920374,-0.1826915274309964,0.030084806181394363,-0.09376709841935821,-0.3328887686303862,-0.21002619380579496,0.0059619253944428125,0.11904949833643845,0.07555397542038517,-0.1868302694587793,-0.10567356908124376,-0.014711455812494105,-0.009669688181288504,-0.016401588261391275,0.011538584533621887,-0.011728591407118415,0.03864976251404599,0.05924621936903746,-0.020075655978270317,0.005354412932487257,0.010354972487143859,0.0391883461760025,0.06819874704382464,-0.040621212729383085,0.03352587575525639,0.03222713447710902,-0.06908607312566305,0.05679304002465359,-0.017642995002948338,-0.00881874502878508,0.004402439261125952,0.0025500859110399675,-0.006050026188542979,-0.003697603776607973,-0.043555515621317445,0.054318169848867094,0.01062431548317575,0.0008199634550095136,0.005464319631558402,-0.0023678609929723413,0.00539817115721282,0.11530034472895785,0.030805447318045912,0.017959350765789472,-0.010352536813825858,-0.0033370926449910517,-0.009387235212207043,0.03208623222683804,0.013537060249537741,0.018333964896804285,-0.008750205197238375,-0.07881726548126862,-0.004459251980461743,-0.03072074640216487,0.024692816389313955,0.027084132342464456,-0.05931154823157841,-0.11085648457912022,0.01360531981715023,-0.0665705246530516,0.015636266634394345,0.0027165980181481433,-0.017311557749140213,-0.014678226701022876,-0.05655020534219364,0.007880541915483819,0.016202442358531927,-0.025639818072201087,0.048603893924459615,-0.09875265984670131,-0.03515898238093183,0.03932569826815946,-0.06931146321225146,-0.03208600067259213,-0.0009715563646768124,0.0015296290302781162,-0.0062770446060130235,-0.07199679156232676,0.05182377857317357,-0.05841789320111327,-0.06513454959671217,-0.17759171019565534,-0.044277296220432215,-0.27696385695567094,-0.19144138044333,0.0977252315929739,0.13335002860217066,-0.14837221599033404,-0.356161245866536,0.1097039093816782,0.11121756516685805,0.07048722298738015,0.053917193990338196,0.04151894237314738,-0.3289203007295411,-0.3451278906665623
299.4960021972656,2.346893310546875,-0.4900569413372823,0.2430154621712395,0.6812309841082246,0.2707309625105305,0.13037114081159568,-0.03816772433510193,-0.8344738546744881,-0.13295875300537335,-0.19305501416635967,0.2259039960283804,-0.029066035467431663,0.18513680915221006,0.1443027502828836,-0.025660790253138964,-0.00367433649060174,-0.08744953917328604,-0.22599146845359683,-0.014847347203870577,0.08669656904399783,-0.10668752218969522,-0.003857444191439715,-0.00828134430877588,0.017066772563103325,-0.09353697013975164,-0.045850144583482196,-0.08489756077172626,-0.03556771191743708,0.03629780822321376,-0.04982040092751424,0.06752556371919054,0.062079463748053516,-0.07766586492854236,-0.004359269337825755,-0.003501512641334866,0.20734218719222647,0.028237209590339294,-0.05341636631141847,0.002782718799345281,0.04014800290873294,-0.04428954062301513,-0.018009690039059195,0.008542861544994177,0.0109165698328386,-0.0016665796597140551,0.003571247607890835,-0.057782939712786835,0.017029821782524213,-0.07437693527862976,0.029044641501251973,-0.0014655165199527938,0.062042476702278346,-0.042190021344803784,-0.0009188108023294908,0.07933180983604066,-0.0559397203426723,-0.027995122779441613,0.03542452269078025,-0.0025339778001650932,0.019824615287835787,-0.004397385258159097,-0.008466712716722625,-0.00784006171610733,-0.03845946194429365,0.029392799316539032,-0.0023208362377551105,-0.02171884215786623,0.01392442273534725,0.023689518993323458,-0.015570931023328016,-0.030461054264300125,0.0709331654854123,0.034517318991140425,0.14846444069850298,0.005436281376892296,-0.030817603534722224,-0.047624414311614426,-0.033484817559143495,-0.04621465355023284,-0.013320198336206889,-0.07370639685178643,-0.023784999041892983,0.03555673812069046,0.012850700177751773,0.039677775780762786,-0.011591768905453041,0.0002891777907846984,0.05556296132521308,0.004467823273021726,0.23280247659058353,0.031010865083140077,0.1065085420823178,0.010148212521250859,0.08261725785727213,-0.033124283527403806,0.060832193619298036,0.1472926381479539,0.040996506868942184,-0.01967883690712338,0.011676032835875379,-0.006466404746442521
304.3301086425781,1.208404541015625,-0.1247119277231712,-0.14787906412710272,-0.07742464215793517,-0.2717385904542112,-0.3024665411741896,-0.04490588392534395,0.2726733469782872,0.4183188807415727,-0.3886639920131889,-0.14670117931137527,-0.30444291710043775,0.3462273427278934,0.6069750138275207,-0.08229835805908323,-0.04564187327980831,0.21994362642875154,-0.16016616438691608,-0.040045964664489536,-0.12885769738810174,-0.006070138663667089,0.06409774625388592,0.05911053946995749,-0.028758831828902955,-0.07021154062039062,-0.043171060528375826,0.0034113688190769657,-0.07753981273956884,0.023664136179417563,-0.012971112161575829,-0.06841471301465882,0.001444846459748262,0.015720263869519475,0.040841328229746184,0.03970588234270429,-0.020777458190467325,-0.01180787555287985,0.01573040143481956,0.024820216659252325,0.011325980246236394,-7.200658807579829e-05,-0.00034059516442421146,-0.005641098235041768,-0.004239501509779907,0.046069424769509926,0.07442515019756196,-0.017148281183263413,0.08467952043889805,0.020718108100290615,0.010818388929362611,-0.031723675325576135,-0.02026535018819863,-0.019994883051214375,0.006391807000214747,-0.08466815227622304,0.07887605445500469,0.06828699263948486,-0.003505121837546666,0.03639490723438135,-0.06361302606631213,0.017153924222203434,0.06745190127983355,0.04698649595103813,0.028494144654559447,0.038187021828897626,0.014134930051811625,0.048335637356206385,-0.04030059251256434,-0.01956857662370373,-0.03324907861052588,0.055387598243558996,0.03355303909417144,0.028735594255259497,0.017956992205162982,0.11259664731095269,0.03368925286062875,-0.061777891639626215,-0.1334734572488845,0.014532212827719507,0.05914508716576955,3.434820327581829e-05,0.06195191166580401,0.015033225616255074,0.012390449972493047,-0.05037548674226767,-0.15124304264397895,-0.21024059157494884,0.04004893641799633,-0.024397448182986073,0.021794688500474196,-0.0729400530238017,-0.16024799648464855,0.08946506983675928,-0.3315804487188815,-0.07387590686779406,-0.3998073052097417,0.1758911819676022,-0.06816256053376564,-0.44984155626766903,-0.4281391937925681,0.2892052172930321
305.53851318359375,1.218597412109375,0.24686812776195535,0.29043530180652344,0.1492358521107207,-0.09814526369126814,-0.30983254388261844,0.011005359068348474,-0.08770812944430567,0.16343360755146993,0.007364617294125575,-0.2942061445647929,0.020683465897349013,0.1312408285050157,0.054535093122815015,-0.13909206292514792,0.03889003181832221,0.008406724293659532,-0.06364605045040414,0.06276800269686944,0.06143844835044075,-0.018866818349821103,-0.025496014120611858,-0.024747410997982243,0.05053749694382364,0.11355433189511016,0.04494919758461173,-0.0040303409290141975,-0.21065418820187537,-0.031279735023743545,-0.28898132775006646,-0.037868819412387456,-0.050205920937499454,-0.04368280038034011,0.04089136635888137,-0.07762849166502948,-0.036536582503534365,-0.04553055587231692,0.0040424812463631735,-0.06372186310152708,0.009422883931269138,0.020633164946426162,-0.03402666362098781,-0.024077058229217088,0.07534057921027107,0.004429182569118982,-0.0020656917447287007,-0.006873775317432819,-0.0027265008298333103,0.01165649055384366,0.06966913354435426,0.011498201950185553,0.05514769158446224,0.03681464307195263,-0.04194757509463437,-0.0034155746447416045,-0.0203893763001592,-0.02560212354382195,0.03334285304076109,-0.020419228529416217,0.03329613897320382,0.16008183361633435,0.05070985417791962,-0.01709531865015236,0.012201087146217607,0.008833783277181146,-0.011793343227399916,0.05494560116619522,0.04109807136739144,0.05789016650242157,0.010414007315115402,0.009913070016468253,-0.06257247839177132,-0.04532297475570607,0.009210694481248276,0.024574787288305977,0.027817612391272502,-0.20774675130828413,0.06364684079215466,0.020269070087555262,0.018094696239053083,0.007841426012475273,0.01127197258336912,-0.09026164257322215,0.001347397900650318,-0.10992495314863625,0.028652205812108887,0.0127780821639777,-0.05505987738119837,0.010928712146308035,0.07418672870232812,0.1349812183103008,0.07365671771028062,-0.16293021653887368,-0.2456903884132366,0.11403699917147928,0.04186342189130708,-0.16811958511518016,-0.10327468065756945,-0.22209141690037854,-0.025313235017336906,-0.3103850582187998
306.7571105957031,1.2283935546875,-0.41901169191748294,0.052452178317123815,-0.2503294987706668,-0.8399886775666875,-0.14257000564124042,0.029285153979028533,0.3032573489703512,-0.2254209777374203,0.054563772233387674,-0.04213118467021135,0.0169789321771016,-0.02319487283697318,0.13493795921337695,0.10154305633373918,0.20763638088382194,-0.0952454265848362,-0.013300670139229365,-0.030082938970132905,-0.008850965237100501,0.024897813395547332,0.08647683489479348,-0.011892855699528066,-0.09658644245066347,-0.09138103329535346,-0.26457942529479694,0.26980814270605286,-0.06049219001214239,0.029431459400292348,0.08802641148346882,0.04193156010567001,-0.04587642262427983,0.08704561340026411,0.019499469051305965,-0.05504761079663132,0.10644839382276339,0.0039314271874898235,-0.01065741871522206,-0.037563731217725514,-0.04040973355300538,-0.019015328949434508,0.03730868738305674,0.019689381548677665,0.001710420715813396,-0.051667169995648576,-0.010886782090455545,0.012346416008806033,-0.0019528854900353245,-0.015055181225872991,0.008397297630361969,0.014940580750573832,0.005428992603720279,-0.015231307681391044,0.014611810423208887,-0.0685419822660313,0.10446520205293697,0.03452113042150545,-0.06419160890891501,-0.011158650649352946,0.0030093681093348325,0.020687683348512002,-0.0240025011749093,0.008656884764550312,0.014475927562953789,-0.008915418096502802,-3.468218709341836e-05,-0.022728891969256485,-0.020140450987362626,0.004649387778267264,-0.03598258403150984,-0.09690570104967267,-0.038374860227977176,-0.06917760386157273,-0.047941497331144604,0.00019408250696942297,-0.049611984263441294,0.01216111061315903,-0.07398406552848326,-0.027495189639801697,0.015290789834039425,-0.048253637902463994,-0.03330521836225772,-0.029513039054306585,-0.004244985468738397,-0.04669962838156028,-0.015610907692436782,0.2181845603825785,0.11243465295381326,-0.06352550252958798,0.0815930442156335,-0.10309861251770239,0.11307283905658491,0.09981245322661364,-0.29373299386103563,0.30738555665805667,0.43975769204908133,-0.17258274847764943,-0.23143999866009776,-0.3114533577436227,0.15439651907994695,-0.08376448914175307
307.9855041503906,1.23809814453125,-0.08384819284738004,-0.1243463406711202,-0.09203979507867104,0.1853760856182927,0.07836731950343837,-0.10075211894920798,0.8884712837644955,0.4221592918072049,-0.0002877374729861777,0.23576400059774227,-0.051743171701049605,0.02295996508121356,0.008753299091432017,0.14738195533038292,0.01595228729129439,0.13988423075703016,-0.06583641838814842,-0.22820002415129448,-0.1157240528877034,-0.0065286756043405145,-0.08237223293277078,0.01787938357102546,-0.10296970792819601,-0.004548457797094699,0.04296316436485447,-0.04924375224454883,0.1015281020310006,0.027112128315626153,0.0682667301295219,-0.059517774184594224,0.01123200639953656,0.09264304826406868,-0.05160200115898968,0.005795776887889695,0.030435698674803814,-0.0039943971771650546,-0.00010065303027686134,-0.005683551288652572,0.0005272130120731941,-0.005434884165619747,-0.06780526131137125,0.004952723520073712,0.049291782717813974,-0.017875168417662138,-0.012220576595581302,-0.08384623722406598,-0.00498339614724636,-0.042873008482943294,-0.06918770416419463,0.0334992473952721,0.06141221710899428,-0.03303131288207284,-0.048276002405922856,0.08688162483483375,-0.020250434022890954,-0.06441011370075812,-0.017603553087426223,0.016519106690115252,0.009115322306310313,0.04442465448610259,-0.05595970081192948,-0.07601031142076224,0.06085469626134219,0.05156259045704614,-0.1048625274232273,-0.005129033511195875,-0.04522501247532408,-0.03334568290307777,-0.09115670002801615,0.003896322431253818,-0.01609439998873854,0.0015791689019954067,-0.07596390621542665,0.0009069686331659027,-0.03451871954168996,0.011071485540172116,-0.03146680865894719,-0.02989308466533891,0.09466476594879268,-0.13331631654363452,0.07542674715586777,0.024125306920282922,0.03520634462340263,0.027866636213300225,0.1260839256978076,0.11240068858683845,-0.07173580952907468,0.015842230907336177,0.02861919709764635,0.007875418705648366,0.0008801195054929517,-0.014582369847649367,-0.044137218125236785,0.11469988092648722,-0.18945137953698293,-0.16682032651445655,0.03704890675591369,-0.06644860751087908,-0.1686483000848236,0.025283572921290395
309.2236022949219,1.218597412109375,-0.019233948608702298,-0.1314327545961998,-0.16625020293824241,0.14425861634379145,0.21032655795076743,0.6204371043537513,0.05763637949017586,-0.020557516188832725,-0.12120405243075412,0.0007975108051600254,-0.011170174366473752,0.10121848841230753,0.028855054787406943,-0.039729478208399116,-0.006830064646026979,0.16238357021920727,0.12077701489951609,0.060971067326623475,0.04662976663278556,-0.006947802385104589,-0.11943614325077656,-0.02297358698244796,-0.003771506125131441,-0.0488889565278798,0.010306292075982104,-0.06879186635884756,-0.2723394609550119,-0.016584443045349322,-0.08057478047530446,0.014056933319160718,-0.025723821430680145,-0.13942249968363526,0.18249301309134786,0.05592411551573048,-0.0012531873466210177,0.0055861431979424905,-0.06661724021868659,-0.016326528681994808,-0.02578296874074664,-0.01576645615860458,0.017156495697104864,0.01169827740284566,-0.008950729048121414,0.005709331694297393,-0.015849383568213013,0.054653419139245644,-0.008022722878747371,-0.10614490568936533,-0.048027696334934325,-0.04970402198168753,0.025067902804770295,0.05616426951882268,0.024320425474675063,-0.07119318376074366,-0.008612068906876297,-0.04840437279783112,0.0645142340234916,-0.03600358210115187,-0.05590696080304405,0.02728836906357778,0.055473070077422935,0.012629603647889783,-0.01583477564524689,-0.019054671685220313,0.09101715896327472,-0.07459440071635175,0.004142573107863947,-0.0007120452541443459,-0.11507725744900674,-0.052061231857651116,-0.02357383441937963,-0.1849546746234829,0.09285187327745813,0.08127067140732704,0.024989144478961958,0.13567174636686669,0.045419985442256415,-0.06205988034652795,0.014921014960057787,0.09351925450910886,-0.027166603218306537,0.012480763056142924,0.19940612158132295,0.1635034680409129,0.14196656563452303,0.11274375187339655,0.089734222439473,0.034942163545390675,-0.1428541141493665,-0.24548276661087198,-0.13858609359961774,-0.22486025856058584,-0.2385784754863408,-0.5750711847036488,-0.2728131823488351,-0.1251014281441795,0.0460072559481057,0.024179452717834195,0.01894302860611321,-0.2374294991667944
310.44219970703125,2.637115478515625,-0.2448200046163897,0.05691144925156626,0.00018612403806322897,-0.3383383513469062,-0.22538406213858672,0.10214681437050367,0.04906539250519217,0.05900305936409335,-0.09145389842692553,-0.06079897605557027,-0.005350057370961128,-0.01658600606829097,-0.03712182622382922,0.05420224307183499,-0.12794636302188875,0.025459062597854878,-0.19121693325349415,0.051578146422220646,0.021634685130840683,0.061079262922146514,-0.002453147021900162,0.0048993237379534454,-0.01576056668571611,-0.025932284501566615,-0.048513747944489066,-0.07902299431501172,-0.013530089192432156,0.0024836607456697845,-0.01837895121842716,0.01552727809698628,0.036985753599082315,0.09716806220363092,-0.07874610538121384,-0.04686009915139041,-0.06141057901299281,0.05002787595143996,0.06592885127926645,0.09995454437199236,0.006957589528543974,-0.019228326717884443,0.08655647037296263,0.024530656591216993,0.05642327648793386,0.023180833121638034,0.0009170358518021277,0.021379209674419183,0.04645842637860864,-0.07652027922864246,0.07445103182465077,0.009479385088521967,-0.013713467801954036,0.0351477482855641,0.04123166465911272,-0.0031743246493438617,0.01832463282118963,0.06249851322942861,0.06580924153060264,0.07838717762838815,0.07147619983486717,-0.052271703759706245,-0.08933114272797693,0.037029274396846064,-0.010579674618499402,0.06543506601972016,0.021852593177071125,0.007564355854882972,0.027852662320554847,0.004661747765121171,0.04021951435421171,-0.07394912323631198,0.06669111500702952,0.12268840972205375,0.037009985083453885,-0.02549416776638815,0.13628491219810318,0.0624092323923163,-0.10773188955220649,-0.001216772926437383,0.08266819844384171,0.010600756679939826,0.009807201940202903,0.11422987833982141,-0.015159491725236118,-0.026372715956873818,0.1567521887227746,0.05676876390047838,-0.26226417265156216,0.04676526606090568,-0.08093695091445346,-0.16377316353264526,0.03223492937211917,-0.05877703422067319,0.2825598212386142,0.2571459662477176,-0.0345144135917188,0.026412282762153166,0.041606320399728246,-0.13719308346103465,-0.06806993127744317,0.04416771824176405
315.6064147949219,1.218597412109375,0.24079503481877837,0.1596268046465851,-0.07192110186064428,0.04922958564677408,-0.24173839234072475,-0.02279660011197049,0.3051745021626754,-0.1980886405805112,-0.137095714491311,-0.009818747002170697,-0.5207793597533176,-0.01299865234421374,-0.14113810397845727,-0.2342537088726458,-0.3144014434489091,0.0691247883683582,-0.021386563406638075,0.2508929256390676,-0.05400960575746565,-0.023170645357994474,0.04855436097866874,-0.10063963093849115,-0.09236641032905034,0.05209388061347895,0.052940673416510806,0.005066156626646319,0.04864912438125232,-0.11804386150453271,0.17594714329322525,-0.10014244545853322,-0.009940672126221493,-0.001034575415302788,-0.025506829121749224,-0.02222087644715536,0.011331593882145233,0.024149579483316377,0.05566568881793854,-0.12854928245310576,-0.08756900524763431,-0.04886029927288777,0.02739752120213143,0.10761642295985477,0.03933159353069969,-0.011935353006573895,-0.011900698489383948,0.0074829345606458025,-0.041813263295629954,-0.00580136265070025,0.040481374002212855,0.1101454924280327,0.03079380917590179,0.030811095440849076,-0.024060751425911783,0.0320773075349847,0.11401871350867253,-0.04328079303702935,-0.09255800703269576,0.06041216638170818,-0.06139039391720764,0.0009254982263764652,0.03206740298918498,0.04011429235603465,0.04749190803214835,0.0054583259781006005,0.0627052877363172,0.004959478005787453,-0.04129918807387112,-0.04506556222457739,0.006521896613054726,0.025163256111007063,0.004784561506883799,0.013435592848168344,0.03636920770543223,-0.052997380940350856,0.09061740541924528,0.13558650214106155,0.002952628101384939,0.06049758722785934,0.022457374061641472,-0.0319919557108155,-0.03911831732795508,-0.0248137048201212,0.02452290378044268,0.10945054671422609,0.16795615536860656,0.06382278431294226,-0.33770934485581083,0.05839643848975763,0.13919900037592872,-0.26666329757813695,-0.19528477550258874,-0.08502281440946209,0.16315351626255203,0.011896026310852861,0.31267988599150554,-0.07854009205309305,0.08834193355147572,-0.37992211512763413,-0.0049070972449973636,-0.08437483874353519
316.82501220703125,1.188079833984375,-0.08905311787332361,0.06862941799210834,0.10129027166535744,-0.20337395983604697,-0.084195561197098,0.036806920192061304,0.06667881879246564,-0.08469948436483249,0.19483499792969358,-0.4066240560425214,-0.009491232827743964,0.1474941989802699,-0.12211806850929342,0.32365250243793653,0.15877240073220583,0.03937358713015455,-0.08774445247057654,0.11509659815067336,-0.035651065585376174,-0.08656681627195985,0.09077688853867448,-0.15099683990823867,-0.06813272234738393,-0.005130172159862807,-0.068202837734582,0.09286902190813352,0.052712744860001284,0.06735884318066504,0.09975444755083378,0.05225467841334326,0.06214599735186487,0.014347478634014511,-0.06044915522281959,-0.01047093345601006,0.008738558826693707,0.03501127084247211,0.024762462785628506,-0.029735859669786032,0.044127447990004495,-0.14921176100416683,0.026967108708461612,-0.02266727751048834,-0.11479572549812586,-0.013198678459990842,0.09585736475244744,0.023525551313799315,-0.017208923385149084,-0.058782107590897394,-0.048812565790657944,0.031339017627423714,0.04508713333466014,0.09476741783297636,0.0374128981194838,-0.018649130893586868,-0.005153431834705791,-0.027226325014681536,-0.18574024112683876,0.003525897351892609,0.018601097740686506,-0.05141011092787229,-0.11492448268900604,0.02090990162318708,0.09906980176185179,0.1525729311905941,0.030091027377724372,-0.0569496386653698,-0.012601566137231004,0.002246974607183526,-0.048553947441385616,0.023716373392205385,-0.012097787251279205,-0.05327246705311779,0.047926815509369974,0.04404149542028911,0.003074895236427612,0.12753530031864171,0.026846421516858947,-0.0762546710530815,0.06782263636941084,0.11893039167072683,-0.013052075905255964,0.007470310139088242,-0.23657034988758513,-0.060915757344747135,-0.011753527404580813,0.05356852980644162,-0.02978457469433836,-0.0922521358017981,-0.0675862313048846,-0.15297228154853326,-0.8117880498129395,0.13558574362457762,0.08366906382411597,0.1728736587186057,-0.02147104695819077,0.03324799495141531,0.13293488503326764,0.11506037207780037,0.21801965034551377,-0.01657553695592698
318.0130920410156,1.198822021484375,-0.02514727694285067,-0.5329787824946813,0.2779686831166518,-0.02934082022029689,-0.03899139331439866,-0.08197520011450775,-0.2549567896478596,-0.11354485036839002,0.047581924911986206,0.12391215759682755,-0.03196338637742527,-0.03782857793079754,0.02468815495231922,-0.043003599472714614,-0.007270156057400362,0.029192566496902567,0.028598175476225708,-0.013739827637729924,-0.0013898011122268298,0.009817674452583375,0.027906214693806847,0.08479804222362848,-0.05960705218591732,0.07979752310998364,-0.0851462932727136,-0.05264542487826199,0.02876596717045016,-0.05091911436878989,-0.1511138331238184,-0.026433630786470028,-0.0355849986018362,-0.07502977708213973,0.03428555152208774,-0.11129137053259083,0.12510722796857576,0.010310211237360027,-0.003884955956425004,0.02228874075108868,0.05580551880834305,0.06093458128599505,0.01946653394694582,0.09277482117602148,0.0025379245474700146,-0.02594680354460677,-0.015696330640655422,0.03758449403608067,0.03122031766359397,0.05338504098111193,0.012840515733697424,-0.02037278837921705,0.0025798682433452887,0.08005542333422204,0.07090600461555904,-0.04161801342668141,-0.005271085784235279,-0.02830480759149076,-0.00497831401154002,-0.08295708938651856,0.061813952001918554,-0.017971554836370945,0.05401589071624113,0.02453003396371668,-0.005763694182834591,-0.026704867861020477,-0.028260747306538433,-0.024425855427446443,0.07599231357133628,0.00025428281248570533,-0.054894676713808765,-0.053801175117165534,0.019335044082321493,-0.07456143177298619,-0.003852062453310443,0.04585500262141262,0.09753651706441475,-0.018608132618965732,0.0012054830797580962,0.021640083579198242,-0.015084605078587457,-0.022630509938230285,0.14427578926883766,0.07411844903980037,-0.028800824928281153,-0.0377535414724422,0.058000239378314,0.21598163765904804,0.14843092507191127,0.045724966151258636,-0.24656818358800836,0.41846954505651923,0.06174773174606624,-0.5682762209068923,0.2437794793590327,-0.14702371562512104,-0.015965417250102695,0.3403910722796379,-0.054777328553235236,-0.177105623069337,-0.20874378889486617,-0.30601720057521686
319.2119140625,1.19818115234375,-0.1687758734778267,0.2690222043399575,0.13913405611213878,0.1130331222221845,0.20874550094599054,0.12851145826156168,0.1953689481969053,0.37698410643289554,-0.09918425062617314,-0.02061930469700713,0.27072503921016755,0.04721763066858218,-0.012764321390922071,0.17281891587768908,-0.17493401992617078,-0.08239816681770998,0.03886352138623348,-0.04618655811187594,0.026746623467167135,0.11268435391088721,0.0510065879775295,-0.028034544955788224,0.01726309155878842,0.09634377296470722,-0.017156055129613837,0.0056451945517487,0.01545967429107029,0.04388211987231327,-0.13959862934677408,0.053897591640996674,0.008349266045443008,0.02739373921761354,-0.06276107190116621,0.08054344529884475,-0.003085347631599257,0.06511992180180701,-0.020770556204487093,-0.020913616342081758,0.06696732754428983,-0.018828442434838763,0.008076534816938642,0.0009665942969988592,-0.025926064073492728,0.04151595118850064,0.011582940708274847,0.014759454369878418,-0.03926929493563447,-0.01412053412141071,-0.02124829061424979,-0.06209806619660603,-0.007112120520322928,0.011072075021192769,0.014182309339478378,0.06650501121039899,0.003907002171122503,-0.018423273546582776,-0.05399886890427407,0.0057826255432571055,-0.04394252452925496,0.09195628868624486,0.050906652695976176,-0.08815580076157979,-0.05016652811986607,0.0038946389042984336,-0.023908051757627957,0.04093031212844753,-0.12303689774588518,0.00880122472101911,0.030655253067380858,-0.04018636380586024,-0.027018512185945073,-0.050982101287676454,-0.12484443293190237,0.07684410553274101,0.07347954211091505,-0.013842110274317034,0.08083201916307937,-0.059122423188806665,-0.011743430402735676,0.001154839582014693,0.040717353344623765,-0.05275378084425797,0.031103164626844544,0.036574151119712454,-0.05627616771527748,-0.010959096580409871,0.020470889968167302,0.13715363442776896,0.11078811662093774,-0.10278776990100866,0.15076946515851394,0.5162859578634019,0.41613320566711026,-0.013091518380528657,-0.11386451450956371,-0.7047669110694934,0.3882881606908634,0.09811070139439851,-0.07493854318808596,-0.13200278125263565
320.41009521484375,1.169097900390625,-0.2714860743677262,-0.03052922324648153,-0.026136408903845904,-0.337608026905446,0.11910621337277433,-0.21325253502826305,-0.04774035435757028,0.05027828777716903,-0.13962745752595307,-0.1738681637988007,-0.02054511399171413,-0.0026903785576135072,0.0005125520489898377,0.01696435440826487,-0.05443656509383836,0.12928128203086495,0.07601041921457567,0.018218295545736313,0.0231346306267776,-0.021509431705627552,0.14610668856530792,0.0648914933913566,-0.09012443338326753,0.014049131322704616,-0.0770118142913753,0.08062587290323914,0.02076842966487137,-0.004840701117810384,-0.014814315143643078,0.1102234614941267,0.12340274607991521,0.0665561550375918,0.017369101268460307,-0.0069101173383783335,0.006855865065394982,-0.0553090612813871,-0.001596695887581225,-0.0036491935465180945,0.0271295522270804,-0.0028998410288721805,-0.04243020982170179,0.009064693669460899,-0.02688776783692419,0.0072034278459019,0.05495404296426581,-0.0030868727460289227,-0.004657125716541891,0.003335272279046041,-0.0036664192491205464,-0.010879641246180266,0.045408538395003493,0.026281696539662426,0.00017126971071547425,0.03438229400336649,-0.01290678016620776,0.04157980697822301,0.08139447835850791,-0.024912475251892316,-0.03935277232930644,0.003701185175869314,0.025454360382635977,0.0558264143479728,0.06965890769531081,0.0026719300779567273,0.03153177965538919,-0.03955267008624419,-0.003364331130467794,-0.03125355810836403,0.03932872937056164,0.020774219284378455,-0.06268417939384867,-0.054383476730829564,0.06187040928798223,0.012506728851297819,-0.05088688742834687,0.02549798388850083,-0.03897716868910998,-0.19387244348526944,-0.04409415100360102,0.042648950681681126,0.06576906691336251,0.010844776650900917,-0.00023669051318034534,0.11754766026548334,-0.06293405034773586,0.021687583168003063,0.0385097816452441,0.18405291904596852,-0.09689440484266615,0.054757740146074624,-0.12002007507553542,-0.14094132726176056,-0.6182301670770124,-0.4927502588811555,0.24739147382105037,0.06384244872751224,0.17341560343273202,0.03697801641166501,0.0915837115540113,0.08368282115545717
321.5791931152344,1.438018798828125,0.10969687447902851,0.04351272234293603,0.30307185757637006,-0.07203023367089612,-0.2802207707859617,-0.5267858225780943,-0.0878433270961088,-0.03668564729240775,0.2973976231316088,-0.12874548558558743,0.04606091295968423,0.04462590208108794,-0.018717676150747882,0.019897802267260595,0.0632410988909732,-0.4059327231739012,0.003958413053752306,-0.0001687406922284418,0.010404331667619695,0.07438964249855098,0.014115545795766252,0.01110535782032709,-0.07132361592286908,-0.15093037141028204,0.0714594140263261,0.057620258393819505,-0.016119385351827508,-0.042356120216066676,-0.0383583461337588,0.09322406356357321,-0.019058981455765713,0.04954426031517625,0.04902962655809801,0.002138864287522911,0.08811790032426946,0.044891194821294646,-0.0555295353135584,0.008212896824789873,-0.007749588867183073,-0.009654253764115862,0.03522000137435099,0.0078097166272602415,-0.002065319779619109,-0.0033818538886825605,-0.054575555602769533,-0.03231863513727435,0.0005117829428582699,0.016418476652876098,0.002788994351409573,-0.02155871313083132,-0.05535454207115051,-0.036585818439007045,-0.03210771871440341,-0.042553629532897125,-0.06345335961107985,0.00042556596675970325,0.10686281637156515,-0.05096265183269236,-0.14934640684698347,0.07574015850560224,0.33123259740614014,0.03721403397347062,0.0016616476210259698,-0.040255611759293465,0.016883041268380028,0.06664638114036361,-0.014960423246792746,0.06145155282592012,-0.01350361136520005,0.033869825189066165,0.014630629805456291,0.014977089983535644,0.004235532052197455,-0.1036511550250653,-0.006347998692170176,0.04955775563057395,0.09857257644829949,-0.0384810895014136,0.013373312563154056,0.016508308548205855,-0.02361520432886043,0.029727629522649707,-0.0398878202503823,-0.07173222739485065,-0.0020694595605032333,-0.077028789165964,-0.09487262592221668,-0.23292308216995383,0.2897460123477131,-0.042587387720859154,-0.22336837800247705,0.07486767381622628,-0.11545638878601878,0.05296962009414105,-0.16155470330385407,-0.43822611084057606,-0.3065248151365357,0.24538486708221113,0.03128699026565279,0.014036134228024466
326.7326965332031,1.168701171875,0.2473767117448801,1.017223282515464,-0.06640268608672942,0.0028275239097784524,0.07527686866803507,0.05159828198717478,0.14260998822767218,0.09614278672853861,-0.3364988324542894,0.03045778365043416,0.03799006240902962,0.01682251624106247,0.01718960478558481,-0.04855273144007578,-0.14523218765146503,-0.06347821446598477,-0.025404173607823766,-0.003757496754212483,0.03262487009215234,0.1842078383842985,0.0512274450495973,-0.007614025571351443,-0.09009914038253682,-0.31201396499499645,0.2984125712521283,0.17724617705695878,0.04190851708141841,0.14740410568261472,-0.011185777329320438,-0.07889362393740033,-0.12712903990918897,0.0808874355868241,0.07224623309590054,0.030893913089135246,0.03503985933724996,-0.32504877398710674,-0.1178023748890151,0.14006778467685277,0.009706911837637333,-0.0418786598689814,0.07666176832568296,0.01834423912339531,-0.06306440962529626,-0.04209604940729955,0.03502440871879582,0.04172901724208396,0.06744570241221069,-0.040551702456155525,-0.06636962237923559,0.02661224240089142,-0.02256916838423697,-0.04622407924693028,0.040577071374751236,0.03331000048163367,0.08135606358877451,0.05599059448716363,-0.1330970113626659,-0.21176569103705584,0.10216635864767863,0.05211929056498385,-0.3153332613330801,-0.023782120592831243,-0.02676377548687848,-0.051932346032604965,-0.05032384126893947,-0.02806723726576988,0.0432688193127136,-0.062411641236379975,-0.026698991761451074,0.04920430626108947,0.004823830467295259,0.15211892766126822,0.02915847523852144,0.017686229933384295,0.10926483451457847,0.03060715318467836,-0.012984381935135167,0.05224647579521577,-0.023015517613835752,-0.11939558217160115,0.05052837076802494,-0.045678842206017485,0.03980616395955283,-0.0301942202876581,-0.035237054307710715,-0.0603570157893247,0.20993748474324683,0.2923305248342807,0.10738464626966515,0.038957156593838124,0.0764853827071897,0.142751095639479,-0.37930640921454806,0.0986560422819822,-0.10635623171958379,0.012064904426174777,0.27283884415535736,0.002485504527152838,0.06559522416044897,0.3204835166701516
327.9013977050781,1.198089599609375,0.472981881317202,0.11321952860456141,-0.1785329371964812,-0.22106551452871645,0.3390054638905094,0.3418948496672538,-0.10592180046087901,-0.13424878671046553,0.05104973504935291,-0.42497803280284485,-0.00281736654097244,0.06292910380679352,0.0039914608806040615,0.04163150046013666,-0.19543057614581294,0.12402449861731715,0.003909142801478335,-0.06735325798625046,-0.08066218929973783,0.019867566243444466,0.1096400590547946,0.12008774156415009,-0.08724781078825922,0.0008468758302457788,0.1599912810912595,0.06707175419913747,-0.032377017581456086,0.03763099301858061,-0.10270025470898127,0.041091097052046915,-0.23069223562201263,0.04709260947781865,0.01805316739139402,0.00880926819446419,0.017354730216732284,-0.010064677876276556,-0.04761541748270722,0.029266223186694248,0.04924490120420626,0.02334265059868715,-0.014978202042538637,-0.002428326843433687,0.002866763988890852,0.005806935515377515,-0.025617539794760405,-0.006972397106627778,0.04457448444621761,0.022932173081272836,-0.0341971390586546,-0.013748508802668393,-0.054756599579704114,0.049900384663473574,-0.0887884667061512,-0.027091765101039195,-0.049255801179830055,0.05362776504325209,-0.042290420402268526,-0.04778476931913649,0.016101572326909043,-0.002264604787672467,0.013865656225222647,-0.07194403493863458,0.04178101704011223,-0.027526022610715725,0.006191106073070572,0.015266669670815598,-0.028475819983177657,0.01684301477296005,0.029285837935310217,-0.030302844780336485,0.025006611834670026,0.11930735022621643,0.1023366064073534,-0.03987797122599135,0.04585235402390912,-0.029777288467552464,-0.11844947201622699,-0.04268374622003974,0.0184497093191755,0.0682349147185803,-0.14026795453410207,0.005401478065366742,-0.015030642704139768,-0.007818831124402514,0.12691654376546532,-0.13482844235633884,-0.006761351896548441,0.11864394959238361,-0.014652099111406969,-0.05122201880659709,-0.08029728705254639,-0.24136773548514956,0.25987028148959085,-0.25935752030665893,-0.019851055955674615,-0.09708948419415697,-0.5231073098145057,0.11494812524815723,0.062049658303949415,-0.17743183685847547
329.0994873046875,1.19891357421875,-0.199112510151148,-0.048689811209373296,-0.24648669389562616,-0.35332167903250383,0.21456008435679585,0.19267206932900058,0.05319772387863411,-0.13462857368936032,-0.15130406757148718,0.48549784287519043,0.06435838485090743,0.29485051543030893,0.22063731729210925,-0.0366208338253126,0.03890878712003258,-0.09847349317407934,0.020919419213403307,-0.002457749200132648,-0.008173585557978718,0.013296144379239224,-0.006845900013753795,-0.006953278393579426,0.05658755545641851,-0.02966157315214668,-0.02164562377462057,0.008816819122513433,-0.02169953624450234,0.02315384389654182,-0.003318847587103664,0.11323212840900435,0.013742142313242318,-0.004381595498631853,-0.03717649971893461,0.046767095947654116,-0.10376043393591787,-0.09481947911147538,-0.023781061993770523,-0.0006383901253133253,-0.015508268005442173,-0.07579948906547457,1.963312603819173e-05,-0.048976119747276635,-0.009250711614442929,0.00013950810080902166,-0.05838655343570315,0.01054524053409489,0.02950641655188238,-0.011067445693583805,-0.02631863658969101,-0.015484879959032347,0.024150884062187374,-0.01835531720549018,-0.05298837156926659,0.012495361125381578,0.009661108100516172,-0.04344092185629159,-0.03627781345654315,-0.037283027138828556,0.037210916872898715,0.04509032447484926,-0.0593248454395032,-0.003620822776279759,0.057302990737999486,-0.04165956306777015,-0.016732871332830926,-0.12047999368205158,0.0015482008585914393,5.371269214279607e-05,-0.03240185839882562,0.047054007616461106,0.05079621937806786,-0.010482811293813786,0.042917962098013115,0.020490628795679786,-0.007074740031680682,-0.15822163682109702,-0.05275762784616311,0.06154881558711727,0.03488116783375635,0.09324347406572152,0.013363068919530041,-0.11358494277839537,0.0332979053078131,0.015864376032603687,0.001259211195810933,-0.18191366701284073,-0.10175398464340202,-0.11924188570655722,-0.013369146474976525,-0.3670075098980246,-0.6355654724329822,0.010448886374372066,-0.06310227827132522,-0.4119255669623778,0.1307182667888751,0.5093183689962122,0.0635580706522028,0.3120622840708882,0.200585831306078,0.10242659718845204
330.29840087890625,1.248504638671875,0.14832544181991705,0.2604588740709164,0.10185734084860723,-0.46073131020796765,0.3649881523559525,0.313994930965717,-0.18357802717975147,-0.00938064131922579,0.7977630062396719,0.11408562964021929,0.035166723212528075,-0.004258763294016454,-0.06084209594469268,-0.03658205701910881,0.10528135211691135,0.14158014866005506,0.08615461883109787,0.1315714724303109,-0.10389982475043387,-0.05557341582796968,0.02400055015970544,-0.010034530251591272,0.1948230482351724,-0.05050139492538509,0.13223718592240738,-0.011733347726122917,-0.0055438346954485365,0.057952859644874656,0.040316568860990276,0.009630472373175755,0.021144690560564578,0.018085331983332113,0.016784578265003305,-0.042646127738157034,0.0031351117324844493,0.027277980560918576,-0.03791839821367785,-0.015255419663064762,-0.0039452207909630365,0.044437439696823476,-0.007248327158590713,-0.012552600834125767,-0.0029182607612026584,0.025436577517145884,0.007141379260216742,-0.023757847941499616,-0.055533229239586,0.04932839440063998,-0.056328068737403175,0.00981978909753331,0.013453076883609461,-0.04548248701352672,-0.0006217581383613607,-0.011642520986198132,-0.061894055263078444,0.016766611311207057,-0.036844086516373956,-0.06031529234013057,0.019571786493615764,0.03885262978835068,-0.06242790578558034,0.020538229536500172,0.08056216150048931,-0.029494987224264836,0.0835136651461762,-0.006040363910403047,-0.03865714407660351,0.016517529263335426,-0.03812270100847361,-0.008128440492475672,0.06954330323977471,0.022415150586931554,0.2207198966109531,0.09558515515113097,0.12282842682877944,0.09546167874819217,-0.08417671420423692,-0.012601680097388879,0.044014552075306794,-0.11862173024106756,-0.02768677001756674,-0.04983208372516804,0.011439807647728664,0.08319426954232813,-0.10383681982480711,0.011735926773889082,0.09823885498578575,-0.038784178125191776,0.05456148834917382,0.03216326833708339,0.05053018106253218,0.14404798879746428,0.12327343729800705,-0.09113586143523898,0.0948634980130538,0.18567663807263665,-0.035544337625652025,-0.12958377927391906,0.023541059798093334,0.175424888345065
331.5469055175781,1.218505859375,0.0605189499121882,-0.20776004566560882,-0.11673045112420243,-0.07441056468822181,-0.718975256371211,-0.04199049224944856,-0.04493042092447713,-0.15484226355469738,-0.01947891149911014,-0.3283729944275054,-0.4078889132781049,0.08014105059746818,-0.0835259790267291,0.16906126641405586,0.2866483509874053,-0.005658381327368171,-0.18639775500949723,-0.22476453705543453,-0.06697233406352539,0.03913419385204868,0.1914081107031916,-0.056251789543146524,-0.15800469829315414,-0.06820734869497262,-0.00014381153034053384,0.05277616057056944,0.050130091690381975,0.10228924985639287,-0.0020156099352295898,0.19982957981180785,-0.1273221496195849,-0.026469195582403345,-0.011555001907863523,-0.007140250145098158,-0.07732228929544603,0.10936970014999031,0.0944687795563639,0.030106443013198734,-0.04304753642828607,0.011347437887806983,-0.0596268234751395,-0.01774088555839623,0.0018024253585136804,-0.024326294531063355,-0.010629829234975853,0.022000998032703882,0.03174431284587598,-0.021311825619780476,0.0107652335536116,-0.055740211027537234,-0.009061630338981618,0.014867883993571102,0.013025386791681321,0.06841602229758002,-0.03315338045507045,-0.041258656868068906,-0.08484405200226061,0.06591271649103259,-0.0777429890022481,0.11912607341343837,0.035345743220707805,0.05978067216229929,-0.16991859489875213,-0.027073230744207675,0.014981557234858497,0.008521500916450642,0.04787638313436092,0.039373233415041495,-0.010089087382435885,0.06226607652680254,0.03344138110946189,-0.06418450949024458,0.004071440329713339,0.10327104216358177,0.13292989483093065,-0.019589120391570146,0.062118336684636476,0.053727146661543414,0.0762390706843043,-0.0359825765719682,0.06662897644234235,0.10518461750592703,0.1113396218060346,0.12512809996868965,-0.19621693156763834,-0.08324473163006585,-0.05711487019773759,0.05564191500266755,-0.0182666467725578,0.01144173337667019,-0.06588605009252238,-0.319298853912901,-0.34563708846802005,0.12667826921943998,0.054733096091707276,-0.33369053291601997,0.08160346843887825,0.3383570219800103,0.13776245552937383,-0.16169169989415771
332.7654113769531,1.498199462890625,-0.0451747926378856,0.0223774594437781,0.011820103914648748,0.3829021805531996,0.1684131478780519,-0.3212451723068194,0.36780447591033383,0.03967051714123372,-0.06972027487435886,-0.12027818320306981,0.05015587605058696,0.08214136966977932,0.15255473356516971,-0.2605340684507089,-0.12236362880384913,0.13699100752621451,0.014457685750351123,-0.08566284581333856,0.012119777465525295,0.07397715132817162,-0.0372178164977805,-0.030449291900827402,0.03172889743090786,-0.20222105171970048,-0.01330966405034666,0.10662273600247496,-0.0635631512777655,-0.02950782750132539,0.15147656094412987,-0.007451408423509816,0.030639228543648655,0.015218976720838757,0.01911606752671942,0.04193594107874089,0.0467998595524089,0.09399726687586385,0.003012111623742238,-0.020295389570134784,-0.06823700295763407,0.006030469819003717,-0.02034385719137502,-0.010099184537236787,0.01729054355264175,-0.011407748516231022,0.005297153964871695,-0.059708201373853666,0.07649079163568283,0.009114292664630954,0.0006370277991138365,-0.0639101026994306,0.01156216848663328,0.03285574870679056,0.021559981472546723,-0.06303947025132976,-0.006011981242751716,0.03876076292935581,-0.03145270006394027,0.03268246509757423,-0.039699063280031685,-0.0400549397938896,0.01895353386955098,-0.04338737655437129,-0.12280770276182747,-0.051846240464563466,0.06191066252767227,0.0048978301755413355,-0.01322462238982966,-0.06265283078978581,0.01422712344490759,-0.05673916485472638,0.053171909098991464,-0.01925214966201169,0.0390824416743377,0.06540544586726357,-0.036485012259515025,-0.020217864993345797,-0.011631630982412502,0.09888039894864199,0.025295015585294525,0.068667976496871,0.03481599115174976,-0.04255963845308852,0.0173139092507408,-0.10062915008981224,0.11755144329513474,0.10778178320585144,-0.06189414862402112,-0.247779736588404,-0.0474165920682486,0.39059068956896664,0.22173747301636046,0.03639099084076319,-0.22938859326841268,-0.5258413119028893,-0.2207023238234796,-0.2533593278594922,-0.23465779397876543,0.5163577357271867,-0.007848581873570987,-0.016944167606507368
338.0884094238281,1.2388916015625,-0.08054890066803497,-0.17694373324819446,-0.26535201534122865,0.20525969243032652,-0.3524162968768255,0.66907998024077,-0.15052022017006905,-0.32109329370676604,-0.15357778154966634,-0.029783768266891317,0.42754047177036175,-0.134589957971356,-0.08243633328082069,0.06728273098814135,0.0014681985832856615,0.33833201192810075,0.21522361698538925,0.08262187263920232,0.12487216797339751,0.08515439879025125,0.007710364731719077,-0.016668203837557342,-0.051579759498963866,-0.0007595601486082831,-0.11190748928872117,-0.0009327808704380006,-0.1600082748033774,-0.008285689323235096,6.9074199677277015e-06,-0.04701377781157163,-0.005025231284517802,-0.004571979702913491,-0.018509476163222554,0.002338183233324652,0.057767112472565815,0.08392863269996607,-0.012625995344387436,0.03698974203785882,-0.013036478314393134,0.07220010115727916,-0.04852381726067163,0.02237013390256924,-0.00014807071413329897,0.06021887852043742,0.03533574340542628,0.022915326515663782,-0.010522934121306098,-0.04916417444649774,0.016965514536887886,-0.06561003268825487,0.021988643360753728,-0.005627269644821235,-0.007748138126745657,-0.029612450927112247,-0.012833630740568593,0.010263376814755962,-0.032447101541504486,-0.06430166702266862,0.008009127468715273,0.020023648196546787,-0.03217146845301829,0.003790395116933186,-0.0038062692645561827,-0.016811753448423738,0.021878169444104565,0.008310390588069864,0.0701916875564538,0.009259663875705598,0.00988732539808701,-0.002251994946499647,0.05115845662715564,0.028006049445189238,-0.07089221678601738,-0.06427746633439994,-0.0754165193769066,-0.013989529591142092,0.023897179710524984,0.04548346405190593,-0.05601022195546784,-0.053819910888201865,0.0035318127220981756,0.03137198951537347,-0.06590315610863846,0.033926793991878465,-0.09303532451415657,0.04661454631232684,0.053148224119435476,-0.05466009829000609,0.04514635331678446,0.15222100067035246,0.026632552530165325,0.17828876491382273,-0.14857603188392993,-0.03708950171551245,-0.005716730952541445,0.1603477339102422,-0.4173519598180866,0.006689008496026758,-0.017465389508677088,0.272977164953178
339.3273010253906,1.198699951171875,0.163395439475187,0.03439872490840977,0.1784355145495849,-0.07746414851884662,-0.012425757060321327,0.17044278718031608,-0.034800102331293256,-0.31562308135441897,0.3316033189243539,0.046597433737630284,0.074751425702704,0.010722593638219232,0.05071190608863553,0.10616004730733765,0.13890807418373433,0.057626778791735035,-0.3513803237494348,0.005709769667230256,-0.17866246335024702,0.11396713749978242,-0.08590100690270726,-0.28911245644942635,0.034413493745823275,-0.03616425488414102,-0.32709002787113545,-0.1955048845933801,0.036274823089650715,-0.053698083006073996,0.04738222816176016,-0.02110008629316621,0.02789754568337211,0.021366963426304335,-0.03363314014332454,-0.017567661500452938,-0.04234702784433996,0.011970049076010333,-0.15425559573533154,0.018634985526304566,-0.02269811612646882,-0.2079772677494721,-0.03841485704137301,0.040798286208662986,0.04766192134273124,0.05161938274356033,-0.00669027977215144,-0.06513818126049602,-0.1239816143542215,0.027453669422012085,-0.04937291510777051,-0.08681713954386402,-0.008268332336565633,-0.0006868072551107799,-0.007631788858618185,0.000220472215861826,0.0009945659118680724,-0.04170272439834255,-0.013428736867570257,0.04514391065804986,0.024606741340465338,0.01796786982140148,0.016237468357972927,0.02501143330546916,0.011978753620865229,-0.046910613349476986,-0.008888711231177637,0.007943757318270912,-0.06706315977416333,0.006353986273475517,0.06277280639481556,-0.05160526050070396,-0.05864765536047701,-0.04846435476658471,-0.01371730603380321,0.03387040670126155,-0.04319931914773597,0.01715429582468526,-0.06729456727143945,-0.07585705862466191,-0.014540747831779203,0.0368821002969814,0.08894381288283962,-0.03677373774563144,-0.12841917731251126,-0.120939525420334,0.04223066375560745,0.062420276054436126,0.005072540414051887,0.13334768519274545,-0.02282387578364793,0.2320115731585013,0.23285063919143126,0.02579942705597539,-0.01725106870548898,-0.00035099020278079587,0.3271644259071547,0.35135358471496725,0.24529589169414526,0.11369930543837294,0.0937797182374398,-0.04790990840091483
340.5260009765625,1.208587646484375,0.11887680629128353,0.029847214817319574,0.05578589323386138,-0.43594821393650085,-0.2196256277712461,-0.16268195679633538,-0.09165631371635391,0.2003795354984061,0.2659933045481827,0.05122963343391393,-0.18876194315776232,0.01047478330656891,0.04212937879794558,0.2750846131639854,0.41460026854227683,0.11122987382681962,-0.036930397961122054,-0.2505121847585686,0.00957946032935874,0.1378954118977974,-0.08364820179281532,-0.12577487999604403,0.12814687790999538,0.0070183607569787015,-0.020228687202608737,0.028573411441657086,0.001396842416345483,-0.0019180502720698319,-0.0556078890317583,0.01532237816082674,-0.00467371977713749,-0.00665909421601312,0.06658856818312141,-0.11124214094948849,-0.03507406582683765,-0.006010695440654963,-0.04742536242452605,0.01235616630979285,0.035780151058493505,0.011834403810592859,-0.023011125336153904,-0.03962680737435197,-0.006406481210610474,0.005843083986542388,-0.01644027302945976,-0.0056480888710516985,-0.11451209335870549,-0.021597058429122597,-0.021543548066534572,-0.10186576700602057,-0.03531758985836247,0.014075109646526918,-0.06886953078401714,-0.0029092144099752116,-0.06502871627816985,0.021147400127233144,0.0497991870266779,0.11572252999383648,0.013698418348464535,-0.025164570918077216,-0.00830282312983921,-0.006637502996647804,0.011596086735757849,-0.07529649361390883,0.04494763323496575,-0.005058389736667081,-0.0009645741856016935,-0.010100257971927804,-0.016507514073114467,0.006796093265310568,0.051203365774465,-0.04304681104302739,0.0437886594329066,-0.01944029653989966,-0.00814909518864636,-0.05404440815766899,-0.06747642468705654,0.056300392372359676,0.020797611415604503,-0.0810020943372872,-0.21975765947668469,-0.006176068668842655,0.059032532180364784,0.018580901599836053,0.07267631061234449,0.11699192309899761,-0.3277570953921912,-0.11694787207572487,0.20144392421448296,0.1597933047019691,-0.013814990255683236,-0.345934441212151,0.286949674343319,0.14781328704119334,-0.3996741373178142,0.019353962401834547,0.018797845949371346,-0.06576582321922174,-0.4545240867156824,-0.4055211118176007
341.7345886230469,1.188507080078125,-0.3609446789155908,0.030944084951851386,0.08351881762215074,0.3549359559375148,0.124328465580086,-0.0381226993497015,-0.014918325663436042,0.0053083573782352015,0.045088426780907125,0.13532002336843635,0.05035472128094813,-0.03067352257844469,-0.13322383871919596,0.15252075677387733,0.3280463650694941,0.011436329227807083,0.11598249686285095,0.024259874719151638,0.019459648443326386,0.049731756968297736,0.0408810198495024,0.006779396308067443,-0.06225635290869653,0.13233751351371661,0.04840312277033207,-0.11562930816114164,-0.028855252228748254,0.02976363271674695,0.05466963994451225,-0.04791921867372022,0.014108711636765565,0.0471885616806204,-0.055391435407773325,-0.04124153490572117,0.12460959312269704,-0.00582024239382949,-0.0321065928345817,0.01815118802908947,-0.0572082156938909,-0.06883359064091069,-0.0046573940700730156,0.024828767884882582,0.0022257384235460104,-0.03949093032640584,0.005083661406708717,-0.0818188319551614,-0.06580455768299287,-0.007473597453826428,0.03776275026135119,-0.05517371609573477,0.031095220870468513,0.02677145961991059,0.011109933645413532,-0.0822437480131493,-0.020106382730364226,-0.004316507503090478,-0.011759491001700503,-0.04749024770275298,0.03338758691137282,0.04343105525900568,-0.0425539594544309,-0.06788413032807952,0.018575799072597616,0.0019318493479566004,0.008618586106906984,-0.022148007450010932,-0.0001877661329575018,0.03802636588284345,0.02105850856944914,-0.0047816985863314496,0.10011609022704586,-0.013723123571474462,-0.06381125665674232,-0.11752546195670273,-0.05306372782903043,0.11249731462918196,0.04019109826461595,0.006982768469232284,-0.09543447317099195,-0.011226707047987394,0.004573589101014124,-0.03318320619211179,-0.07224171895391387,0.011527012201132076,-0.19755799663764775,0.14127785321112282,-0.0073108599798479635,-0.18170747975167234,0.012082831669081704,-0.07936402047754734,-0.3145651778790782,-0.2565430580039298,0.10256253848407593,0.12280169795074766,-0.6004959931360702,0.17399767478482683,0.004794423963383622,-0.3188155037984779,-0.2697699954631904,0.13009141498261906
342.923095703125,1.18829345703125,-0.13685913892241258,0.5361106666038736,0.045398766609266394,-0.08577322611664787,-0.05645292529442818,-0.31246882194952147,-0.05908352931182652,-0.016599354056752794,-0.07168257402068733,0.39920023751067024,0.01761796434793929,-0.018374873996936623,0.2101930192764733,0.11350900038421309,-0.20872085317125333,0.16733660469180495,0.10722265020973791,-0.06948557689735119,0.11996651471911228,0.0027164798985285605,-0.012249689595202303,0.08991539430683766,-0.05603306203958091,-0.06778485144462718,-0.004792753348836755,-0.03349032683846726,0.05038478153214549,0.018322639212932125,0.03629852988680452,0.011906083044703752,0.03171106700830967,0.016001502326888517,0.10375971813170871,-0.025813599469168818,0.08543013955439607,0.034314933053520735,0.09116357364631268,-0.022470236564646515,0.020533149282148326,-0.05503420479998199,-0.026595397669942036,-0.014529315830143608,0.01996360276152466,-0.012350438579113644,-0.006040843213090246,0.023682927288357303,0.028970445173354346,0.06282765627758866,0.025263248003661233,-0.0331526760818729,0.05075558748190091,0.06947934647120632,-0.007693496816754641,-0.0668975682540531,-0.012610948852818549,0.007055127004870906,0.0037256116965270784,0.007758382300142868,-0.014549508085411623,0.012783766010873554,-0.03301522983717977,-0.030761877652448956,-0.03886187783808586,-0.025032312681103796,0.05039286260143562,0.07793352002073524,-0.02249474740641912,0.06888160508577731,-0.06979506592388011,-0.011987151210844892,-0.0395618625107399,-0.07152909456858865,0.05558510527208976,-0.06733450973845298,0.022131994924659042,0.00029871579553138877,-0.009664176582652277,0.015600794405425857,0.0330561893943428,-0.008946203841099561,-0.0689030298085087,-0.006453450374946549,0.0033727394648486583,0.014875839910844846,0.06239656930943926,-0.01276933870300316,0.02509603358159493,0.3709773256842356,0.1888664938590668,0.10982893629442166,0.01068831867719974,-0.3904008287718598,-0.1260661699100441,0.41956818856516104,-0.10166361759504138,-0.11623530120409808,0.1497947409701014,0.044176348053177536,0.06712778569242783,0.015683044630716625
344.11138916015625,2.677001953125,-0.02919902826909726,0.2161545724328878,0.08413314040836234,0.21990393173911468,0.3544990190939252,-0.4882685427600704,-0.09198945951784009,-0.26444022388242766,0.12890013681920567,-0.12201535249650142,-0.017045751658545247,0.02204928966450017,-0.059486505228515736,-0.03916921931151375,0.07527463508876517,0.1708192140376219,0.018445978358653164,-0.17214429989557437,0.0005215485759910358,0.045257559969881275,0.02045572808386759,-0.08972888573532788,0.04511490702201297,-0.012968905601663465,0.020979695819095458,-0.012982224156265165,0.09951838960586595,0.002018830742435818,-0.00686254002076068,-0.03708509335105541,-0.0366825692257672,0.11002925033557627,0.003870688676864969,0.03715197273643363,0.07895954530059829,0.15400935230021,-0.15000558724182464,0.0003913763576260873,0.08408035170730327,-0.011747720593907107,0.08353125462102351,0.029686059561025234,-0.004332282945759462,-0.02567023761301336,-0.08398455185583395,-0.05939403651665892,0.0012196414828182186,0.01788596231261825,0.013909165701994148,-0.014448691571139505,-0.04649375901693492,-0.014969161620873757,0.019919656790511754,0.010054945995700924,-0.02612295035094379,-0.03352789763304309,0.03578554524129037,-0.07864689727493834,0.06216697161211349,0.10949646312865562,0.00904813171222055,0.05643019160540109,-0.1220873285779376,-0.003367065893235762,-0.023177491854968594,-0.011463556310542564,-0.044642765656961,-0.05629096341629855,0.040913238787363734,0.02971515413152753,-0.054847924689213026,0.10550701686858262,-0.00026975208603939593,-0.04575333819226548,-0.059987237977975866,-0.11938271844178669,0.0626973854858002,0.0885762416641992,0.007799865126847663,0.08071033149123202,-0.04552827890318439,-0.06098398602844984,-0.08497566587976493,-0.08082683437615104,0.04529718776629383,0.05128615183648768,-0.013924525241667936,0.12706734809831752,0.4908939427326457,0.0026524559127717035,-0.12225966967877136,0.25114550218891196,0.055903678649411405,0.059048544687157464,0.3600172859448596,0.1532587883627341,0.056800139185035625,-0.13371763679056992,-0.40562395179976984,-0.4496146283386068
349.3749084472656,1.248992919921875,-0.22213995739801964,0.12218504664860785,0.04890786200871842,0.16335604088078207,0.18079753885248218,0.12186831663467587,-0.5343009140528285,-0.4107210078424956,0.029819996797286544,-0.45134821694699345,-0.20803287272543242,0.1804823722869333,-0.0793705417576585,0.023954075305462272,-0.19416723293262525,0.10574806288023662,0.06274559427348912,-0.015924792053479804,-0.02053582924068685,0.029393559582338847,0.0797484894032217,-0.01527733862416955,0.022009768986860107,-0.020426134727453738,-0.0268684270659441,0.05431372987770036,0.03988014738295223,0.04861028942267921,0.03680647592069464,-0.009571977643301593,0.03176492979289224,0.018677059231723928,0.003749694342909299,0.04271657204008052,0.010444311712731205,-0.007124373015364528,0.08880679182246431,0.03883549136579481,-0.06857627985536612,-0.006955281394096705,0.0016360140618305523,0.008490214978532251,0.025050271474487212,0.01733961116789428,0.08211175828608244,-0.09452852228969463,-0.029304323490317995,-0.04001657088026271,0.0877727878212961,-0.08708520530148468,-0.0754050157023145,-0.06903981822892251,-0.03477921733078762,-0.007199569105774314,-0.005628421575825524,0.03060359293893124,0.016042940572084916,-0.10367341879597318,-0.03820853015580339,0.05235003324563715,-0.002864366039573891,-0.0011693896752349895,-0.0010788847494873008,-0.014446979021450855,-0.07670594408379189,-0.0011006355064894738,-0.008328808947325225,0.006486248951390818,-0.0018633300128482787,-0.0803761254079976,-0.1091271976329839,-0.07161177342909758,0.08613558010689065,-0.0087379214332112,0.02993448444092775,-0.02033984856793387,0.09709155880863828,0.09981183497793675,-0.014951406780762845,0.09424366213769411,-0.01850913238744105,-0.08093911731110227,-0.061733255678895024,0.01570407969805907,-0.0799920429285274,-0.005727957820548368,-0.09670159410361209,-0.02982262134321228,-0.01084733767585533,0.04539280769909064,-0.02342352058222342,0.010546083289702541,-0.06352270436401483,0.12433466367570645,0.05620118760079143,0.0471208573421828,-0.025217891538314233,-0.08668588796163541,-0.015941269744945127,0.025490593146898822
350.6239013671875,1.238311767578125,0.043463418147671753,-0.0055204159560499145,-0.06303224037857275,0.560818846483961,0.3354409875258466,-0.0317736336627108,-1.2001969661496612,1.3563850556064398,0.22057697673253956,0.28840588894047275,-0.10380440615266005,-0.1452539295756446,0.06310761633926493,-0.02937086859155328,-0.11249654826909718,-0.09396877442742739,-0.06403236146114888,-0.32175232301378276,0.0019982755805225665,-0.01931627537834277,-0.06535389500085936,0.13844848596784237,0.043893278100735976,0.07376695061776609,-0.06258197724762851,-0.004510490920219534,-0.1665129833757863,0.10418719522358591,0.06785766035119609,-0.0365090190489572,0.020542676590513762,-0.018606125640470924,0.03763738669651825,-0.1273641629915423,0.008412259686975655,0.0806146848696409,0.016054518250494726,-0.0985149895734538,-0.005834398299010201,-0.10088004296946441,0.02682762676313857,0.054264044811819914,0.06297184129284471,-0.004302741423285652,0.006400430773625138,-0.009071324821761458,0.03710423140625637,-0.051238264185114825,0.05871088433615568,0.061372795050565004,-0.02093959202954636,0.02693914804138055,0.04305476857043075,0.026807198338054977,-0.024516878551750235,-0.007006345405737756,-0.013804279555012828,0.014658562397466022,-0.12435587959800054,-0.012027808351221098,0.11985459176521922,-0.002849885627085616,0.06560243221647753,0.03445901134916153,-0.09472398256688988,0.05418728391109988,0.00962986689221141,-0.06874950738092092,-0.23885201351337843,-0.01473684873912166,0.07143874533062207,-0.1683150776848735,0.00949839995463539,-0.0035857582557028284,0.1306028172918423,0.03545353106876285,-0.020632414601299696,0.0033748853903187576,0.036226270471170864,-0.0037452965839067506,0.05358573607017194,-0.03847476815256658,-0.13021484871457809,0.012764693091363653,0.03682534622289852,-0.04214380681896836,-0.02042968254531825,-0.16097226018473842,0.08376600283530304,0.07752846660338655,0.07282832503187829,-0.030085893812624026,0.23492237041751537,-0.04480039987007161,-0.14471613128448557,0.02607662639446573,0.12828453501731985,-0.06688058342349487,-0.25939808826375454,-0.06091952635133746
351.8622131347656,1.218475341796875,-0.2172957645361423,0.04829479792933585,0.30388739371602363,0.011335052362592205,0.09247240724177604,-0.09219654397184232,-0.028779960097069915,-0.03953961355708517,0.08712264937240763,0.42034236003355313,0.14971788111784695,0.06427125682121275,0.020828646502537927,0.16282622060954782,0.01854192440416546,0.10614145515625556,0.06738422250963783,-0.07929372577875095,0.0811557154614168,-0.05286651302314789,-0.003944576662635325,-0.039318894928505405,-0.035936020313855975,-0.03727746956993182,0.0328660432488328,0.03398796376554689,-0.06311608720497672,-0.049862142737294016,0.1046429803112948,0.027677892948770766,-0.07467121772239285,-0.008538992334011952,-0.01727232209484726,-0.01063985743292854,0.06366458987352798,0.09034141643076712,0.033246444161245274,0.06415830697167609,0.0058478974762509565,-0.03164786320508188,-0.05484369349687418,0.08415362199029845,0.07931356081732129,0.026257603204251204,0.021928664831571364,0.0586906053793167,-0.04642915535905362,-0.05717816178916958,-0.007041131506311861,0.1152584109035119,0.0265701132181259,0.04065734214658943,0.03239236294750525,-0.009574938787580997,-0.04695137713845348,0.039660872567849795,-0.02348538666755388,-0.08469169589618435,0.12815791834613283,-0.02534952579149475,-0.026872466805449382,0.0014125530796607777,-0.07309999612104567,0.08050749954596646,-0.023584167736535634,-0.0021208877604168503,-0.031883625830082245,-0.014281509949888901,-0.002273874000928976,-0.08398442126040398,-0.041446872889289145,0.030636256927047995,-0.23200781470054235,-0.06384139937059574,0.012285726067000137,-0.008408643599257776,-0.1345638508256983,0.03732535054854824,0.026570102430789236,0.07918111401337286,-0.1019786759795692,-0.06865728562841238,-0.14315884060984996,-0.04083064829968909,0.04413188311326838,0.05589652182120598,-0.10367084799869901,0.01204678613062638,0.021053901758909217,0.06396263949526103,-0.12556491205751383,0.002498364245513574,0.19541397529985813,0.06857402247343032,-0.14154608105606878,-0.15041824983832838,-0.20415709780643188,-0.08271424626274239,0.3636637983771223,-0.2464965461093099
353.0806884765625,1.2584228515625,-0.34770056769197694,0.10126302852933156,0.07076643594171576,0.28556990964898765,-0.4945686029533747,-0.43973973335265926,-0.1396485487826075,-0.6583499783095967,0.16547621395550052,-0.05550366734403456,0.030973384776185595,0.023184867799303795,0.07556270357009898,-0.000834001259610021,-0.07690821842675159,-0.0020156402856102394,-0.05581847086281051,0.07456943126673439,-0.06939940383967098,0.03766247150745001,-0.04657250861752967,0.00912388205990694,0.14093663321323804,0.021264245462749597,0.06269900611973371,-0.004068429579971514,-0.10986232540453783,-0.11514136601278836,-0.11138272104462824,0.03207010952666114,0.0664991383897089,-0.07921254376192412,0.0005963000705090727,0.0049652564634622975,0.05132385313929834,0.00254212273458328,0.021058073254580395,0.06082042554065488,0.04785228591547163,-0.007781022370540531,-0.006337716775512657,0.02218448079193292,0.00926415878457347,0.009164430488997977,-0.03780728598939071,0.03980434586585327,-0.01059446658687305,0.03055591553114616,0.004875757223901499,-0.0032948198726536833,-0.07361198703816299,0.0053364984024828685,0.016051732222263568,-0.009799413730728412,0.06957081321586346,-0.008304741733728027,-0.051512490183571576,0.07755253350415223,-0.13916027008885248,-0.0005607462364881676,0.10475335682725476,0.09031972568562804,-0.04923248708571394,-0.05072844804017816,0.006352922865819568,-0.008880338591855948,0.012835629359665979,-0.012380241615068,-0.07961683919538591,-0.010794723855728439,0.08909404698177138,0.052518828851882,0.005507897618239734,0.038588978302653495,-0.06903562187119448,-0.06528292286506619,0.0103534862623956,-0.10386187614633828,-0.057651679178323124,0.026421919239520482,-0.21102738989239533,-0.08195993194522976,-0.03412539895898625,0.01166836861665655,0.007665905984418217,-0.1486760976949011,-0.008678718140132522,0.14850629547083577,-0.027311635471222874,-0.2551997662893213,0.154460607516234,-0.10585558261286944,-0.3412923080716134,-0.1179092274653103,0.0825564677556586,0.19521731259174582,-0.20435216813833795,-0.10075149534665513,-0.056103330872486715,0.06294251665497898
354.339111328125,1.178497314453125,0.08252839052927158,-0.11423406995963685,0.03275905124224819,0.04625348784191241,-0.2104240535594681,0.21949540253847125,0.07316857567688068,0.07212320483919041,-0.08948657042899962,-0.26295048033110674,0.22351248589581374,-0.10756482092373912,-0.012015171731474462,-0.05235576504920275,0.09223786233737448,0.09403413604102423,-0.0045698844696384685,-0.01572929452483846,-0.07540780942378707,-0.018260162643575044,0.05693642787300824,0.019846075104917624,-0.014608965522943926,0.1385659608814869,-0.17109785695526125,0.05682412769066631,0.004483572147863832,-0.0693805181420574,-0.05233472089406284,-0.01248319920587082,-0.12266442879574596,0.029103769071239845,-0.005494199537087445,-0.027522728001718684,0.008501148542394836,0.02134313361395593,-0.016712834696900058,0.008036844897928046,-0.09259276024795317,-0.015112885397225313,-0.029156562897405883,0.015841530137038737,0.003929890553753943,-0.011286925064022589,0.030520597036672634,-0.054734468907439854,0.03251442121676853,-0.010159536783973709,-0.09376009012992602,-0.026309026990404962,-0.00400143303272836,0.0635662453093636,-0.031248456359227676,0.017532111175663233,0.01425870636784086,-0.06751835532950301,0.1416394604097747,0.07837945117075977,0.02593726825354297,-0.03354913853928364,-0.006646268425154173,0.02113418152735158,-0.02060878460181979,0.05357133695597603,0.04688726533821018,0.048572244821068394,0.04470213455961624,-0.038114006198529476,0.055560241080747086,0.0735040703167044,-0.05448290103540486,-0.12137370095453746,-0.08478503401619868,-0.05080838158451007,0.016305418788652874,-0.007428227414909772,0.002165931516180109,-0.047632471974352476,0.057155704312246855,0.0992543067377599,0.024311399957650432,0.05454829299175917,-0.08684876078731349,-0.02375354289740348,0.009197876515149299,-0.07497775315941964,-0.17925480241288982,-0.07619977272627765,0.0996870243406612,0.017615521689110653,0.20372840645701112,-0.0601842660308487,-0.3849985339060286,0.12164686262128085,0.013340184696875625,0.29135377306722116,0.10969139594282233,-0.2460868055204778,0.21348794416092018,-0.10146818555716261
355.5176086425781,2.537200927734375,-0.125431822843601,-0.08245637613418286,0.08693924062881474,-0.08987906431661793,-0.03158551125942813,-0.06177012338602582,0.32509224298782774,0.15666239885673744,0.029635669614489428,-0.020034454345294002,0.09659738172798242,-0.0748950730896057,-0.2139356546101517,0.06766755189014802,0.07903771443593859,0.02420471394588329,0.1028111859015895,0.06525238998675703,0.07345034695336174,-0.010095603662653845,-0.026073279822676633,-0.14514307336922572,0.08391888678283256,0.08291458820520728,0.11677013921217101,0.04923385327798892,-0.04814758073363663,0.07587613903032868,0.009668774034231123,0.0627845594325455,0.02860560898701579,7.151146477005606e-05,0.07572519827196621,0.06069020270746132,-0.06791289768071956,0.007046409682382286,0.045845250951871336,-0.06162639097446443,-0.046654675147298215,0.03509299099650045,0.016915725718658715,0.03160841120542679,-0.03718638939427365,0.025591707979396437,0.045090485036815606,0.058610799927977214,0.041259810964409865,0.054859199615492904,0.0070833088138670414,-0.068613110783501,0.04581707516614727,-0.02020920409108598,-0.04895818328913584,0.0019876500302643194,0.04783378408561584,0.016508983710898775,-0.019098950410772635,0.04107661330249337,0.05226165994708611,-0.08879761958810754,-0.0261180037943335,0.04121971040480986,0.018437998411349882,-0.035448445905377476,0.0030975424267167062,0.014591691255318657,-0.0030699651193762806,-0.03524612320293946,-0.04088557273752948,0.05588954609836641,0.012846484220566168,-0.04910298161789431,-0.10057301327216836,-0.005327155713814967,0.0033865974484708627,-0.03826054409826816,0.08589619760248103,0.013275160250465611,0.048226832350173124,-0.04530160116686227,-0.005172576898784399,0.04032505220891711,-0.04238433195681054,0.020887380674816686,0.2249548364949068,0.19726633012699676,-0.053243335427281276,-0.06320132787536861,0.09132775033828677,0.16502935060647317,-0.29178693332080224,-0.2640215404167993,-0.05317190007832663,0.09169964779259285,-0.46712074470776765,-0.47956871144174673,0.30197168694169585,-0.022396679518378062,-0.10662837469388212,0.04206328278329799
360.5411071777344,1.1890869140625,0.01787279103474873,-0.35956127240374447,0.07937648608084644,0.2879954952886169,0.06868256557731077,0.14263045627911952,0.11361531948229868,0.1778641868346366,0.771882164301838,0.26978633407624775,0.1924244019239146,-0.06420172819204145,0.256569375454456,-0.03124705808032268,-0.22205614667378573,-0.07731138775481454,-0.08787345529839197,0.04537651019459842,-0.10177486938000001,-0.014924663743127148,-0.02039510830715292,-0.004456627234378814,0.07495300202830758,-0.06543111730273565,-0.0495715739908092,0.010418294335683836,-0.03682878541262338,0.012698066945500608,-0.09608626156871214,0.1431694500443476,0.08010446638816904,-0.001729412102963325,-0.03723695348989772,-0.006271219782188378,0.024838522782587174,0.0115003560469073,-0.002406454234768907,-0.008836190686598994,0.03039665156983352,0.017296490039584975,-0.015954396625562348,-0.003306455255944273,0.10507206584309993,0.02543831978642153,0.009258449037840928,-0.024600076720561165,0.05171663751323061,-0.00686464815534002,0.06974545766804514,0.05341189103901394,0.07994524303397563,-0.0433153864159695,-0.007342980136446155,-0.02263838261500434,-0.04970378568432576,-0.02845587565073185,-0.006982796938217657,0.05062994609396228,-0.01846713111184148,0.022957196386221918,0.0020851029582170913,0.0292866610810648,0.08915786304413856,-0.016973624468418026,-0.04168610435085645,-0.0010546367868273054,0.005256814414225133,0.04672738708060389,-0.007718749672252043,0.027515976585112442,-0.1153747727393539,0.02554148028093675,0.01881344067846414,0.03592332489229735,-0.09273456819777406,-0.018410353960379943,0.05659588006769811,-0.036482803301321455,-0.002804221257240031,-0.060272103036406545,0.028787688840355243,0.01184143890982639,-0.19611098756206716,0.09765695651220462,0.03577721837042878,-0.09450913980463893,-0.07598920889076116,0.13567461676632175,0.05861899343461506,-0.14080228616931553,-0.10597859283259434,-0.12510173184972287,-0.24656188600001097,0.03308870704250718,0.06725690613367138,-0.031569421970193454,0.26167620766489463,0.08208840149449007,-0.36828747577426896,-0.32138570374084613
361.7301940917969,1.178619384765625,-0.29959232226719834,-0.09642477662123722,-0.2987585612701711,-0.9954169325563619,-0.006168463246658262,0.20067148116143385,0.1465576070275594,0.18179641602595129,-0.03060899454367416,-0.09843594529512179,0.05563346420890716,0.06287023564592503,0.025184398364393987,0.019150428356505725,0.020858293852764182,-0.043313162807712184,0.05795967053795602,-0.04292560022525712,0.021543262331570587,-0.06027439934502618,-0.042430631135701564,0.06503926519824205,0.0031260625812904157,-0.0032874419859211085,-0.11488519636674055,0.029089275413450175,0.0409083091114319,0.01129218566053597,-0.048049328850385487,0.058721071536515006,-0.05304737993437568,-0.1381891325632879,0.05903585668345587,-0.06564421254483646,-0.07380235188017736,-0.004878432272418804,-0.0009396039791873421,-0.06667576973738475,-0.02836161792093686,0.0022662796346185755,0.008419417298799498,0.023773035744788562,-0.001943920418879752,0.061270565229452595,-0.007148013612851896,0.02399220451146321,0.018827909449125005,-0.02439802087253932,-0.026296373090421085,0.03437459984292762,0.0987261037816803,-0.14043514063223794,0.015359504714993717,-0.012094251748355024,-0.052739051971648146,0.018828110598740205,-0.09403295605686658,-0.05122048409767831,0.08514797388174594,0.06549053762092195,-0.10542248718592095,0.03832421084621454,-0.004813040101140029,-0.040421448233616854,0.01773425603824319,-0.001731000935600367,-0.004266490501846434,2.050214981680386e-05,0.0209308872716657,-0.0037647229454984,-0.02065548524155831,-0.0021550593256263184,0.03021510875079357,0.01880968240967281,-0.008754749435658682,0.06667222833803686,-0.03214496106217393,0.057424782992172976,0.06644106795652086,-0.04213416198312909,-0.0007659565239771767,0.04032472098142751,-0.07512564065484785,0.013163261146622628,-0.0051150111815135325,-0.09385656728388618,-0.12007542754132772,0.09880200719913472,-0.10407072111735502,-0.018086465798898443,0.11472614268008527,-0.25144588777344534,-0.10229211514835057,0.6052006888360597,0.7769445870930067,0.16419807204093137,0.07302454656963643,0.2193662036191527,0.20699291306859988,-0.08611778511828316
362.9088134765625,1.207977294921875,-0.21095225215598765,0.01866529211354228,-0.032173700392751095,0.10940387357890989,0.23399071700494203,0.043959268431018855,0.26612508136628626,-0.12754402010849644,-0.15811515165864348,0.05609585516043322,-0.021353822758320335,0.046196801257118926,-0.05519907037507614,0.009033365509176834,-0.014125279255876014,0.023026073458961464,0.048052576411590886,0.012474732220608575,0.024585273187594583,-0.016682043832704486,0.022173067262695578,-0.012169264211093723,0.08345144979456812,0.028628615997625666,-0.26435176866010324,0.04653784916745693,0.023490584219874433,-0.16816608577637124,0.15358499091520572,0.031223546418591548,0.03643189520453882,0.034963389256074735,-0.08145549819967914,0.05045340304431863,-0.06464360517984592,-0.06489746733780398,-0.01957008271884035,0.005574549595828861,0.010528573170980465,-0.06534182665797253,-0.05285591431285762,0.041469199603568624,-0.08069545904981168,-0.017404447446926413,-0.060178989082038864,0.019961413364243553,0.01981111410583644,0.035965905171822396,0.016797513722692392,0.039846224300311955,-0.022907441263361198,-0.004764308104491187,0.05936200796942265,0.043362072531001425,-0.0016696319817736532,-0.07628099221911228,-0.006345995926444789,-0.10136854505298994,-0.06839534420922447,-0.004002919322869732,0.07292465413374892,0.04276322729152143,0.04255985592978207,0.006114762403820945,0.04116555641714562,0.02758302079044705,-0.028484928286497888,0.055135818146151705,-0.0017905156157512,-0.1085113334053887,-0.10700110426343468,-0.08132780337856908,0.14041589672031912,0.0012289947436782134,0.018339571392426986,-0.02009096954183735,-0.04669154400295478,-0.03086965002315924,0.007010868863920968,0.07926869150971345,-0.08472305757931783,-0.03394846302879906,0.030619822560295697,-0.0010784114501644533,-0.02247527207421865,-0.06134315011009922,-0.1357760991583158,-0.01576512328359502,0.2548078259927148,0.13164774335091073,-0.1052450230664838,-0.12144573725327781,0.06947449387483445,-0.13170016097804166,0.2790832793991704,-0.00875474571275014,0.0781964911188196,-0.03225700263948951,-0.07841901173627201,0.0008842597042120494
364.1167907714844,1.15911865234375,-0.12635009718744844,0.070663571095484,-0.012629651315243077,0.04692841066544713,0.2744185421637612,-0.1252048105604331,0.2667345273379357,0.9029530883064545,0.45947513236007337,-0.18107550859355706,-0.0993375238046142,0.5277523630997507,-0.07398628707876215,0.06705065210687514,0.028003560056404614,-0.3975573494241957,-0.1613236039627426,0.07755499522531042,0.0723610587592313,-0.07676745931267025,0.017822065083534427,0.039853355306926116,-0.15789221649920002,-0.004464695089800852,0.016461659996992038,-0.09780527142133526,-0.0017705045681753258,-0.001929940589866696,-0.0016614882446716658,0.010684002526212674,-0.004543969373449683,0.014284943396778736,-0.007285451118106456,0.07979824142018596,0.0048205983784153274,-0.004941953926625205,0.018684350918337915,0.007183207755470391,0.03206020602392865,-0.029896714675403353,-0.09959691504865967,-0.011093517670170343,-0.00778007182008172,-0.007679392882898013,-0.015950449758649135,-0.016797039286941238,0.05512332008605864,0.007221123329782131,0.01304330750883274,-0.005399328039929124,-0.04764947568234252,-0.04824672956817863,-0.031098722783347812,0.028541838447945733,0.032947470236607684,0.0013633051113320764,-0.008704519771765864,-0.04743848426207087,0.0183129716682691,-0.015949891087119666,-0.009149049560990583,0.03321744589183735,0.007073719523775281,-0.014794835241184578,-0.04352222573807036,0.007748306366193897,-0.03896922204619288,-0.04491186190768222,0.05295742097322707,-0.059408282181582645,-0.11293604757544332,0.08651869232337105,-0.011513770428283582,0.03241525263210993,-0.024554136911034242,-0.11387136062786006,-0.06925372447031108,-0.027541743755260764,0.0010531598359830338,-0.09721758432965391,0.000959084680494608,0.017947172568004485,0.07848237000850102,0.048693724188881106,-0.08961797583619693,0.056483341731674234,0.15459339247530052,0.14872096209264088,-0.05691805778807783,-0.29595789357242097,-0.13310083343414986,0.37029827419109823,-0.10017584544537823,0.22285741514606797,0.37724039665344616,0.027689152750402457,-0.3501925010542164,-0.15891121456641083,-0.3653781801347329,0.1410554026843896
365.2759094238281,1.1785888671875,0.14223885835479189,0.0829758584549011,-0.007968918575287011,-0.0854007545026374,0.539960792053596,0.016227697152649215,0.046067429847870746,0.15852337082087037,0.1943512219135824,0.01739364974905757,0.14925552663093125,0.056604637309133364,0.1072955566318329,0.045818969104266055,0.10455236285768711,-0.027578390900192633,0.002332936709507391,0.058174574912120976,0.0077211368763356525,0.0334240869891117,-0.10217114654678935,-0.0053524351850938665,-0.047589640056793114,-0.059450616229923606,-0.07758009326399735,0.0041978044603029445,0.009300782975135563,-0.026992343942561343,-0.006217170942813792,-0.01203045989755295,-0.03217557633226392,0.027832630328480053,-0.06799523882393735,0.016024622011954183,0.03478227054543061,0.00892923949730745,0.07288103713592813,0.018131978005355518,0.00775878557769176,-0.009686299707683277,-0.02752376536192395,0.06255726422141601,0.007666818597268007,0.006129830950021704,-0.04665200996633582,0.0037098147285778765,0.056821298148314325,-0.049937011564350556,-0.0358659248279481,-0.03833926647998193,0.004416721326264423,-0.022167086922903367,0.009141135298334135,-0.047901862852818236,0.046581265995611784,-0.029598432004672926,0.0764722692714631,-0.02685198143430332,0.0004344733945206348,-0.02869913209918705,0.03914819153682999,0.00014245107030476226,0.016207189689988973,-0.049713239862633485,-0.0418634399841977,-0.026168098339564946,-0.011859212405418831,0.029778734890236247,-0.09162123474970311,-0.08103342488900925,-0.01999725673489824,-0.07316590591558401,-0.028576399389898983,-0.08103906432179797,-0.017537349156972196,-0.042904815934765424,0.1242711892013839,0.000944446504413967,-0.07751723274330193,0.06269319182984147,0.0015697664532817505,0.10502498520978758,0.08262104424460091,-0.06290328068351236,-0.012611586414828766,-0.11632734065538448,-0.31835829811356214,0.01971510711859766,0.0034905926675278497,-0.19141275412485392,-0.2354993674964726,0.34733512885986334,0.3712700304657573,0.12434701441905219,0.15349479871418276,0.15448099819073735,0.09788691198774538,-0.2408703985468646,0.024413016776360583,0.1235301345508112
366.4544982910156,2.527099609375,0.128336233471674,0.23803491442678404,-0.08463025853631057,-0.004187261244441742,0.0237704355691736,-0.19294162463114867,0.20561511430604895,0.5778678004343233,0.05754846792983004,-0.26669065216825105,-0.2131699578130969,-0.1698213270479013,-0.1114633753482521,0.00047611337694117577,-0.02105478791052682,-0.028285463682134016,-0.037666847665672944,0.012816021740394668,0.05864609647417768,0.04794852964698816,0.028169409593645375,-0.08796489594493316,-0.07845717808036738,-0.011380700851249675,0.0035365606666765883,-0.0004718186365216924,-4.088778229118008e-05,0.013542739894041022,-0.0010161238809823323,-0.01070432666567656,-0.041016876358771784,0.08954451261199287,0.024343424394153705,0.036899937553414024,-0.017490208157167463,-0.017941638266120847,0.03896660851767511,0.008960049130969554,0.008266197495803833,-0.034072405530621686,-0.012852781665857405,-0.06817376636447642,-0.0024518823664486065,-0.008169004855371004,-0.0009886974911735556,-0.03894444620886643,-0.002339357720172377,0.03009910821300302,-0.04395975052071015,-0.058119013453806864,-0.018944680851367475,0.0006315014220741404,0.01380608869621205,-0.033131291925736966,-0.010302907389190558,0.00395377872217195,-0.015027105930378988,0.020611679867428838,0.002804654167222727,-0.01910049762870676,-0.00983125120107491,0.02938264139396555,-0.007779854002115311,-0.023000651137037406,-0.008329079674474882,0.00017724331392798744,-0.022479834080570985,0.0440413689342699,0.001398151533645283,0.046943307178994864,-0.009901218604068993,-0.07969208321083994,-0.08054990161441544,-0.045094220936465444,0.023192939172113236,0.009401437852625552,0.03667195617820814,0.14994005702219523,-0.033031094374470715,0.059175680694164554,-0.050274936683205804,-0.08604767287664544,0.028636789053692813,0.007975243407670453,0.11742007092028293,-0.018326884757852643,-0.19657864698884225,0.044107599820404936,0.025164638084414177,-0.012491056559365409,-0.2075830782499445,0.040583098261823325,0.23831648380983,0.36376652294306255,-0.3877404670627784,-0.06775218619244397,-0.09493135960354915,0.1371216937884408,-0.061549933198845504,-0.1371161819303338
371.4783020019531,1.228607177734375,-0.5995073583895936,-0.9145073929825707,-0.21166063312238773,-0.34390761535542497,0.7299669549062988,-0.27994539063552604,-0.41047997535536696,0.20152804988316356,0.1451832702164213,-0.05148853752317477,0.11128597851062585,-0.24427601039224459,0.036150417920541245,0.020897770962117573,0.03765267644057223,-0.035600927372835815,0.026901721274536383,-0.032252220028202806,0.046017633862415384,0.151103239704669,-0.006477997811749058,-0.05217106881163606,-0.046313678766491166,-0.001013317478530124,0.039875806619578465,0.05343635512368209,0.009631951873825664,-0.007255417295643826,0.008468533733596845,0.03773835605164227,-0.00933386838464982,-0.041113046347971714,0.02799630120301466,0.0590225970682099,0.03209122411008654,-0.02989910945918285,0.013306498748498057,-0.008246993970517811,-0.013313170929750059,0.0042632071416147665,0.0855529652928232,0.0544596607440125,-0.10724924386220763,-0.09663172860731063,0.10661109615550209,-0.011718117632309762,-0.034754211866452944,-0.006474901894994986,0.04546376965405777,0.008458960911118252,0.02451041235118082,-0.03527893291752554,0.025790466365761513,0.019460761088605453,0.020983818983749902,-0.0026191019694277885,0.012000980804675447,-0.027705792939811937,-0.09354369769486226,0.012336322740756083,-0.002842345682244038,0.07236238824381977,0.032664381977014635,-0.021938807073455482,-0.036520437888516985,0.0004185746413386321,0.021234854827227496,0.005256258535358217,0.06147283887842376,-0.10105785465285172,0.007175902743703669,0.047423126987203926,-0.19909882455912617,-0.15186970782369738,0.02887286898502566,0.05187682469523084,0.058904134252388024,0.05837179552908888,0.06457062432967929,0.02016395474330793,-0.03500996178431357,-0.09397639184640491,-0.05698995697000808,-0.13069544531763244,-0.0027870272646140642,-0.1651758721458932,-0.25690055972256887,0.12919364186031274,-0.11684539950152197,-0.011064075697878753,0.10177204300935709,0.5705876213803656,0.20534170500535237,-0.15930759676113943,-0.3735349925997852,-0.1596539470524316,0.08749268097588997,0.20626921199919307,0.09523950554478453,0.08754133136414294
372.7069091796875,1.228485107421875,0.08849697620963218,0.14515821666691153,0.15128900538416523,-0.0908543146901671,0.03610031436674706,0.07329900961396316,-0.01732037161876364,-0.08782114346719706,-0.01930791233478642,-0.39434540779023547,0.05368902734073162,0.09591470875498939,0.012376040677252492,-0.057475817311041545,-0.07084695046656983,0.05327065967283301,-0.013003766302492281,-0.000163406460576686,-0.0009222083841717121,0.0014387683004202197,-0.001490071790445738,0.051849752752846916,0.004614382565979722,0.09851801078579753,-0.12166888167019933,-0.027053704945909935,-0.0020056698148601683,-0.10683768767634202,0.07433917565413456,0.08224385020664662,-0.06515833221115694,-0.11156527012552125,0.003586518206969579,-0.0025258010160303435,-0.004318557096779424,-0.0039871710171516025,0.009035275019368535,-0.0028714970052612066,-0.005204239737422391,-0.0441345091465543,-0.10304948243249351,0.028217749581098052,0.024649194256962596,0.006403377138051517,-0.004025141693694888,-0.006234545219635906,0.0284977882996764,0.02438823221976279,-0.03438151816595875,-0.005033210867760108,0.04988432553905047,0.06155234761280835,0.004089446781758539,0.06511289556181722,-0.008299701633847446,-0.06876272462148135,-0.008445272881752387,0.00152682328719156,-0.018567265478819303,0.0003808722288937712,-0.006464351475182631,-0.08788493475610029,-0.004716328578380633,0.05422711512626033,0.01807352373411,-0.03323364883073522,0.056893479350390457,0.046979196559116414,0.031626131190956364,-0.03479577488980062,0.03511380786591347,-0.04638698690514986,-0.09634509497225903,-0.07443758628158959,-0.007834423167771585,0.013077065958117279,-0.05167039146356775,-0.05823707058465161,-0.022158313986954264,-0.01766007533088955,-0.03356400788291389,-0.021236166829055336,-0.04576730750569613,0.06671951238716407,-0.0381953951510693,0.015756967456669865,-0.054131216565693495,-0.025427577264317464,0.14068320297261988,0.12306509902316412,-0.029800073670900096,-0.18527320354011673,-0.1681745725079059,0.2830164079657142,0.20730901592459947,-0.36308364484241606,0.023011550557339666,0.2871371663579904,0.10320140645855319,0.20661725771273107
373.9353942871094,1.198394775390625,0.21411011497188226,0.08818400237932383,0.09366000977371225,-0.21911306046795975,-0.06109251012581396,0.26211737656133494,0.6735049415667085,0.2896036393882294,-0.11411403204846192,0.010294357731039927,0.025975286996761916,0.01317749405564958,-0.07388636448639713,-0.08690837230876354,0.03155164737654047,0.024625755029235467,0.07074153724135691,-0.014240895167314156,0.0216040830200764,0.09309507928964326,0.018190574060740268,-0.05927436144446017,0.13622980022001227,-0.030413740960900215,-0.043827889881776855,0.009360564754054432,0.08694890624560485,-0.08264832985919113,0.13443639140375732,0.02625564691846738,-0.016509635123316914,-0.004045333703677944,0.05805679577715647,-0.012719253290778207,0.0003290780754392602,0.0882513082182252,-0.0734582587948069,0.00935414415841835,0.002391028950224354,0.0016682765744529852,-0.020030700407713688,-0.029011615190553827,0.05094397181848896,0.009865912600421023,-0.0074510802759250915,-0.019268033929146874,-0.017109525405623036,0.024079914116431796,-0.0359153652367695,-0.010727397401720296,-0.05714727134787271,-0.034383300718688156,-0.004093848377835548,-0.00956974078496399,0.08331568369105657,0.0593155957573564,0.006283542251400053,-0.007650880160960945,-0.057161486576152276,-0.0002118492169479891,-0.017346466879428493,0.02351748532175461,0.002206435063545959,-0.04951769304087861,-0.0697787495367208,-0.003965538961901115,-0.010646199147458303,0.02951958890441983,0.01113791033671905,0.009497529350808068,-0.008287813562527079,-0.07049493362582279,-0.05646745775187879,-0.005588006955184167,-0.02377795783835081,-0.04315504093842577,-0.009298419455891766,0.032326816827819765,0.03786682223546538,0.03741242923276242,0.030493933425067787,0.0695863576363012,0.060660791498416064,-0.0024592271046865854,-0.015628448364414644,-0.05412921933217538,-0.0052409307433225055,-0.29770619465962894,-0.23204918274345399,0.03436968405770822,-0.12959787734229755,-0.3152065455218023,-0.10946441267018203,-0.016449617190833675,-0.2268808022722295,-0.08724695100360583,0.34765003925501525,0.06822724959966928,0.1086916877554035,0.17112961584968117
375.1337890625,1.228607177734375,0.20181348867894525,-0.18327320160115537,-0.11317028490567135,-0.20670457654211247,0.7137426413838996,0.32800722621585837,0.7822988756901771,0.06534412100078299,-0.11630840760441483,0.401542279828329,0.07040440632161435,-0.008066590007061062,-0.039054404995684404,0.06134252582445392,-0.0554570102876463,0.011949289598760711,0.024702079008360595,-0.016842450361710153,-0.05091505028256031,-0.08963065093572599,-0.012468520991719828,-0.035032558408068196,-0.030967676014649878,-0.12237693785847376,-0.05885631007801947,0.04171417436249048,0.019980518142259755,-0.005383160504288602,-0.05984960380449728,0.018364312585458797,-0.011143104888533609,-0.021912958623765466,0.05102904232248965,0.022860221642954703,0.029695318183664672,0.0032161635830024967,0.00025415754951873827,-0.005650497285213525,0.03050202082689006,-0.023830156168928154,-0.004133282049802467,0.10573340149629654,-0.0103862381471165,-0.05583216981013377,0.04503214823617327,0.0228395150329621,-0.043437778115180105,-0.010350881039657334,0.08252202134083701,-0.06272233049961802,-0.006100100771363602,0.01791022888855822,-0.04763405640745001,-0.007683158667514886,-0.04070906115626657,0.010194710865795181,-0.01045524013218204,-0.07322583799371124,-0.0013654591892967817,-0.016412944967393504,-0.012013181769911882,-0.03649394285363854,0.04731546053191885,0.0030055496844331665,-0.12386109188813801,0.010762355880286786,0.0021446070991358347,0.025799843682156563,-0.03782573627774334,-0.0615411120435843,0.04712628244548389,0.022969133901359885,0.013266716882454795,-0.1315604912417666,-0.07073381239886792,-0.042729945008741034,0.07171954449434885,-0.04130273920477817,-0.01842112599156857,0.04396396464234447,-0.08479212862472393,-0.06599081950532708,-0.09058791496588349,0.09807162464292013,0.023033139716491624,0.08363043428374517,0.07169607677725734,0.016227475004126753,-0.12311095108049835,0.007885428087431992,-0.14071402733232924,-0.04178105906839802,-0.36182578508827357,0.13517876232797593,-0.0037979312644505145,0.23067921328029922,-0.28517181494328503,0.11198402922568212,0.027689936322564362,0.1475961953048728
376.3623962402344,1.1785888671875,0.061684425127203964,0.04587354748232413,0.008303192718088237,0.13812338580095082,-0.15510568997513396,-0.06966025620156416,-0.049720174669397,-0.06574568812896071,0.07722555766409023,0.2894077786199851,-0.09265512111701324,0.13767050606991943,0.004613639448552115,0.040960569115189596,-0.2072733438311042,-0.13088432012513537,-0.07042637193967427,0.037148252917305016,-0.04130956918230844,-0.007290156131057863,-0.09388302140002916,-0.0686321822319259,-0.06705187537939074,0.040294655166381595,0.1098981097635995,-0.11126450126764312,-0.037504691004225064,-0.03988658928067617,-0.02580760579282008,0.0034813999968777596,0.0059437962295418615,0.04428744072502482,0.015612171454997398,-0.013276407484472261,0.02044610945858351,-0.058541629190306255,-0.0006677793103614278,-0.019591752256926016,0.00804718578477575,0.007692156058247695,0.008337233504203323,0.022113449393280287,0.06770241424744419,0.04245661292669676,0.014370581517551863,0.04672979924942211,0.005077271623840232,-0.01656016931496136,0.06159123941770074,-0.010816257237242477,0.005977216053280304,-0.08843510242658975,-0.035151685475359226,-0.004241438442211002,-0.010092745293152596,-0.05491507949859879,0.02830862352851611,-0.04921061080521369,-0.07133789931068178,0.05089343873108141,0.037290631858152054,-0.002226535016758513,0.1422738364804277,0.011228385418529649,0.00801810111314677,-0.034501854933489035,0.04985340775624079,0.0064972717353517645,-0.08225585893535631,0.02096051555224568,-0.09000476255816342,-0.01380492912921319,0.13045900199874022,0.08072390576116141,-0.06328554289912129,0.021496117629813266,-0.07367937542011377,0.07713261141527893,-0.032200774850049185,-0.0452363897098853,0.01504208299136348,0.04140367260581881,0.12125852660644001,0.004445145713195129,-0.014323780369368497,0.13424363253682872,0.06965547896522412,0.02790343322332396,-0.18534714110093392,0.05659553951294299,0.07214780411355537,0.03287692017388756,0.37901268713293573,0.03324394534002238,-0.0019466476085625438,-0.10106513165091552,0.10347008187567974,-0.190269011419655,-0.13589483880798858,-0.28598872496444794
377.5409851074219,1.448211669921875,-0.27076458927773606,-0.18294329709959845,-0.09133661797408432,-0.14826432451675972,-0.28597914823742365,-0.3904969828603316,0.18130115107005643,-0.3049246617324055,-0.027396234211123194,0.19241010244664378,0.03332473204866966,0.45614563970519745,0.17338794901272747,-0.05998082532972322,-0.047801402552960164,-0.18981431116473738,-0.1152235459964707,0.022507031587318503,0.04172137445337339,-0.0019824963839927714,-0.022763024406860073,-0.057581011068810924,0.07449907269737577,0.15138528760605513,-0.0034450676192255107,-0.00511278201040487,0.03659535960927026,0.0173935160227788,-0.008524162131185934,0.002926264280053199,0.08664302020724551,0.10427447807592972,0.0028278007868109615,0.003451842559363704,0.04317284203961166,-0.002174042225312059,0.034634495500970135,0.00831027698612921,-0.004987376451828693,-0.01952549746083509,-0.004616578753995959,0.029180660864610228,0.06892518344053794,-0.035216711799900526,-0.031111822558222767,0.0038144515630010763,0.0019099932837648677,-0.04858980305596588,-0.0016233642349415167,0.02076952426036412,0.05701610952066167,-0.04287161970942088,-0.011554651392807248,0.02007209827878241,0.07082456157441432,-0.047634678502195334,-0.04757103147124592,-0.006508245574184511,0.0013160412855700255,-0.057793883731018326,0.0915778242073887,-0.01126442168068199,-0.04202115624819148,-0.053749902219104626,0.01611147801900821,0.015040034773202414,0.009759093990168097,0.07909536069229849,0.04567410700478651,0.04079522267873146,0.008224011605240136,-0.00595056421537588,0.0378092631520769,-0.03195662076425404,0.03160459838045707,0.05099386333178024,0.029208298419361626,-0.01850422373024979,-0.07339250609123461,-0.04828173636071922,0.0019017896434130443,0.06381502841129805,-0.018358547558208996,-0.06811783678558603,0.006637040181967498,-0.04688414766153769,-0.021667945023455426,0.44319885262126524,0.20287395387666687,-0.12716042834631744,-0.00663558275875091,0.08923765293189521,-0.3900672965932167,0.07092873495684311,-0.33620062387443456,-0.0497168190928463,0.13244209348166852,0.13936854785470562,-0.06055298849266423,-0.008312713032018124
382.57489013671875,1.1981201171875,0.0807021386582519,0.19214546363310991,-0.6963398478014409,0.5226801233952206,0.26356312833481593,0.17464648735856517,-0.18926305333947763,-0.03172377865488214,-0.2607303454167221,-0.11862490200776228,-0.7659717362016865,0.05727043537926281,-0.3558707762026032,-0.3266926344131046,-0.5934684772981966,-0.4774315994262597,0.1864108107420926,0.04304669097622717,0.19062422053679606,-0.01180985111583207,0.040252417683838526,-0.03974676453207975,0.22700469262480968,0.06592623150727783,-0.04534920826407144,-0.12239181056622996,-0.06309041819972643,0.038177568471372915,-0.0521566578062867,-0.0800674458382984,0.12648607023725972,-0.22276381567659717,0.13020631064278695,-0.03225806211480825,0.015429219419649271,-8.990676183010606e-05,0.006234947687728469,-0.004245458469169142,0.004522995297008822,0.012230703032182162,0.0007957519518114976,0.008363095737319073,0.00628036240269099,-0.01269162500304392,0.006798042609506113,0.025719417569194495,-0.030016697484321612,0.10621357028180291,0.055800903616351885,0.010123579475580163,0.052483983838486764,-0.07868733069149528,-0.029491189942448284,0.009426095451517312,-0.039621576745773324,0.03411551012785948,-0.03924148798305879,-0.01766193973960232,-0.03397118896056514,0.07758728476136109,-0.0006289757903683441,-0.0043713607537400785,0.012348135369269028,0.03532202206813428,0.01568272280348136,0.026903780950969323,0.051328907854110414,-0.01553471531893947,-0.004743372420101463,-0.00660668874111651,0.07103805689995778,-0.03691654295952563,-0.04369318511740611,-0.031081651868741997,-0.06542630893765983,0.11534559278334479,0.045598754365011734,0.044635352754374934,-0.03403489400053686,0.10597868947167499,0.030688497846980887,0.03552311399339837,-0.0614752857926783,-0.09960450446372411,0.004032463087134869,0.04517332815888331,-0.06676846972599913,-0.10192087504892118,0.2651905008035208,0.023423336393410443,-0.04713540108158569,0.13310807507297584,-0.1978551627638296,0.02338225026645474,0.005208964304445059,0.1327118667439906,0.21100685024598007,-0.22105502489060955,-0.9664780316117969,0.24520718242654332
383.77301025390625,1.18890380859375,0.24429410919859734,0.2687401187544116,0.0981772888459367,-0.025328791484614574,-0.01898389714916177,-0.14508985619437864,-0.17836210327041502,-0.17563175531811565,-0.1365269148312704,0.05229765215103987,-0.0029995101676809355,-0.004934880138464741,-0.03566555309879575,0.016309053164558426,0.33054106410986794,-0.015270536879947356,0.04158992076815822,-0.025524995735691298,-0.030485487075714815,0.06539995096750308,-0.009221954885164097,0.0090064743433596,-0.04350810191922275,-0.05701258371585833,-0.02683939242845354,-0.09385578888442428,-0.02869072707269412,-0.06968236158077715,0.0047871238180500555,0.001261529913741478,-0.014595416409262452,0.09378568518618963,-0.07189456867928046,0.01704412244785805,0.007938987437785705,-0.0050459980521113425,-0.014414584213349593,0.0815254640857197,0.021769681242329048,0.00762041287446049,-0.007582676633689507,-0.015350199390926038,-0.028784057920623708,0.04214341488434633,-0.013142550361319909,0.0016655993498886634,-0.03912589124275755,-0.0051763277749718945,0.04975343936158791,-0.03754241481835989,-0.0019279686801790346,0.03757991650914811,0.0008289666240953067,-0.003474282425787352,-0.02628009395311643,0.018790940809353587,-0.00017442324178826348,0.002255725935200475,-0.002427793490433793,-0.030772221162356932,-0.007113794273871175,0.04287851098072769,-0.03534356019647862,0.061901067539212214,0.02441233304496853,0.018616142960169987,0.01348635380517479,0.03530282056468241,-0.005224533374424868,-0.043292635663193316,0.06034045063059018,-0.017399929562591995,0.011187388166769084,0.09145215673587417,0.004728970413922302,0.010160356905141249,0.07387041100423038,-0.09034886221551175,0.0711856358082496,0.01649204797963865,0.07886304737936681,0.008752347197647089,-0.018167815213145935,-0.12088149953031659,-0.1402530788777002,-0.024504566317793002,-0.027813162051766517,0.07565306615369277,-0.13478219180547427,0.30480964621575946,0.3380898729679156,0.10284800177494445,-0.04493969809082205,-0.3673891222816213,-1.2326225525054386,0.08620578737260066,-0.24347568447774873,-0.19862951121691627,-0.6080343211207607,-0.21281708609468286
384.9619140625,1.1885986328125,-0.1833738946880451,-0.000360678732130729,-0.1669864817300465,0.13090313169634749,0.44403471854800713,0.329404961644894,-0.014045867258296665,-0.11453894143455563,-0.009394206880085423,0.051260428389365544,0.007238559528929526,-0.001697852071408379,0.01630027746796004,-0.023568833954986892,0.07087436404835477,0.09984264276973732,-0.07275043880210348,0.11258998254436624,0.07794129875071547,-0.1562197009775936,0.06884475901369888,0.0668157879245314,-0.12330147318373778,-0.03906845071920806,-0.02671090665646309,-0.03918736930375916,-0.0051629026039745896,0.004781999502964389,0.0359407616377353,0.006276802210900657,-0.0827718986349441,-0.0021240596860510855,0.04572606752320979,-0.01932540710832334,0.010334765602208907,0.009399185096435529,-0.0509854027351972,0.04309839853523307,0.009101816748159046,-0.0036746921202801515,0.004768096092697795,0.12003464579274767,-0.0075158730348962345,-0.07032298736826169,0.0355685474807262,0.03662811439315667,-0.04885588870510295,-0.0489558161477979,-0.04446271018905907,-0.044094075144767424,-0.006528131281049199,0.11222334324938815,0.01863472836852828,-0.022921402292168214,0.006992765720980414,-0.06495788990493101,0.0003305358631461175,-0.11562541853434413,0.004505219818554298,-0.011546124219285605,0.0031331455572687654,-0.033291896855350146,-0.06511006487924265,-0.06503366326787534,-0.0013096070205485559,-0.1064279240578845,0.02139547162604554,-0.0740653802339638,0.0615642848486178,-0.026922961583421876,-0.01591385010927208,0.0553627116253498,-0.056879126044566256,0.03717257490326641,-0.11838351920834855,-0.10400707796833498,-0.09411024800429499,-0.0786660586413548,0.05362268676273461,-0.1022728398313616,-0.008885163413404609,-0.0657100900882029,-0.07758866432950003,0.03889423700051707,0.060114660989534247,-0.10508986053644966,0.03360336313893267,0.1374438808453342,-0.06528161188443228,0.061307258691932986,0.0009458232351180415,0.09759175653141568,-0.33583538130113894,-0.42333396931858847,-0.1649182330633681,0.2820390372940717,-0.07154363464239451,-0.22746477683198413,0.029871684589585754,0.21695524033707986
386.1505126953125,1.1785888671875,0.21458259486031833,0.5228133613102103,0.05326397650163833,0.4696431542185042,0.38377712393629027,-0.01682476019487871,-0.246728511165671,0.1018037932893846,-0.23095977190671918,-0.042189311334418306,0.025270798252249614,-0.008143836362906354,0.03842437822606099,0.06899313191318954,0.12014026764958949,-0.4913918704835814,-0.10960438759514471,-0.09978760689968275,0.13549027696745364,-0.021283082421583187,-0.0009324607324914668,-0.02918474178840952,-0.11341262297913166,-0.09028372949497156,-0.021158155103643366,0.006628574631834331,-0.1358238245116529,0.04222944311788369,0.039624995902740524,0.043854398586379816,-0.02565768490603542,-0.006551486480250526,-0.012211978738395354,0.003246142049306921,-0.03582866634196606,0.019500738160386513,-1.0356714641759825e-05,-0.0007313853583372632,-0.008117430594946056,0.010252398211019698,0.017216665929080627,0.0024872276559208544,-0.0418613775112213,0.028282752042333617,0.004832017424808202,-0.058278093035799214,-0.0161640033305278,-0.03102909636162532,0.05107317602323851,-0.07489788080359777,0.09645185069407716,0.005917557524015071,0.0573423599652731,-0.0297040958323071,-0.0016951295429864285,-0.00927313389860231,0.04466795739902285,0.027846557934238573,0.041239236629891415,0.00925286579940483,0.02506998463484406,-0.020512993541910645,-0.08687203331089827,0.04500617694408321,0.005184368461660938,0.015507309578549254,0.00013182810691562532,0.04383389408806568,0.029133866919153817,-0.029973823987114553,-0.014706891032239103,0.07944626532910995,0.04960915442894359,0.07851447829783188,0.034666139861029996,-0.02627372980545213,-0.003733598519678344,-0.009849285670992804,-0.05283926974025432,-0.008075260015570134,0.018815353550469132,-0.08689786890588645,0.026983060073258104,0.0993825046068734,0.06540996738010713,0.05300781587460574,0.0225482309140755,-0.029651661858542143,0.1505293114363279,0.016431521766388416,-0.2596971219584939,0.26138835316537223,0.19507940432520296,-0.6042096199187406,0.7414345984484875,0.1745028730926027,0.11763850429881727,-0.11947744513616869,0.07730731040441852,0.25243044699691386
387.3291015625,1.1785888671875,0.2923406055776444,-0.047243237018219864,-0.08968146682825909,-0.4829490196773259,-0.6007763308416402,0.6875345812828273,0.16218826252610372,-0.05583552870846881,0.09421128545764229,0.07170682296114773,0.35846015754252974,0.03795993241420166,-0.08145337536110649,-0.010949152126354778,0.36715018632430846,-0.14150655377608015,-0.0017727602565674383,-0.019771559612012653,-0.10334234383316585,-0.007317138630784044,0.01759841379935479,0.07297396166692306,0.0007091974498094323,-0.059262041871896015,-0.051904094412870375,-0.020281459622772377,0.027051831002758115,-0.0004597306651055083,-0.0008632015026300843,-0.0011593803643082858,-0.017904190646488558,-0.005017352687020758,-0.020194486032734642,0.022867603594996247,0.06915596123057269,-0.0009544432479540055,-0.11613598592681264,0.038500615012860256,0.002039425491225747,-0.011542148898453636,0.031341215668306784,0.011505395526787074,-0.002519816264102352,0.0043025917508087794,-0.008036622619123867,0.024793890444908418,-0.011120951064558515,-0.0009519603652792646,0.0618730601024344,-0.024319681328186238,0.029467473363783022,0.008174909148202257,-0.04302108313483835,0.011837821099426701,-0.06155235558382474,0.006676074705021547,0.012134041932771804,0.05466555431316212,0.0002403679148317711,0.050879000660177705,0.009941106337466648,-0.02267361638325367,-0.058114545174880176,0.0029007779240102123,0.006185375335011775,0.05644023676696537,0.019207845962616085,0.020657394302938784,-0.04426715059323516,0.0005811145928862867,-0.07900887989465483,-0.023370919402847724,0.08550501580905545,-0.0039691082459140156,-0.03434006282409818,0.09049666069935464,-0.05810430134559895,0.024469082090650615,0.01896574156416682,-0.040014328998239236,-0.040903258549055646,-0.00045250561419062015,0.10462476868623419,0.0314220528648704,-0.058175879112841604,-0.13738407824804388,-0.11463716840764406,0.172775512487224,-0.028652443268684477,-0.1875313558586744,0.26261052347186714,-0.12670101673479836,-0.08366094226751648,-0.12645135192031232,-0.16454250588424166,0.2872455390352175,0.10563340745226135,-0.0789909677404893,-0.15428927442565418,-0.12127240926536158
388.5076904296875,2.38702392578125,-0.11670142734018354,0.09246387653193068,0.02856183817379694,-0.23867880206865622,0.16032355513005742,-0.15964506516686433,0.083342495196307,0.0698108457520826,0.03684834884604293,-0.030182359757712714,0.10951303414577722,0.09412188649374288,-0.057720599415868025,0.044582310107906586,-0.020917589312415004,0.09920610754499457,0.05102893735184266,-0.01204069785563457,0.007061333873667488,-0.0021593624707046946,-0.0839570105180792,0.043945921987260245,-0.0467391619559818,0.026913615305269603,-0.02594408969922328,0.0037668282279361837,0.07526073787612435,0.04160793786861451,0.035246529933527046,0.004049837290901316,0.00011146615048460685,-0.0006739093715420366,-0.014886637521322965,0.040397784181260936,0.02417441286114727,0.005908205619782787,-0.0017382050953120938,0.002202021031548242,-0.04762362875111231,-0.06230708688336867,0.0056528781579448135,-0.0012062040567699288,-0.01358983898539345,0.006598816792125831,0.0002760101442974283,-0.024661607827989613,-0.00468975993823957,0.05526244672888308,-0.0557327102410775,-0.04438445944108888,0.0036813219419791236,0.01690053129732281,0.019234536407340137,-0.06905691245757915,-0.08960992061021923,0.0033680804455015934,0.014449849981831776,-0.04056106621878125,0.01338974991768702,-0.0014979898467656662,0.057968024147705306,-0.0001713255638603235,-0.0287323700960449,0.006454769442595085,0.004615982223495259,-0.00024770627395224776,0.009264225209487614,-0.04764535423980781,-0.011387241974024567,0.09782851673490602,0.05944216209438134,-0.009754195045226406,-0.05673025547879964,-0.03447099805609476,-0.0763637870831512,0.029105730438966665,-0.02539305468509048,-0.04239780136513341,0.025074478364552413,0.023365555569610716,-0.036153357501228764,-0.022084524664424104,-0.06231857822334656,-0.025072622725202425,-0.08218770328426565,0.08126319573726294,0.0012614784110363507,0.009242617949387053,0.016191488842675638,0.28988102986214953,-0.3907852641124748,0.014312669917094288,-0.12579249679753543,-0.4216630884520868,-0.2854654544758872,0.06281025823491196,-0.040891452441845035,-0.05975885764147248,-0.11116493989556356,0.09973985656326538
393.36138916015625,1.168914794921875,0.6111889733017744,0.006273548265196403,-0.41050673932158527,-0.11575352948469762,-0.06224561241038988,-0.2585541768225368,-0.7316761496416148,-0.045932711363620676,-0.08111578546172372,-0.18127668973724761,0.22341805596205494,0.11037423466844413,-0.29933594411008124,0.21968387414548776,-0.024350740105957062,-0.01428754533467489,0.2252619184527638,0.09444212291762313,0.02616919643200943,0.06468845654147155,0.020965970912931557,-0.006679708399593165,0.04734124283457764,-0.017017571418992405,-0.007886141897337133,0.09673157035921713,0.0312684403019087,0.07105141438273672,0.12876819283936783,-0.012220429838382169,-0.051282669685852454,-0.09022028847378047,-0.011034914722633106,-0.008526011562849732,-0.053639768595061525,0.022916028768563003,0.016476762358370204,-0.015977249314418754,-0.020447749121984958,0.011793972215805124,-0.06793174689604892,-0.0032501936978443988,0.01603753095755851,0.018413534533167866,-0.01362229647318619,-0.026473356829820216,-0.023770366632243287,-0.02650538715613098,0.10467288694869571,0.08751504807329255,0.034566047121946684,-0.01995772761399181,0.018638152454167757,0.05170712981804525,-0.025989694250214593,0.004518799831627611,-0.022640058946863474,-0.12218375351758103,0.07064152627221706,0.04454219811772174,0.05557232291099547,0.004991579305411137,-0.004554384140817224,0.10633970868576831,0.00123228230722469,0.003542019914016857,0.02630023259884913,0.029044996625707184,0.030868772293373103,-0.013530137592124852,0.010360152772208689,0.05371779447072794,-0.07672724921874124,-0.026133715542526036,0.10803120132598129,-0.029773827977597922,-0.11374947738846977,0.025152374359194,0.025571717171546157,0.0010418095319295502,-0.12123213526208189,-0.037109497662181024,0.20828449259399368,0.0018165502753448538,0.04922218077556499,0.07466017375907599,0.018598303785936708,0.28096755300444354,0.04444386559766149,-0.034346173741581165,-0.07781934243627042,-0.17281256032480466,0.12125911407410395,0.7061990691434531,-0.02048048612760198,-0.05713404775972901,0.1262887087656184,-0.17691239775053866,0.014776788153933573,0.2561110533816709
394.5303039550781,1.1881103515625,0.16003663057063103,-0.14380296253482006,0.08367737455916563,-0.26529850428024976,-0.34117250079322264,0.28748541502513736,1.1679704890626563,-0.037859652315122685,-0.40161577105287016,0.2504881851653502,-0.08295433504877109,-0.36877030169784064,0.012457840756662073,0.05267268135689511,0.06512329131777768,0.14033742687546555,-0.12593531929081012,0.00801905354168038,-0.011320445127697767,-0.03950684985784558,-0.061411662094947375,0.08991994951392605,0.007089536601944687,0.06684913601531502,0.009499923652960072,-0.004163425514456238,0.03750829075432117,-0.1164457545316349,-0.11846316122959646,-0.019356891466461433,0.03955031136550359,0.0028132479018922987,-0.03776803838100123,0.053014720953132845,0.024745806112858683,0.022802349974316783,4.289079319253863e-05,0.018417709034336142,0.02526698592332728,-0.003467287648495956,-0.030983756768901957,-0.004886293031373869,0.05286018715105874,-0.012055978670288486,0.04683198317524852,-0.033037802214282534,0.0728880479904624,-0.025293261596156552,0.005613791395508239,0.08614894593470108,-0.04617701764351103,0.0035731881802458787,0.06420051178077954,-0.01180470893866841,-0.004388188901528452,-0.027445167266677506,0.037428411711185376,0.03644218255399318,-0.02856840266003752,-0.03349804147474701,-0.0010724134219832016,0.013574124225374141,-0.005325296611126167,-0.02395201108943188,0.014586314940872147,-0.01190940950071709,-0.005715242155991306,-0.015700184505055233,0.008875720723892188,-0.0033089732240957287,-0.06470258765778648,-0.1408216581394078,0.071491073355604,0.010917889858174951,-0.1328881110081388,-0.0771868280348232,-0.012589901317059239,0.0010660158158259658,0.07503084035550726,-0.04075206550825056,-0.0783620615245151,0.013680305658483854,-0.011785671520408946,-0.07205729062953455,-0.02724686490057866,-0.08538115700580517,-0.030190873233200993,0.1250512835499082,0.036394223874218395,-0.023142525973071135,-0.03423926480869646,-0.21749462003291725,0.3170588105542837,-0.10714846089801533,-0.5137256295382239,0.5413183798254587,0.02962307590104574,-0.7894281828957193,0.0013400910135621391,-0.03586186942153233
