start,duration,0,1,2,3,4,5,6,7,8,9,10,11,12,13,14,15,16,17,18,19,20,21,22,23,24,25,26,27,28,29,30,31,32,33,34,35,36,37,38,39,40,41,42,43,44,45,46,47,48,49,50,51,52,53,54,55,56,57,58,59,60,61,62,63,64,65,66,67,68,69,70,71,72,73,74,75,76,77,78,79,80,81,82,83,84,85,86,87,88,89,90,91,92,93,94,95,96,97,98,99
30.436750411987305,0.9293003082275391,-0.14768273279584693,0.3593659384877061,-0.08055814702917093,-0.1095166049957364,-0.05550078196826887,0.03236962968478603,0.1691742470021856,-0.07141911408168039,-0.04219060121565976,0.2125257925040575,0.17947307199323936,0.015548506119066417,0.05199456282144707,0.020571840084678758,0.08514450036186359,-0.0278099891187524,-0.01729085751142537,0.1302458349082356,0.08232901987319556,-0.09080325284794553,-0.07452401505080232,-0.03391557751303295,-0.09095123318659012,-0.06443029290284494,0.36129803351990536,-0.06851464060394717,-0.13316003705307863,-0.05560221374971666,-0.005916733062976701,0.05886717433883927,0.14244503061480834,-0.011838165949511759,-0.03605507418901987,-0.18835952085204477,0.05624664931067866,-0.016686165997826952,0.05756099737699341,-0.19483928550766316,-0.17458693001139647,-0.44973527168151206,0.05920250749319721,-0.20212320571243717,0.05245215716713351,0.137090519308194,-0.03504061787146312,-0.009733484467827402,0.008503317919272769,-0.03748297514485503,-0.09680664857893433,0.05293329949950291,-0.05846435065001489,0.01819066137159315,0.018771851234887515,0.0010399389252656883,-0.039286069710034975,-0.018272881479195976,0.037914428760542025,-0.002010604253539247,-0.052906529567205984,-0.00661199230843579,0.05402816566162377,-0.021708846000364983,0.04560254426309961,0.018762607382740062,0.0016675149216044379,-0.034141228466456154,0.05991591818945234,-0.0892938019357953,0.14160556961741302,-0.0038848782219665715,-0.005611321960986286,-0.00041905797112640154,-0.008620111041426667,-0.06784970520649704,0.02919300585191639,0.048777831027266516,0.022423192529954616,-0.0363480756401283,0.03758662039450775,0.08764453062816181,-0.08174624454579482,-0.03307443770595172,-0.13407293968936715,0.07684232401700311,-0.5680450460846828,-0.04589803262811625,-0.4173289783615513,0.39652312222578934,-0.26127706488504887,0.5154367927848709,1.334004196464469,-0.2336682980527527,1.4182675172186854,-1.027266304355926,-0.3565797000279575,-0.4618257407794959,-0.06329132915671025,-0.198028075091434,-0.9369110624605915,-0.20829542503372933
31.366050720214844,0.9395980834960938,-0.05945949788267457,0.11889084170805093,-0.053525536666960694,-0.18124788916893197,0.22316704241236146,-0.09090439892967886,0.03444386379866819,0.022467756109735827,0.13116362953272928,0.06016123560290224,-0.09417437349844819,-0.07106272071384917,-0.044506034651141106,0.0030378946587585644,-0.009358637028613032,0.10724941529436083,-0.022147985365046037,-0.031017109894549443,0.07030034005687995,-0.008331860742124171,-0.050955494494856216,-0.010035546391998135,0.15463330691390645,0.12555622664001065,-0.06760648765612311,0.1771087268929933,-0.12506278421643252,0.11598899645723558,-0.2783552873927077,0.7197356742281248,-0.2513994025401059,-0.05412393376996623,0.1827840404679843,-0.20062173035932157,0.01862933320706967,-0.001774330043571545,0.27572563444390613,0.09705251603753448,-0.012645521042105437,0.04519920295024635,0.130067117622453,0.019558473837565676,-0.02797401675113053,0.027856039631484808,0.008357701448546095,-0.0060730985728479694,-0.04001170505988054,0.016725762175624725,0.006140083891652201,0.019174892854189062,0.015212263438174264,-0.001327231208008827,0.0022889992050325156,-0.027190472213740192,-0.0062100662741155265,0.02541390619409357,0.027132957216486855,0.03198776090645817,-0.0121629060873034,-0.03364244091343714,-0.032663779890069744,0.02380906336421496,0.016675866234011537,0.03637355970330224,0.015303271666696481,0.02366408819077984,0.04533150988340769,0.0025694981465663037,-0.04155404442636595,0.04932724945246349,0.0004039443899672883,0.07851667245894789,0.015534261932173624,0.011646250452143868,0.013918408334458017,-0.04441423763686812,-0.04777325042290426,-0.19613017977464764,0.00556435330974292,-0.033392561007238405,0.06992118751113946,0.07974168051139555,-0.044781302777202006,0.024235909601297893,0.4279663118713611,-0.0202606425378387,0.4639718075087031,-0.709501784365538,-0.11447374005926335,-0.29925781594046597,0.2270820477889724,0.33513105838445384,1.479047191365181,0.4912136997142755,-0.03497274726619365,-0.8833428644661631,-0.45919576364912085,-0.006437327775196719,0.6008324854261742,-0.40262641459357373
32.30564880371094,0.9292030334472656,-0.3623168239850991,0.0319523931052538,0.0033734240929661936,0.00905639672222432,0.122923730544063,-0.08890388277710881,0.25858161103563987,0.09143482046840949,0.02519115175772433,-0.04086778988795336,0.08514676417091332,-0.12427129530787995,0.05014960850213874,-0.0818725784628314,-0.02535496071203878,0.02332365865473407,0.03090837596335934,-0.038959034665383224,-0.06083084949437248,-0.005159018107371814,0.027118741863224965,0.0007107962504184634,-0.008680068888030974,0.0009868827052098503,0.0492794048826782,0.023082831090849545,0.10019348160324253,-0.12561804373323318,-0.0066339471204697985,-0.06894425138141323,-0.01364166938828695,-0.0407537953642166,0.08601617308903219,-0.0046714120477462096,0.05687801762127126,-0.02942296289974716,-0.03103487492695185,-0.010307773772000765,0.058579356255644796,0.04724699034800555,0.004657802026079617,-0.02664885929949594,-0.010617670726628314,-0.003946554566334019,-0.030495630833998436,0.014755475538393625,0.028796292405824753,-0.008321464987471988,0.023297407098557644,0.011109761655495572,0.07139731279067998,-0.016150330756017142,0.03881736938181976,-0.029666115039793328,-0.023874564599254706,0.07457864261692625,0.009787032175507703,-0.016966923056441183,-0.00238021800849435,-0.015425536880291479,-0.07283510318762862,0.018674827735150556,0.030829597132496174,0.03086280265677484,0.00453456178280459,-0.04213344192022365,0.027995853001544328,-0.05642924499217281,0.05153723926059048,-0.09834271824720528,0.09331219627496619,0.0915495527809474,0.007114692885720364,0.018519588385590133,0.06652877429592838,-0.05724405535142765,-0.008305266327195526,0.0038485923638866062,0.0757221737055731,-0.058181819054117304,0.03140193763115418,-0.10973838841423783,0.21389928871337002,-0.35170142261796433,-0.16223174533934762,-0.9340240239830379,0.712908709463173,-0.6293264115542117,0.6994174131124657,-0.5984946429953789,-0.5198751269758614,-0.5969507338503478,-1.0080575697235954,-0.14882750507163758,-0.17641988313482332,0.5057392760886654,-0.502965587060365,-0.7231877817654995,-0.06390277955680186,-0.5191485200282457
33.2348518371582,1.8987998962402344,-0.38356593346346396,0.1483450963458937,-0.08305816932511449,-0.12611205254152003,-0.08328884508979063,-0.02349414353753771,-0.056589984999413256,0.07753063226870088,0.10922551989893886,0.0012382410417307588,-0.03333513143898322,-0.031776098428017964,-0.05287423462272452,0.08201403218114263,-0.23075329770258354,0.17629162843671048,-0.0001266869801614806,-0.03459904459020056,0.08863717720587505,-0.06653389935917742,0.06616769281005998,0.16035311550329634,-0.03211071141809446,0.021157040143475775,0.03928299111684711,0.010153679354313447,0.28162573884403086,0.1439318265467887,0.1370344072052063,0.04888626100593539,-0.016952829615889776,-0.16571649118411214,-0.04604980538222091,-0.22793974663391095,0.007633796957247963,-0.025206025829685064,-0.07187932452183135,-0.0017859998334485128,-0.041417374870798856,-0.004157893768457359,-0.05525225985893691,-0.0049876131071563,-0.03612359915910677,0.030445589970494666,-0.028470334161029252,0.054326128162133086,-0.010289555480170881,-0.043601883746917376,-0.03551732916007173,-0.05857408329503605,-0.05784517001501914,-0.05452321110574163,0.014534811918846716,0.01897329664454039,0.050464921469337495,0.016269342890065114,0.012712926564625485,-0.00546052192814978,-0.00989889481614239,-0.02356362247432889,-0.060549793650911996,0.045246820956487674,0.014626863247972943,0.017405809688559957,-0.0018459661644569007,0.005087251044491802,0.06250340375704218,0.029545860211237555,-0.043466520596153864,0.0005960586009330499,0.08937454462864884,0.028892944118064867,0.016743094168313655,-0.05056381456484503,-0.005210004706714009,0.11763064757053984,0.014574168147272519,0.08463060294884021,0.09415793296371025,0.08968205690919716,-0.0063873302640778,-0.1959046556632265,-0.0069982084023285755,0.05985300122715709,-0.05001660951003307,0.02495960536006205,0.432487081645474,0.6744834266412529,-0.8747633299867924,-0.5425880888049737,-0.5078441273458624,-0.18498630479381895,-0.28338806581956255,-0.06961262921735159,-0.03314004768119365,-0.281605448134963,-0.1568693693322888,-0.35342637326639326,0.024129413573209826,-0.1973147869956673
37.00225067138672,0.8490982055664062,-0.3766121824335842,-0.007417464982713627,-0.07936619459573355,0.02391342150918733,-0.11927426000477162,0.16666890424605926,-0.5818113097441937,-0.09444993537380988,0.057372565442604356,0.0034795249613066015,0.09403456364428933,0.09573056464768019,-0.26068208838824153,-0.04818508575743945,-0.04479509704319943,0.12216139908813622,-0.13919453913603744,-0.12407519710317788,0.18904411642252744,0.2962700308858457,-0.11109655084924719,0.22405557371005402,0.15360720857792243,0.3310818750008222,0.5364330326332253,-0.19850728993069025,-0.013214236321836988,0.1588838716507285,0.1794595048238049,0.2655925745819727,0.1309242740870478,-0.06051780911186549,-0.007885920280774698,0.6048252248020705,0.2239650013106027,0.03284950902881541,0.0020410954140808795,0.10984282258157488,0.10799674564743454,-0.04744996945812181,0.010833779985844826,-0.003304883519227314,-0.012678398953891128,0.09672442027529687,-0.09448933340466124,-0.20468814343387778,-0.028982270527111276,-0.05190054752803182,0.027712097732639728,0.01258730066307092,0.006530652006931847,0.0017105635594810605,0.037176459432437074,-0.04453770777838292,-0.03922519444641091,-0.016309236205412192,-0.03199441565644356,-0.010061235072947016,0.005815375956584513,-0.017909964078000194,-0.0447166637743098,0.08507306940812064,-0.04476619881400273,0.045560074407805566,-0.022755984342618142,0.038944606036124395,-0.008439713664751367,-0.029690515869999726,-0.03738165042447612,-0.048664866607743024,-0.004121761894861398,0.017689933518901333,0.008887515643460691,-0.06852506215331697,0.03182548214234872,0.061882793745195966,0.06380961620153172,-0.0776061151253693,0.08220293019969631,-0.0417856364161208,0.013726392198145042,0.002532090867476182,-0.017864372676657657,-0.1973756372467623,-0.11594764709596622,-0.09742075794924197,1.183846039932603,0.6245422637793753,-0.9420535801575045,-0.9242074251103496,-0.1475952176313634,-0.23719254874768955,0.020952812318898895,0.16311616293005318,-0.7099686991920392,0.5832136983831904,-0.07411277734536853,-0.3099297206667529,0.12934999889629017,-0.38164865260639647
37.851348876953125,0.8697013854980469,-0.5766473547873687,0.08178001415363556,-0.1922428819823504,0.1307415233809788,-0.09712632467625165,0.019136183503715886,0.13480811662728243,-0.05790082537028712,-0.13560629095251656,-0.07068316163325732,0.11683967784530634,-0.11559803472557187,0.05669522713656593,0.034192442331176104,-0.07695750573048916,-0.07732557606721815,-0.4587380501465079,-0.09410831070188136,0.1121962445172493,0.12804699894885752,0.1379550674802549,0.11284435013738203,-0.21229417569058695,0.20858840135126935,0.05041914695978654,0.08443614419949087,-0.1824435479954612,0.012414368342935536,-0.10266193402746387,-0.013141289361465086,-0.09801641487284303,-0.05778764004978734,0.033625035160815955,-0.057567542840094285,-0.017879765290850835,-0.08861706444622029,-0.05000623919417403,-0.035408581738812735,0.027917272153719537,0.0825939445626059,0.0405635477801274,0.04198510736148398,0.05204509490112426,-0.1149445612402349,-0.00047873594681803813,-0.012783412834101417,0.00214790938413896,0.02347079314054611,0.046020312438784454,-0.012834850597129487,0.0033259959514873247,-0.04712848355680757,-0.029569661387582675,0.02055606246637446,-0.014463826733913197,-0.0755571865168002,-0.0007694073257352094,0.031438120461437555,-0.032723717718459916,-0.032284080674357084,-0.03900490981868728,0.08910152992176064,0.0027107360096059506,-0.04949627241280129,0.15869042570957245,-0.04877151868130866,-0.010184243298328496,0.03135852378019451,-0.1363701772907312,0.005434110564366754,-0.06820043604866002,0.023939295041264297,-0.00831498743600589,-0.01821040233212354,-0.0025130133535077905,-0.06628154798391883,-0.108674866340609,0.06404612884154362,-0.09133344681117858,0.11264990735146113,-0.03902890328980415,0.3333353502021531,-0.07237093065417774,0.46369181624719386,0.9314351975282743,0.008254485722865357,-0.6640167754671793,-1.787231310681467,0.3575576985900172,-1.0407325718117788,-0.036970876150303436,1.4087220113968524,0.8194791229562463,0.5025710752357977,-0.9288734941624952,0.4721742324119419,0.3517786094631513,-1.0957257264977427,-0.06947448194806141,0.026114249380728108
38.72105026245117,1.79840087890625,0.045226065601418425,0.1990348920005445,0.7467336678117791,-0.07585091025154399,-0.014074832516618938,0.10189578208846481,0.13555471889157789,-0.013885281726988958,0.02288470935947451,0.08397119383754603,0.12078589555924532,-0.0004100738088339273,0.1448162835578605,0.09172389891458636,-0.08968043003305948,0.09389859480344005,0.7542172922055076,0.16463323461946194,-0.08095986597332029,-0.002425791009012461,0.033157684905163125,0.027057843136862807,-0.0862758190630979,0.08960700649139446,0.03530261132264802,-0.4075898573525507,-0.02658329146425619,-0.04848208542488904,-0.07308964022529786,-0.292663151876795,-0.017349989833209664,-0.09959450694652885,-0.4113652238955229,-0.12671670147729752,-0.06996330582839619,0.11191847335119313,0.053135524224608724,-0.04457681455438285,0.022040860105434205,-0.0350785047279627,0.0007008083383231341,0.07844264571569423,-0.06064594638780761,-0.03018269417999581,0.036475371862828926,0.08034654016715612,0.019013684188721472,-0.03644523900976286,0.048110377608284134,0.060992975506089064,-0.052509578620560535,0.002155813256320287,0.022832604122790656,-0.03866471678431873,-0.0206743578601118,-0.01217119351752604,0.007405185425683769,-0.10651776931575575,-0.02890894633414759,0.009548561809724507,-0.03209062791361168,-0.10073902971468851,0.02752393042737921,0.023619307861377288,0.10583936809720965,0.03078874581003499,0.12231789775111979,-0.06424172242860571,0.06868926554547,-0.008984210527857459,0.15774841860773825,0.09003671130017066,-0.021251140427719632,-0.003667710558328357,-0.03180214605130956,-0.08640058874064772,-0.07730405109327353,0.028433840347249856,-0.15781991866632442,0.05034898001971992,-0.08907123367142539,0.32251184185749626,0.18898386757322022,0.130150244319319,-1.0059883585824365,2.1540846282194517,-0.1746297922914845,-1.8360164246163155,-0.7021173041515827,0.4142767303497958,-1.5082873568480168,-0.6443781168286943,-1.009587512993372,-0.5147375375216334,-0.1739897512020811,0.45060766083697573,-0.03494933258984903,0.4304259774827904,-0.059886226366217016,0.08579180287579008
42.34865188598633,0.89959716796875,0.15345645564218008,-0.22325629989050325,0.10987414991428303,0.05426639648155436,0.08935978075629114,0.18944293178810484,-0.004443741124425346,-0.10812892956291628,-0.020496968043613714,-0.01765183167046788,0.02620132151341428,-0.13638237056409783,-0.16121154903733959,0.029920994240604737,0.10095605530549713,-0.3559833965616376,-0.0215903709441444,0.03741700879388411,0.06002433590600402,-0.06611657210713705,-0.4790234518035149,0.20222033324435856,-0.7450425232892461,0.20535900636366222,0.04386881463252041,-0.07339090327927313,-0.09968937178816,-0.07462800453882558,-0.035290526680431165,0.024075471135362778,0.05731590157048264,0.00031325453203693296,0.08071275502627882,-0.09107909721878962,-0.23302180599089595,-0.03751900623046366,0.1352840740137436,-0.041936751081888796,0.11843425173470314,0.12751709325822572,0.03087351878619049,0.06770256925833845,0.04339826234436153,-0.16215836833042585,0.16324048074998462,-0.053270534615795964,-0.005790759870864744,-0.016601951780088515,0.03554288935211628,0.06055796563271186,0.042481701003451736,0.10109179508091157,-0.03297462323792224,-0.06201345096737459,-0.008217096701078008,-0.08426237176617488,0.050129388812695394,0.0179290241645763,0.0067343376707674025,0.042776630773724005,0.02828397637754481,0.014119193427776709,0.0408757671255058,0.03508484967928936,0.07273277328499686,0.028817146481890467,-0.024789276449377774,-0.03599649232979598,0.004550995152921673,-0.07135208425800141,-0.0044101259993909354,-0.06271217978178319,-0.023309192555248617,0.017181086056401194,0.06697415606100622,0.0454509910323169,0.01750116435152247,-0.11199251739136179,-0.03501649280296935,0.018314943157863677,0.018555022151836024,-0.09437792236103199,0.011083935121686095,0.3589109722109982,-0.31983991015318625,0.8449678756745264,0.36092106514363737,-0.21112160495782178,-1.1186792712784026,-1.8710881933919883,0.15083543011949507,-0.1279060595615055,-0.20581388940917877,-0.1510261128200878,0.2451213297991192,0.19800377391278803,-0.3883833432540569,0.043869012288463294,-0.010649665516184154,-0.33073668403010037
43.24824905395508,0.9092025756835938,-0.2311245587994421,0.1173614116067617,-0.42717475850312303,-0.05181157889325973,0.23933520537741512,-0.24293312442272993,0.01563623480640361,0.032318603866796115,0.13159228054304983,0.04735719644968375,0.07629513649348546,-0.003123104547568133,-0.08004565309332523,0.043113798115268276,-0.05100970849208903,-0.027892310682178303,-0.03612458213857478,-0.014729768386245835,0.06310539840467028,-0.041876314752974944,0.0002132661636650296,-0.03912092877729073,-0.007023780519028071,0.060400475436231976,-0.03086437094147844,-0.1284711914704885,0.0560574956942917,0.008642264048258769,0.027982879136829612,0.03389293545889912,0.006590675234818494,0.009123987091267514,-0.01403162338649521,0.011149230511883608,0.013035987215056078,0.006962904641017675,-0.017414620505148415,0.013466763908705798,-0.06708268095859823,-0.004847219002831969,-0.0767272124458473,0.012242974338390424,-0.0014286786002138674,-0.04882071423997935,-0.027023324078449755,0.01645594675748417,0.022409700197873895,-0.0173987528320679,0.03782342619971749,0.0771823142313545,0.025199275292559414,0.043797070471194285,0.024525906470892606,0.04454890792990981,-0.010105474977064724,0.036627629538637,0.006652347748630661,0.00618385052547903,0.011975768035004747,0.052071561410166084,0.05864828280986276,-0.01824432568355041,-0.018380260242430918,0.03545424405700825,-0.02670471988988506,-0.007506727490892287,-0.03132318035921617,0.04729844661802815,-0.16128167001651272,0.0008807550220283032,0.0536326041920196,-0.043277704538161765,-0.021364795618462835,-0.07366155305407651,0.03238399239398281,0.01115459232180304,0.036180180890100666,-0.18392371149484796,0.04878681274576205,-0.0072655724832123725,-0.172912960812332,0.01509698094008391,-0.023368574607903526,-0.07426438604397106,-0.3738865880945682,0.2378237749377342,-1.4478970082703315,0.2442500552573555,0.32366959502015014,0.13548183415412746,0.2382105968982053,0.5078456239640614,-0.17967391127342974,-0.957512818870908,0.47841170964255797,-0.007950924009792885,-0.2775804155461487,-0.21696512562640458,0.527795064471212,0.25274525174424484
44.15745162963867,0.9493980407714844,0.6517641044617105,-0.039827934836116456,-0.013883537952720184,-0.011514659561372025,0.026540758598554898,0.22605392725789208,-0.09675613791842709,0.004895651990664265,0.051263831668378196,-0.028937814997745785,0.022619003284925478,0.000635108618009951,-0.02128441287396711,0.08497040183060428,0.12600159487110907,0.0009231843313041981,0.018121052610198064,-0.10344488393443624,0.06278458922220422,0.096047769845566,-0.16557950506451496,0.04738122729163936,0.04307376280255713,0.07488343605638095,-0.028636255294565496,-0.03460677979338091,-0.009161130996441487,-0.0487765127694772,0.014750766104843504,-0.05269476005131638,0.02938546916069833,0.14573278034941717,-0.015522863038308387,-0.3440599562457689,-0.019074010348649702,-0.023300648338421076,-0.07311815991326465,-0.04422351790503131,0.050169921944129336,-0.030837334129773852,0.03197688571933384,-0.016373821848571654,0.0070203981342854375,-0.07601230338607944,-0.018000321361300194,0.05469725884446471,0.0649830749924625,0.027163195875976466,-0.041320523047410095,0.0030857378719628386,-0.017904813846282903,-0.033097643593660395,0.05096481286015277,0.023823444270766242,0.016583142819560734,-0.026242941349187393,-0.008584298481551015,0.033554950881836146,-0.02729969937691594,0.004909333972402098,-0.012577450821996308,0.02783145327990927,-0.013474920662873488,0.027106684546432752,-0.07192749190534473,-0.013250409200845664,0.04443295308198447,0.08786414550619515,0.06340978154229682,-0.006197432061841335,0.08173338649925553,0.05341175783300824,0.0005437967837285404,-0.033252125882603845,-0.03309671723449384,0.010368301035183006,0.059437104712936624,-0.07357324247797495,-0.0684324689273109,0.034525514831175885,-0.11840106028645257,-0.027253163846834155,-0.07861188719530646,-0.14512834575756078,0.14013542413845465,-0.2855782679732142,-0.2192898857608967,-0.5488819199830015,-0.353463683810186,-0.16393967965668577,-0.4581821975506967,0.5978362236078896,-0.3907663351356029,0.18279903456969981,0.4098499687872708,0.4546196453962122,0.003203431278437337,-0.08487217344849539,-0.1119475743134269,0.045902230776825745
45.106849670410156,0.9093017578125,0.02273948620417976,-0.00800315647628003,0.004703109349117579,-0.048074411434336266,0.11312075842533517,-0.059121988309358296,0.008881615800534794,-0.09643431296157201,0.0030659708310902586,-0.10371494188557591,0.07208405765126766,0.05565616700047215,-0.0012228400915358477,0.029823561983530394,0.03627937757139925,-0.053451045414221014,-0.08805392502039464,-0.009402797066764603,0.013131435329220169,0.006643692325883504,-0.010670159702580007,0.04828731992521561,0.04943782506604505,-0.09532185967873066,-0.023247886025155724,-0.026039619716764002,-0.01483879718716586,-0.06165326349686186,-0.03410320243421677,-0.06002710635615015,0.016827284129590718,0.04576377221750547,0.00651502438032839,-0.02053986755151227,0.012132404396976137,-0.05049739650018092,0.06330759465632718,-0.026243326753608083,-0.030969896979228657,-0.014002756739922025,0.006837231230359615,0.02776244196765841,-0.04007493696280105,-0.0011881596419225128,-0.0992886098699566,0.006842448607639648,-0.0049086938099804096,-0.044700887382595235,-0.01814499394253169,0.06002404786450939,0.0033477340511309656,-0.004856030173256806,-0.0014232318102697181,0.05741359443484482,0.07534572229585641,0.008876364690245416,-0.03481151709567411,-0.009813929453349485,-0.02382061845478249,-0.014024578099985535,-0.031455967675968366,0.029316356492954027,-0.018754612765415943,0.07917237098957987,0.07448639423813566,-0.08597446565829069,0.09235703623752282,-0.03289481398139604,0.013302193834555776,0.05122208093840594,-0.012770455600313424,0.0291977770505518,0.028023696714265696,-0.049435452723277484,-0.035641954583663066,-0.05660802609735775,0.03442225554075274,0.025476570303091996,-0.02069353680896916,0.0031528755223155652,0.04481525369654833,-0.0015463367796027302,-0.0012596357261227646,-0.15502799477507942,0.07410707229051122,0.10337408162004384,-0.21633932970320885,-0.23297879201311408,-0.12162200009282131,-0.3523965727437811,0.5065602089242153,-0.3785322526939524,-0.08530626377032724,0.4210745795305588,0.3496704062942545,0.2427373235456648,-0.039286199311735034,-0.08680227126633885,0.3770671706174827,-0.16861967710652628
49.0140495300293,0.979400634765625,-0.10841881332912763,-0.15496939551254513,-0.01543279728007085,-0.10870988114488352,-0.06515190494660598,-0.10621561067711631,0.01711692568568839,-0.10929333696124566,-0.047656990979119074,0.05273200249248258,-0.0923800324591446,-0.06678667775397315,0.02190005144456238,-0.04152736652770999,0.1892739260172493,0.04053769701492843,-0.06609132456263787,-0.1656033759143762,0.10772547411912228,-0.05752981157980001,-0.02404500669458655,0.04329313353988527,0.15629477919566315,0.0368593529712031,-0.06776391648591254,-0.027915540371568976,0.1435689271496569,-0.10346474330078467,-0.01939747249290117,-0.029402172592747744,-0.18084842027537093,-0.010214053234868604,0.0946849780428535,0.1747862375325148,0.06818902164603614,-0.03681031809143359,0.010654822485615712,-0.027333660830812803,0.011894164960010953,-0.024009855089219427,0.06698251742751991,-0.041597704969752056,-0.015179939672329902,-0.016477648008489176,-0.043520985990466,-0.11846374139832844,0.09736574437284469,-0.02900583747509472,0.015077611818276737,0.07919480960096935,0.056193081583916844,0.06612993188129959,0.04345423047006037,0.04834083916425119,0.007274052264411099,0.07103131765872114,-0.003407998904850982,-0.010423924974580261,0.08833470913093526,0.022173317367930195,0.04410111978422654,0.017365030793584115,-0.06817936682568675,0.051048945432171935,0.029515072116996943,0.0037833914329889196,-0.04762378025538981,0.048437027178143716,0.030570744785860752,-0.02389116626297257,-0.03162105244155898,0.022039882083113752,0.0104346137775857,0.009541746620730438,0.021847653030282174,-0.06872428730247662,0.02546881663922334,-0.0547499848726629,0.025925237357213565,-0.027196650033021734,0.024820432965214297,-0.008445624320392496,-0.06451183883291871,0.10531078460425974,-0.0524341261426673,-0.06149934434310401,0.33126353945365594,-0.026960352770902314,-1.8292429738667857,-0.48273283504990666,-0.04659329367567024,0.6311214003677912,0.2601931964897441,-0.15830727681914544,-0.6278305126473207,-0.10368173648058128,-0.2252365926654136,-0.025342432083820754,0.164236935119603,0.27567325162201023
49.99345016479492,0.9894981384277344,0.0697475445224941,-0.24799952755670773,0.046537106736676784,-0.017380434253543922,0.05527729971260516,-0.11915464322058167,-0.03673368719801048,0.11536567948595297,-0.07089861689907663,0.049237946325611986,0.09704919316804088,0.07410989785765523,-0.044789464183403405,0.11643198388595118,-0.05606919305177618,-0.00981171998919305,0.004128100697369831,-0.02908235208115267,-0.05065968370422323,0.03944471317235139,-0.010594974801094718,0.026523335326637476,0.044725545063769634,0.021626939089814737,-0.04110187430648112,0.03389223093127782,0.0793619153810003,-0.06515217035307362,0.04115953163781124,0.01356312228641499,-0.017211325356522773,-0.0033886720634960935,-0.00794011529474227,-0.008904508409852624,-0.09021268897119332,-0.025462813398107735,0.05156174766917249,-0.1379664307822096,0.03167575057624786,-0.04480440517800288,-0.004497495162401421,0.004308391255155072,-0.12356839030845852,-0.01769609891571272,0.03193671855810762,0.03946533183163477,-0.05728401164275156,0.023671814105365833,0.05982319282813416,0.0064478015618392795,0.0008297790244958386,-0.0035711093611624336,0.04565717022616741,0.01028610517767815,-0.03177106377721529,0.011435245886628063,0.0012194975368125696,-0.007261964732303158,-0.027113115138024117,-0.0660485318733294,0.027126053226810116,0.04092538298776814,0.07756585931368323,0.013662458762816332,0.05257494984290343,0.04288610512008516,-0.011247340819051203,0.04999836472247916,0.02384654777271491,0.025364963635696215,0.059451455323460765,-0.019155820611631284,-0.09499866441345114,0.048465639968321046,-0.06582481633262284,0.038160847375594095,-0.05701630943870054,0.11894032436751503,-0.02747268988251987,0.014695840177775213,-0.06990994737654421,0.08890225439389013,-0.04970765962422303,0.052735884918946624,-0.13126742638130195,-0.33764238287489695,0.0410775748315651,-0.7689347191099511,-0.28556707337817,-2.165690549455861,-0.0017933383047645246,-0.03043179445833769,-0.9386440848042357,0.2919894999919402,-0.8259445695913672,-0.4356275985170414,-0.3044600992518174,0.4600666727673268,0.03248766756397964,-0.18726393258709445
50.982948303222656,2.0080032348632812,0.1792928902369601,-0.07661192079888701,0.16232649209475208,-0.03924227904450597,-0.11310390972595746,0.17980951550428032,-0.013829129834441085,-0.12645819780598314,0.025368482241639897,-0.08308936508754447,-0.10465862736045992,0.061262640381101574,0.022927218204706935,-0.08860824737836587,0.024286159442566835,0.08935458804165092,0.022770253281103367,-0.026339231454211506,-0.033080203298447686,0.014950176842672885,-0.03027263400739844,-0.04024486008355852,0.04085729798760906,-0.011456267550410138,-0.11572457687075188,0.07884322044186715,-0.06795770926823785,-0.024387103938461347,0.2908728770767974,0.08121847113171116,0.02745674470640768,-0.0439658070722993,0.25550817198604403,0.014883509382334473,0.05743484964522495,0.03384525469496943,-0.028197676169881856,0.0871681648982072,0.052163808679694085,0.0328239305661427,0.05702091909680985,-0.03775281675120745,0.04563152779193509,0.003978057858929133,0.0511734205730506,-0.055309041205437656,-0.04909901943520576,-0.03765851337507839,-0.007773929820139733,0.0117450658944315,0.027433280327680235,-0.08931313017887277,0.0550974677199238,-0.02790363249962246,-0.006428340303400792,-0.019164589946056756,-0.057623543682624755,-0.0263487441930714,-0.014592976687132393,-0.029514756763719428,-0.026956953786460777,-0.021774164597016296,0.06239694724033164,-0.022336348081081866,0.002898744202621463,-0.025446518427584948,0.005401464804963306,0.051734342224351956,-0.13282639230702073,0.08277921797424015,-0.02557738650716839,-0.010276555716004662,-0.08911143394485077,-0.004826822038686857,0.015036374445531735,-0.09443269775711839,0.0556134093487617,0.006752223830250106,0.007946187901586584,-0.02384523420846129,0.11409674360520242,0.04465947752142145,-0.03409044175403359,0.00808997171952462,0.04857045693231368,0.485894015455226,-0.4757868074498076,0.9755358225539672,-0.27024140574697475,0.6157909128109165,0.4677554811285292,0.9558746621805998,-0.9028079592188727,-0.7407392024549959,0.9819483076739376,-0.20584047441995895,0.4012441387433839,-0.025892882374432716,-0.0001278810763632593,0.12240016625372349
55.0301513671875,0.9987983703613281,0.1820723348681441,0.14197719012797938,-0.15159582113982828,0.10478746625276533,-0.019507545917827593,-0.10681324384678267,-0.07472914777817304,0.05490297102596885,0.018434839045549194,0.2492520274849483,-0.06616957086719805,-0.030570942986999087,0.1437258112091022,-0.09733323138072411,0.039600491270617905,0.03657487018145359,-0.06222824390815425,-0.0581676406662507,-0.10787761867208939,0.3457232756834975,0.04063458524167584,0.17843441597588647,-0.22598512610128108,0.009894336511300384,0.1351346484038635,0.018953151275472663,-0.07661788519833129,-0.14078736594256475,-0.03551614445156036,-0.02132120704395052,-0.032015339562920866,-0.23448192218231076,-0.28859460530971287,-0.01750055168187366,-0.0065351303528973035,-0.05847970942445771,0.02122966785848114,-0.10583804029670861,0.11935390909854618,-0.09053094805109276,-0.05969080267264662,-0.07524116168342611,0.04964824075261799,-0.06513724010931876,-0.018265869816543302,-0.07072597685325546,-0.005528869199022656,0.023823507026405948,-0.05085638880055084,-0.06860205852713042,-0.010240621247547738,-0.03617839169121787,-0.016416801246119432,0.058553072190509994,0.016054756922375787,-0.01592147352043228,0.004891266787382018,-0.007054325191522766,0.006646978522975468,-0.04796137132288533,0.02691732171763786,0.03031096285031243,-0.006846389649482808,0.118039399233393,-0.013572500707495848,-0.055913298824444936,0.01331574987698943,-0.10449287183608927,0.07738217411887813,-0.003955021152588961,0.044103326913858557,0.01968439955205644,-0.030198096810481655,-0.04901258055725641,0.051945638235497166,-0.0256173502510951,-0.09039964267502945,-0.01373105142854291,-0.07952638034204813,-0.022358376457820503,-0.14470744832193078,0.025158413663048787,-0.0398184806558351,-0.02035552824688154,0.041186258953582695,-0.014736129029930545,-0.22064078618227895,0.6085712644222806,0.3845020550427334,-0.05480920109316895,-1.2308337840598296,0.3573828099320375,0.3274694201510833,0.1803281521333327,-0.41009772271067635,0.3744316002942404,0.49703215226103825,-0.23512760584656373,-0.3505751881109314,0.141682829140012
56.02894973754883,0.9995994567871094,0.2352283176173393,0.32646212464868857,-0.0005202056600302485,0.002759155424592239,-0.08000217508927801,-0.1383280269025588,0.09713603660891287,0.09217130290995787,0.025470746800183477,-0.019794739254981503,0.03372018681512391,-0.06898300376802453,0.14462371798264176,-0.03745908388770237,0.19671710296534153,-0.134436120912595,0.07694479434925296,0.0406486192575151,-0.0317275605206941,-0.07642756905191375,-0.010766027244219274,0.07430128401969513,-0.10151283849453355,-0.15433237812905104,-0.026044263016519686,0.04602803853837587,0.03590265577217546,-0.026339943126384012,0.08211998077756033,-0.20802687757695468,-0.05359252967284785,-0.10585861393142255,0.12462314756397236,-0.06326694288463965,0.027012390574634868,0.032921429597142726,0.03610324955873913,0.02461281337713475,-0.05050287756201895,0.03659530536210341,0.07604828224081943,0.020432064003913827,-0.011904880505088191,-0.05039955034857846,0.029831034005454223,-0.002585963052470868,-0.0406707472234556,0.013570954248090017,-0.038266851818206,-0.01103975863854173,-0.0003034183013506343,-0.022490230066399178,-0.014834524207816627,-0.004416980532681549,-0.04827447845091379,-0.0021442733500421315,-0.006177379088544607,0.040467488208655325,0.008873223567129673,0.011726021194715709,0.0011338288907364593,-0.061542301939043094,0.07448309070284483,-0.0326797379281408,0.09314540694389893,0.010033165724986005,-0.10783806915786608,0.01842343893952159,0.052182990385398,0.03411458366305874,0.08003450560939293,0.010652656904713897,-0.04350651796300294,0.0030136349037876396,-0.07682198935108492,-0.14676303224522186,0.03161386983751936,-0.012905564675761521,0.05911237381491952,0.033198455147780845,0.0019163830247506536,0.06352010902801583,-0.08636683297669775,0.003502978210669354,0.02887610746655385,-0.021684555128463616,-0.0851975044142199,-0.7190482342433113,0.07962447309031176,-0.2880473471435203,1.512018142059707,0.35366314717009123,-0.7964472227173124,-0.12932115700029695,-0.7792919359756402,-0.31721799076203655,0.4482069269272873,-0.2738558554967512,-1.0885246896130907,-0.05178061227247138
57.02854919433594,1.0195999145507812,-0.003305738495294863,0.2837117440836716,-0.0578447776826283,0.14970894644776533,-0.1527925407466526,0.015493841424593799,0.033166113672714284,-0.19519059181928067,0.16493626357657293,-0.19294939849001605,0.04467534861735917,-0.02589142743084134,-0.11773292275657259,0.10169199718193665,0.10799573139140042,-0.0676253584098116,-0.09672842737923633,0.018084409000197758,-0.04925154895508692,0.20577144279209278,-0.20663565274224036,0.0970209135535952,0.02533176145390983,-0.037472863167692376,0.008578965046090587,0.04480433055784005,0.020217102979191715,0.004690591358163396,-0.02974027372889338,0.30362296624374063,0.08000027210915606,-0.05703041185002505,0.03260821560609978,0.14267407171607532,0.0394988857681864,0.07986145484896799,-0.0875738845345706,-0.014535065725105475,-0.06955342961469846,0.05277881941245786,-0.046542095589082594,0.05223800894363048,-0.05361150639927328,0.01653843357303353,0.04841999863511496,0.04844425133959271,-0.0008354396359853571,0.03552783098764745,0.02656520506025812,-0.029107997133935436,0.05605491622251324,-0.012380613292469339,-0.051852887055268596,-0.035900498789740234,-0.06162483423506536,0.06418820449689494,-0.037789474196966225,-0.08250513368782082,0.02151568626523512,0.0037306128918424913,0.05007861136813157,0.05485052761450023,-0.04137953931764382,0.05395690051900119,0.0015227657603069976,-0.020377978176451997,0.05229506230440453,0.051060931670887565,-0.006530903009405408,-0.04573926293885667,0.03889800845555878,0.06884736835015824,-0.05377955256011605,0.04613124158708369,-0.014812250261660338,0.033797383815298634,-0.11171390007149601,0.07402914195185727,-0.08167054851054238,0.0551647630785165,0.05209968075587591,-0.030660658678292534,0.02463454972592566,-0.045112219284353015,0.04301340204195903,0.012668602291902462,-0.08728011280554003,0.150420377705816,-0.172966521430382,0.8849118330715703,-0.7625605398954125,-0.8331868358386081,-0.32092336528049353,0.014006872739332436,-0.5048953504231364,0.25424410196078284,0.15854732801222732,-0.3474020543570192,-0.5775454445572759,-0.17694376178994814
62.14514923095703,1.0194015502929688,-0.04624474579933169,-0.18832701278628974,-0.025648658036394312,-0.115107390553116,-0.054316449614044054,0.12329312047335428,-0.010208958418011845,0.04658880644053598,-0.08260648148168129,0.18263662773306497,0.06210221631861805,0.13354720828842526,-0.0448161383681622,-0.17784857523483136,0.015699830247603887,-0.11219133642395732,0.007260009797641338,-0.009294445265900522,0.04183389131979662,-0.34903781931401995,0.18828285538660325,0.042966798991513525,0.04822988807477496,-0.013253662465206303,-0.19335928644891653,0.04682102448181734,0.057633715662911075,-0.0530514762193132,-0.08275640472919299,-0.06359531285750468,-0.06050427586640004,-0.014164613910430402,0.012893128420667185,0.01577702592959382,-0.08696957838108409,0.04334102803844528,0.0169558342542895,0.028179407192664235,0.010088502922078997,0.023261730835791486,-0.04614520097838436,0.01878927186756922,0.02402677781878154,-0.004754355477534812,0.005517806447110404,-0.023351291631441097,-0.023372281809034966,-0.000695215283238057,-0.030467468048758876,-0.021853138419351586,0.003972917100261883,0.02579255495043482,-0.01708328900274039,0.02468115842400831,0.04104834453344763,0.005151031468747357,-0.04202608303295869,0.11488331149003869,0.07902190413355228,0.01880459216585853,0.019497917827034895,-0.001211937639513605,-0.09545183268746021,0.03139656424560869,-0.06899243216417415,-0.023742660784017308,-0.0033592197299699617,0.025610889586185674,0.024655463892670357,0.018693193552425616,0.04336514744380957,-0.06502138938354887,-0.10332957382192054,0.03126583436487766,0.03856286256639081,-0.09453972506483431,-0.11229408106168917,-0.05392974322107979,0.027359512654665057,-0.049924580994169236,-0.04668537916158633,-0.1118000724218847,-0.004560439264929771,0.025077595622755525,-0.09267351406598756,0.1417200428538348,-0.35196735989198213,0.19518907251724824,0.03321970745336486,-0.6680603745988365,0.5302883749172231,-0.2735017830019574,0.17550297914934343,-0.19017324372526556,0.43197053818097,0.747914886908913,0.7750957853307388,-0.5520362132727221,-1.1803055701241993,-0.14870079917843715
63.16455078125,1.0290985107421875,-0.011780436501847014,0.04932924574292906,-0.0008191729142099213,0.16942080767717346,0.15815000855942685,0.05874865388489027,-0.0647423571048794,-0.034787809892630195,-0.04739378112070643,0.09321570163619029,0.00660500441149018,-0.11272788602336803,-0.06997005439740858,0.17614193158789324,-0.09902864929053865,-0.014638249526139959,0.06844176906112015,-0.03618887996961024,-0.08855734086839792,-0.027636853413214292,0.017370119910575337,-0.06795509554955143,0.020305942366177054,-0.03059706452970362,0.03018181125868625,0.0008666556250550867,0.08434518852513123,-0.10884241242085503,-0.19867913517038535,-0.20727864087510062,-0.003353423576266782,-0.10010417105034188,0.24481971128958913,0.1349237027861933,-0.0544557515122404,0.05909255443717531,0.08802609530298136,0.09297060261407748,0.029597046488334704,-0.004645255881360961,-0.03934475774521527,-0.00815837420661308,0.04453604571731599,0.033327158509059485,0.05149658169245187,0.12945545217981688,0.0941987204549872,0.03453968111392915,-0.08374064396096677,-0.1745584550581348,-0.015143644633846149,0.012087483436209245,0.0026219988340822845,-0.04246724757876913,0.05156269509303458,0.03020259162005337,-0.07390705524991549,0.025492671905515046,-0.005396302440731637,-0.053654869741180576,0.05198077080763719,-0.03445236289471322,0.04710859888522636,0.10249777561554682,-0.010536338270860797,0.015531321305271972,-0.0011234674978487427,-0.021708203281126374,0.01088476135704549,0.08837530942563634,0.037329945292591885,0.09772385312694258,0.016278141970304777,-0.056777528767297025,0.003897774462006523,-0.06360751861320793,-0.01866486084476915,0.011633149779047844,0.0402037392471834,0.08842969359834663,-0.03431195102906832,0.15421212922109326,0.1825956988222844,0.0427458041778874,-0.023225075637167178,0.0006731553025359494,-0.1879656544353374,-0.33786890761046234,0.7778993885368259,-0.5982070676786269,-1.0237250704076237,-0.738202367569878,-0.633620304022348,-0.19911551956170334,0.21603106633298863,1.0090055778423468,-0.21865446432469032,-0.05675648913157852,0.5751343641890105,-0.21230854324117082
64.19364929199219,2.0783004760742188,-0.2089707245564575,0.46166219509959466,0.1386181919393473,0.018961140626276456,-0.056780895222198605,-0.15875186611987996,0.19289032721292765,0.2665856306536917,0.08918805231901643,0.11901134028080845,-0.07664599646391786,-0.017582561049861983,0.35316806436444304,0.14520427043271433,-0.055842264139565494,-0.032233580524002325,0.1061042770728937,-0.013085514081105538,-0.0029995757197859136,-0.11585686193829607,-0.05064089865552675,0.011521913136118087,-0.17621317909986148,-0.08024618980394965,0.11574362554556557,-0.014054023570117745,-0.02233547589664924,-0.011649514349229199,0.06118152843481137,0.1100962667950665,0.04343653793451409,-0.03468094556569632,-0.152857684794446,0.18873052298738652,0.030019399047468618,-0.008748430500938662,0.0018989772511196325,0.0014628052150577504,0.019126269674363303,-0.05730991703484493,-0.014887992959773826,0.041384361815057974,-0.013487102981134482,0.11274504426504384,0.06280162201946349,0.01663145438131953,0.03170295398339297,0.03784696872865764,-0.0008892798553302612,0.0038610708439501696,0.0011553393262530368,0.009867057618992434,0.04675507280912912,0.03314336529443808,0.052643197030871,0.02060026642267408,0.00044438146885394556,-0.01541109486043769,0.039354066117616986,-0.09801778659610196,0.012953048991853431,-0.02881867271712083,-0.04551285262063052,0.07112003729238948,0.058438149656055184,0.017192502527933314,0.018166974679881796,0.03572982925873226,0.0048389832703129125,-0.07193184636615735,-0.05649520366152317,-0.025441625467268376,-0.03999403331069873,0.0010216516691586993,-0.0017732621661772224,0.06501968885589544,-0.0014115867898590768,-0.0001316939721139477,0.05951871841358691,0.07611824423185769,-0.03241725486522957,-0.004205016219031743,0.021416197344082438,-0.013351200752467209,-0.02002129908384405,0.12350352330948053,-0.010539293534974476,-0.6381342302823728,-0.7290609358583958,-1.0285496138509858,1.6705093673093603,-0.008822863763630253,-0.5616778627601364,0.6504158625904597,-0.5802213252800626,0.48723846441007157,-0.2847987029910638,0.2779723084556247,0.22202455504465693,-0.22132649631039808
68.2706527709961,1.0192947387695312,-0.28338706763965454,0.19315937116559465,0.0432660453487602,-0.0790360279456204,0.07040214872371248,0.13288079194150473,0.035663681932688075,-0.04320279245722521,-0.023401608866401385,-0.11900179112438897,-0.19828352714843617,-0.0680819942835473,-0.010582497757968223,0.05797808899761607,0.010347788912399531,0.1020543981541619,-0.10004219628013201,-0.0077503395370144305,0.0588924387100061,-0.02239390801123998,-0.06978791014508441,0.0384780205166969,0.04463461112501345,0.020462880688047247,0.048331203033890074,0.02365069078038393,-0.06859841558731733,0.15130837703036093,0.01911411331709857,-0.05535623985523422,0.14304608297379504,-0.0057916961544197286,0.006605351386411978,0.007128592020146841,0.061565178183556744,0.003416332745237567,0.08852872978793436,-0.045794591628699435,0.03824986248733045,-0.027837574287597373,-0.033734415786807984,-0.01637988781834062,0.16265224967911285,-0.011170832894053151,-0.09540237077516786,-0.011359434669215036,-0.004670591406258237,0.01311041240082023,0.03394409857236204,0.007225358878181168,-0.016368335602272615,0.05070076886756542,0.023061142806656977,0.012101057296492041,0.002231451243350592,0.04846399861456539,0.005255447752260225,0.06658534171260222,-0.0329705272568692,-0.0918697355659886,-0.024548248364191283,-0.037271145767973066,0.052234810028046155,0.049347129140179385,-0.030561918339404626,-0.040258099272093284,0.052789793037490595,0.0172317903236546,0.1137552028518181,0.034002947587021604,0.004629357984926183,0.033478490778507265,-0.04038153446117431,0.013251056573097298,-0.030946952185864463,-0.05861224093019515,0.01188249040677053,-0.05067186896994517,0.011374116100534723,-0.11121358032391443,0.007349352036469359,0.01669307773389829,-0.03194554132886795,-0.05146817556595237,0.03739137011159121,1.1436682891768863,-0.37172672233400444,-0.46186839025382365,0.7948929782472405,-0.44645825632996017,-0.14408547351695178,0.4843799179227533,-0.2509093130432007,0.45598144788644324,0.5926585121511342,1.5677096972632991,-1.0663016828033098,-0.10517127942379803,-0.03148378772527845,-0.03916596087714033
69.28994750976562,1.0096054077148438,-0.230024568630116,0.13537977247345345,-0.036343842574555155,0.00582570413381342,0.2354034821932776,-0.04204725743371645,-0.020499166955895123,0.14968725013724582,0.030727113994997172,-0.05134813514774096,-0.05179545965995602,0.08389261561990473,-0.19154914180286337,0.10106250688679377,-0.08041217922649388,-0.00741291151760487,-0.009647585704091778,-0.06993106459099449,-0.04160247722016639,-0.017054481452401515,0.07626980849160828,-0.07788113686475466,-0.006759884719394038,-0.013490108176842132,-0.06670285268467759,-0.07346537206334222,-0.18410930452962876,-0.0076529107258408585,-0.05550248938652527,0.0027012104834808126,0.05713509938908985,0.10721114227072717,0.05471932788910212,-0.06462320783884978,-0.06886715189079243,0.004853638349327656,0.05536498335456136,-0.0010621496261825122,0.01771496129450631,0.018682393809713038,0.05060652419261047,0.052442554419708104,0.04952685664306933,0.004284622630987851,0.027670656948672576,0.011468778087562886,-0.0401027169695177,-0.025194933868979023,-0.0013522170711228049,0.0405164022681776,-0.02865847956780851,0.05042977168606529,-0.0014158096351716484,-0.017248846341794737,0.038105979689262826,0.025273895400377812,0.001104830226314735,-0.046364025059656214,0.02532800387273285,-0.08610520487217313,-0.03976983991029999,-0.049834098402039846,0.07100334282881435,-0.00027380609006229543,-0.04445758189308304,-0.007804679714737233,-0.033280036203173095,-0.008084939575572271,-0.004008481462032098,0.046197162529870814,-0.009244410202908367,0.06014559048202355,0.0594122159056016,0.007566852854641263,-0.006726749013459526,0.026158182397100483,0.03747489065360578,0.07369500690746951,-0.043611382272680806,0.01600033552058537,-0.047105226848485414,-0.05203051728232591,0.04962309693087459,0.003186810013305806,-0.0570889857873792,0.06972979883658342,-0.20971425185031492,-0.3191849231395612,-0.3745420879297806,0.740272543670548,0.3578371762510353,0.18367782821634562,0.7169950225192362,0.4613425101319769,-0.025142059865164407,0.14583327092971404,0.5342255620585562,-0.1732706723547302,-0.4257479769514726,-0.30987758371616025
70.29955291748047,1.039398193359375,-0.3702262204456393,-0.0005454161790769477,0.0289184632587166,-0.0358397110879271,0.03368716334650432,-0.18495998921564033,0.07052812334175242,0.1653408875655019,0.03555586634312649,0.13354969141233286,0.012045363666289468,0.01974316149236318,-0.04113224452614729,-0.07968127962633709,-0.08131720622549587,0.058976223455620425,0.014717532005866667,-0.03512575348692138,-0.052216619685887,0.040821363823902876,-0.003411546399655671,0.021576301721625876,-0.040764255067410465,0.04859821506287895,-0.0011844487460775273,0.022507043026802846,0.10691226476406568,-0.04065250279324454,-0.027092760826914968,0.021001993392063382,-6.731422012246774e-05,0.05854422142753681,0.00042872804549170466,0.040214335994594036,-0.06955660773178893,-0.026659721719568832,0.13561460306588527,0.009820700169731076,0.041927573996454276,0.05098992016271215,-0.08724118425342672,0.048158258078986514,0.09263904179233029,0.0018319271136366423,-0.025040286936055464,0.017460478879455815,0.007169129508349394,-0.0733787525287144,-0.05586748311501834,0.03138618253912874,-0.07470743644904622,-0.009441834996644785,-0.019944203117048642,-0.0167075301856612,-0.032016818234111885,-0.018636063334073128,0.012935855014531109,0.06531120343670085,0.04718226588309779,0.026976712506502992,0.05074848357616634,-0.04094734645650823,-0.08474685230917511,-0.015047240507651842,0.0011009054738497445,0.025419728734283758,0.07926228620159248,0.008463336495121234,0.06251197308027918,0.0283176940884148,-0.027397628613585332,0.08518818592977548,-0.030116693482386367,0.004308177820307166,0.019284856509053774,-0.013816080380473777,0.01650600388961506,-0.004551975321854935,0.023034628677535883,-0.09332890847945582,-0.07839484160443741,0.02534095773858744,-0.011734282734443283,0.04502930150278181,-0.032725578597672715,0.10504060496575673,-0.013561849692730943,0.28104946473437914,-1.0650347011095762,-0.271959844773914,0.20837434650945183,0.0768025996409897,-0.2971328416230753,-0.45972694727614727,-0.5268035955173118,1.16543272742494,-0.1661193081448632,-0.9393249981760113,0.3665277777617682,-0.27934992409502196
75.32624816894531,1.0092010498046875,0.8273886749575122,0.025345247894259022,-0.047280306831782394,0.07308151319014217,0.03867017186497143,-0.1302428611409968,-0.13388306189345495,0.08042356003324783,0.04790174689616243,0.333398968296587,-0.188175228967227,-0.12592545837200636,0.1130731522873259,-0.07589713544531113,-0.09676946622734983,5.944312177776426e-05,0.06788292091075496,0.03320274827110705,0.19262688117166618,-0.12695331914572822,0.20495512650613018,0.035985244621136864,-0.038319807742642445,0.07736875961504774,-0.08327466052631272,-0.15299114189589252,0.050639870005283895,0.031628865072637395,0.05495807795158525,-0.021001194960341807,-0.049244250190530775,-0.07746658073703336,0.011727741542603934,0.06438714408965719,-0.21129496851089954,0.1840001051859571,0.05048810834899259,-0.006287269171911747,-0.047406980190650566,-0.007410387833893937,-0.011736174760742048,-0.08424681669391237,-0.06706211354403793,0.011791711812017788,-0.05429881872854393,-0.000982882155259182,0.035688026272795624,-0.03534377132929638,-0.06960224700707382,-0.07070470513930449,0.05595371265648548,-0.013517370272328523,-0.04566157809543224,0.04799952706167018,0.0159380405485116,0.013401075776369915,-0.007014072976600898,0.020389343703310782,-0.019895029373700076,0.07902358627943941,-0.01416927092948915,-0.040116343235266,0.026196347700639937,-0.07316132056346782,0.0407796248471258,-0.017057628242411995,-0.062459377329063336,0.00956075933443847,0.0009177795999543853,0.055382043970758424,-0.030494143069872606,-0.03511514082659241,-0.022218521470002132,0.017761620145599732,-0.0040833385627187255,0.09778466349212146,0.01874648147905058,0.04439889766953631,0.06320080548950731,0.03593219514288232,0.0909008696308264,-0.05503649629376722,-0.0008221343796858543,0.050732540575356665,0.06945971821169114,-0.02172606927106755,0.008270567800276758,-0.2802557934756148,-0.23199186576285544,2.760785944609264,0.188076952509905,0.031636045836573465,-0.7168930961687,1.1196972399456633,0.1578754596094533,-0.3108569209253542,-0.19990514397058068,0.3439458989206012,-0.1670388040386345,-0.16451130790282384
76.33544921875,1.01910400390625,-0.10899112144334414,-0.05260042296865474,-0.11227853412096465,0.048941923322859314,-0.23253380429997225,-0.056917719346792635,0.12163393273672485,-0.08124479748590087,-0.030321384095217487,-0.1329537849260326,-0.09707806012313414,0.06406796118170208,0.05720007381716835,-0.21978698798833768,0.17016882232248823,0.15537197132527295,0.04879046239167178,-0.08415088615081111,-0.00740382228146437,0.009637785024090002,-0.05475502558154895,0.07408184325315552,-0.12010639060961865,-0.10533859484761796,0.014840203053713637,0.032485778439584376,-0.09147359171200703,-0.058417164742381525,0.10498250631886619,0.09077893199337886,0.04679471021353756,-0.12485573496062162,-0.10470722481879327,-0.000421651960659282,-0.0032366852815599693,0.01138739371779902,0.01627148219154026,0.03523034797773569,-0.005021716819454922,0.03077821873134566,0.04889629613957057,-0.006250699237758965,-0.036471539116177634,0.030382190645625112,0.04862635792635553,-0.030593118901297518,0.04592349373238919,0.07949043444504882,0.041904567007647484,0.01757975289697124,0.029408524400928573,-0.0245839222505026,-0.10743999643831983,0.006423089140430629,-0.03358249530091752,-0.011301627859205667,0.04398373321474903,-0.01542491048929153,0.01449646006707403,-0.07206756849108145,-0.00046971161151737606,0.03806428911237836,0.032612640636201916,0.005823336160032201,-0.14198095111022518,0.03322950653381023,0.006270461499909461,0.05339741045150851,-0.019460893235742446,0.1205213108038901,-0.025201756187330455,-0.036804770365194854,-0.010166102206020435,0.009044832413769322,0.04603751000203919,-0.06145809978727318,-0.09025382038186575,-0.03488958429320281,-0.037356043008184986,-0.09098110611949858,-0.0649044547500775,-0.11051193567837227,-0.03535876458151324,0.035337272854905684,-0.1206663630383272,0.11459167761178984,0.10662813477336702,-0.6282356332088346,0.5113851560282158,0.28013993063074066,0.750637427214033,-0.33704726300521587,0.3393263659944096,-0.015757526733230835,-0.30457687418459467,-0.2149223289943427,-0.1117945209875504,-0.09906804017276007,-0.01923210508302796,0.011567403750017163
77.35455322265625,2.07879638671875,0.1327073639573053,-0.14109076670489773,0.09149596526058174,-0.14597703992492345,0.09986835611181573,0.04961971696919774,0.15058591261984347,0.007021509687295367,0.10492436139190783,-0.05510699723145876,0.10836434571355816,-0.05845317889314702,0.09172326737952742,0.1021634614381366,0.017727738280952074,-0.07091267569572465,0.015348872378936736,-0.0639114509791175,0.025531799502853204,-0.014750521900226278,-0.052858949991602,0.06191915932734226,-0.010504644415108646,0.010457764769593217,0.02638627927720546,0.0401825599229664,0.03387751928480606,-0.026796596982283805,0.03458496892565416,0.0035019419105929857,-0.03591473620854197,-0.007630048443073361,0.0298981303246503,-0.012373777383809667,0.034281544916873144,0.062187003883365316,0.02143029553244539,-0.03158336323714585,0.04497339786818946,-0.027384992925596503,0.020994493306711586,-0.04848166110991087,-0.01668562179568469,0.07250371440394529,-0.09041735315906076,-0.03004055539234608,0.027088327322082554,0.04303529636956385,0.04783415032020752,0.06149133274123304,0.005724507218261829,-0.0726618703604067,-0.0010694783693817808,0.02796111489230477,0.01660864707330028,0.0390489857076964,-0.08027155744226755,-0.007970416483709936,0.01826400417146925,0.0006592365973221801,-0.06852935731210516,0.024382187932749714,0.0781502276274627,0.035358404480501114,-0.018015466521688627,-0.005859451570958298,-0.018231946611923608,0.005663641810181391,-0.060792876983013014,-0.01884075073195838,-0.07269787318829864,0.08151584921979385,-0.06840957138456132,0.10368811477456155,-0.018335218163929842,-0.05245412638055169,0.007666360498964887,0.021973297884769684,0.01861001634887055,0.0044745906112130356,-0.10945425385645999,0.14497786906449808,0.05403186067607754,-0.09675838689274593,0.09678830068968763,-0.1829051657488004,-0.17053739589288064,-0.49651872645488815,-0.2810094431431241,-1.4998900849119792,-0.3332224205334793,-0.5240687176915317,-0.8608432553551562,-0.38270155001554507,-0.10320117971477308,0.5762552799184542,0.11027412868879874,0.08138819983001344,0.45385707722366714,-0.2858684956090442
81.4719467163086,0.9995040893554688,0.004881035669013781,-0.2237333194641802,0.2026084437689839,-0.03570709720149335,0.0973284855969716,-0.12577993986773628,0.13325876191672217,0.016360935105435223,-0.08083390248319709,0.03204932536282083,0.05980666503189676,0.005652595338927438,0.046725814298252726,-0.10013192481215655,-0.06960251608282558,-0.05864887937281688,-0.009534077045156672,0.005295728801596661,0.04796493113555152,-0.03345631701667216,0.028414835359788934,0.047530495498405934,0.010988292549795352,-0.0022693498790233666,-0.014303633894613605,-0.06550079420943318,0.0069060829151399925,-0.000572514237834755,-0.09035126778679697,-0.0023436327447066705,0.014500551497784312,-0.03958738076992079,-0.03795579702280143,0.030577243335859667,-0.0042939305180587535,-0.0032755480291883124,-0.03427778374034407,0.0037710186308027444,-0.04282847832522379,0.041729189222009785,-0.01178699905978472,-0.0609751830219991,0.07631577993977436,0.0025991063806781378,0.0026060116678631555,-0.00017752646320232449,-0.06221176039983513,0.08632695585624511,0.021824359729088777,-0.01617863564369575,-0.05844325368798379,-0.010919032248764029,0.025087377821025058,0.0022915612268759435,-0.041048676102620286,0.03051322741113614,-0.028021445673845014,0.043930777551166124,0.06484552657579343,-0.05411583589984587,-0.03932375863983343,-0.03880003546474062,-0.03258453781179136,-0.05561566714780614,-0.04910506872853492,-0.0238711322669498,0.006024055632807696,0.07054156812903829,-0.02607242671074423,0.06103289154575048,0.02654454310064495,0.12524830524365962,0.003020257002581142,0.03043624782613025,-0.0036399238851499227,0.07044064292801747,-0.028814649730245126,0.0042917287163826146,0.07469346176574272,-0.029391177373654338,0.025278546440945737,-0.11919765032297784,0.0033488858570973187,0.03248966307681001,-0.13040324083061391,0.049250673688159344,-0.16722826708476463,-0.3368811619004097,0.12520800599124599,-1.237159029247993,-0.5662744381096871,0.01711836513467485,-0.3532018955861394,0.5138916901383419,0.33207355897125673,0.3038648282669486,-0.18993463092350565,-0.2393420745632948,0.32460623577725506,0.477488337031705
82.47145080566406,1.0091018676757812,0.8533433012911025,-0.3940531189558834,-0.02467649148000009,0.02803326238937156,0.0879923592292798,-0.10453196132539133,-0.038898499090805366,-0.09066871332783223,-0.08005231350595456,0.17236310674285155,-0.013251778131049947,-0.186342874909436,-0.16663003109906438,0.14764241897493144,0.03237735358583068,0.08896300380128046,-0.012996751288966865,-0.005098588685327433,0.02987951496433352,-0.011794342083387442,0.028586040470128707,0.007093873947720666,0.08279971671580491,0.003914818828514468,0.0583630666631743,-0.08022768481856776,-0.010066347090465012,0.09814114755683875,0.10304667210214345,-0.03377825259312753,0.08009790234555415,0.012236628331928904,0.018317977861232758,-0.02154365088727934,0.05437123206944165,-0.011493918549304476,-0.04082069359095144,0.06073224179981018,0.03780374829252144,0.1008456042895384,-0.03683433471302001,-0.06281782624616448,-0.0343798648171172,0.01754875208383827,-0.038441587910006896,-0.01618638880737385,0.07923801896282111,-0.021229952990760127,-0.009244070873594433,-0.012571519022199953,-0.04274942112359728,-0.010267872339582967,-0.05417674013388735,0.062094902872491996,-0.0053915193862393036,-0.021230615204655686,-0.00040048654872671535,-0.09744805632097757,-0.02671934793753403,-0.08068342253999014,0.06411799560848477,-0.032135271348855174,-0.09373383034859883,0.008545586636092943,0.052079699768056195,-0.022080820188745742,-0.02425859719779586,-0.03276859770414691,0.011184242069279399,-0.012199189748884896,-0.004626558874196938,-0.06674191092226545,-0.03952894927947605,-0.06368644222848414,0.03356246625368204,-0.11144183211766082,-0.019295865199275612,0.0864490640741277,0.0034691899789371337,-0.04371943429459182,-0.014906043869240222,-0.039690045507070976,-0.0061073628353274356,0.043309506812580986,-0.08106565842049877,-0.021455386804833426,0.4695555490371399,-0.46358406876525327,-1.0282453804356204,1.1179906818439487,0.5656429482438705,-0.2680295357719077,-1.2261112520095985,0.28080067651986135,0.9006979362172158,0.001366688964623053,-0.19046246853068077,-0.6940463698914956,0.1818146998908936,-0.3918328720068214
83.48055267333984,1.0193939208984375,-0.49480436196798105,0.17162086081482333,0.06261386046944059,-0.12956756390540186,0.07089493832354911,-0.26559180535634697,0.018189613335680012,0.0013680268621732196,0.061120662152629505,0.09875921314001924,0.1413773052774809,-0.0407382478449522,-0.023696737532841607,0.11907464556346005,0.09785340427884098,-0.01720712575491938,-0.021406137885282114,0.04052719768344118,0.04520641318770614,0.087407047143086,0.010113045839515854,-0.05446708934475539,-0.10823192745807762,0.036617971393027256,-0.11219378518588893,-0.15750357158638528,0.04205354620299359,0.02149522188244925,-0.0739792448161933,0.015234908653946132,-0.08131530273195316,-0.08477379883426528,-0.021134030790183302,0.0877659339330239,0.02508802395472703,-0.018940924416489736,-0.036258449217033174,-0.008539916821162117,0.03163593498106837,0.0011044072669778287,0.033654323442508044,-0.0015500963065276222,0.020546756643897456,-0.034524305006088336,0.06135050098638953,0.028199711937598782,-0.046311762017092445,-0.042066733732985355,-0.03727997057036237,0.046768508101910106,-0.03709872949005102,0.01647751462279119,-0.019681050900462287,0.053405960766448414,-0.011441639603501218,-0.08978772654912698,0.038549009136661476,0.03645933035312368,0.07961096303996121,-0.10656828282558384,0.06192552325279853,-0.04741768693115987,0.06605759603677384,0.030196254861717994,0.011407580930965243,-0.014948806488174295,-0.05895515613366776,-0.09147747707632749,0.04164739941583083,0.056718964014325926,0.041760467478485865,-0.010359270603352497,0.008951415767653865,0.006892283693233789,-0.053129916465484824,0.053147030966106165,-0.018633605064114454,0.10239231134016823,0.06103302219776725,-0.022452067962899145,-0.10273395450163482,-0.031554438485539335,0.09702342370780694,0.06443357507158601,-0.055539757037814885,-0.1678240617907003,0.8214355722720118,0.13088185645588063,-0.41130888283460626,0.7565102116029923,1.3472513649660225,-0.31198172625620285,-0.5899281753122004,-1.0156350071135036,-0.6063832092863856,-0.14261770194342127,0.18781054188099372,0.4676511242398838,-0.4431781580164118,0.12391021875661562
88.4769515991211,1.0096969604492188,0.36198586945547795,-0.3332104103236058,0.07471098582304181,-0.06982346867311537,-0.001820114895369599,0.023842025581367478,0.0508295102421395,-0.17151638899221117,0.0940559722315657,0.06767972447079418,0.05768105146376094,0.013667433093223175,0.14141295830066644,-0.0033001810175845546,0.05746999461939881,-0.007389333816280395,-0.012203879128590445,0.022473819260678006,-0.06881510034343959,0.014952113184816209,-0.028404802739286212,-0.08229203087062517,0.12219161836130164,0.17210065657422055,-0.049983063202364536,-0.029924772419054793,-0.007864056889743072,0.03657328422733722,-0.026538049666709293,0.039416195794089046,0.0990246172475906,0.19474632768941882,0.030454807691031024,0.09157556957097986,-0.0661056462375916,0.008959391668650455,-0.003798347231607062,-0.0656236972739251,-0.059780858270545106,-0.08440005835655502,0.03098612571708144,-0.11975175383150898,-0.0049681977199561335,0.0019077840768444432,-0.11476428495842532,0.01874320470507339,-0.02161589960749588,-0.00491241068146667,0.02930714800877887,0.04804302388595352,-0.03512764940504333,-0.021198382979709517,-0.035181592191918395,-0.03029439311224034,-0.01714152433387732,-0.041315246887622364,0.030998821344680308,-0.0034751526334487904,-0.019942525807022434,-0.01732954759627838,-0.00936648187421939,0.004668734899172418,-0.00994146112867034,-0.004172879426956808,0.02294822385655034,0.07628706579028925,0.014703626283237214,0.05215214092405213,-0.0008214108608361388,-0.06779241695904874,-0.01897273287175103,0.017869030543163678,-0.010659814762422504,-0.023987686456671486,-0.01768139820573951,-0.019165025546260234,-0.040669847186147155,0.009368002096413593,-0.08860460361351398,0.03393421538677418,0.007094467684744976,-0.03500376729997813,-0.07604572057724614,0.016227516145859613,0.12126832605303671,-0.02385087570413521,-0.11868378415210804,-0.5639322903762501,0.5399202311277995,0.24080686677996715,-0.8749656295958117,0.4165399264636438,0.6873812368499519,-0.473775334069436,-0.672487484242082,0.3245973222584772,0.40348320217346095,0.11463361871443524,0.37145966639018957,0.06453685423268227
89.48664855957031,1.039398193359375,0.16609161012593737,0.29143901616662166,0.1877431038101819,0.06142184799912958,-0.02317976786246266,-0.04709749494893624,0.14061682157283167,-0.17330097469920414,0.09546125719058102,-0.2959801985201644,0.21131367569080384,0.218850333703845,0.010130855670768041,0.18769830529760725,0.11080593073977076,-0.1196600048382344,-0.031312481518788585,-0.06512076068195025,-0.038569383866762494,0.00899017045522972,0.0693894907775402,0.05536650279784701,-0.04661061823250097,-0.09677563993634772,-0.011285638531953135,-0.010489593341335129,0.28014083579553234,-0.11500054693616961,-0.054191727284455746,0.09325604483365768,-0.02687935610568473,0.10142983184226442,0.0008154202053696769,-0.011701159897942091,-0.011053846730537172,-0.09513748852703904,0.04906446144961723,0.002642792447158017,0.058771636600052295,0.04702975508319881,0.03168870400435618,-0.0510692776856461,-0.006686955817482923,-0.0641488330760637,0.04498554240426535,-0.007366367155340163,0.05976678396096684,0.005297611067267534,-0.04932838373289156,0.04226026457592514,-0.03851693945903275,-0.022182889732296616,0.04276067587396133,0.07945249514232935,0.04879261968818308,-0.039893079162477196,0.06018244423000422,-0.03191361786642102,-0.0067941198153444555,0.006505739909707952,-0.008715641281752342,0.045583623707511844,-0.05615354850697663,0.028313420915094464,-0.07321258787261142,0.0009612712913907428,0.03848604088985065,0.012094815731318383,-0.03562307352083689,0.10353179862882894,-0.0008215224099719178,0.02814474257393528,0.011245732249340876,-0.055577327141545604,-0.016758151518657276,0.007990105193017509,-0.06115105547481386,0.037152853418912536,0.07335359429985838,-0.033711977886709606,0.06552436347402062,0.0361147875714921,-0.018349901554100524,-0.07268560972631122,0.0004831752694747452,-0.19439689470982469,0.07880706130189452,0.35082810324253766,-0.4890796252704156,-0.6420007153218331,0.5492040317192923,0.13372027559791436,0.7779451963316066,0.28705809099976803,-0.8613818376836684,-0.48099219277711536,-0.06936555723594168,-0.11312281126208729,0.30951041770081134,-0.418696254447727
90.52604675292969,1.9980010986328125,-0.3345924969009821,-0.17658525330347075,-0.08670958557228246,-0.10181970230773218,-0.12078330506536368,-0.06805386163103223,-0.03752693048657217,-0.13102623767466728,0.0033241444985746375,-0.12480278092341315,-0.13581429424602384,-0.1299918596287678,-0.028726924005450995,0.0954495461283671,-0.13221323009373942,0.03868932925707929,0.0014792710554011332,-0.025456446085803393,-0.024726746827043407,0.026347756449472244,0.0506259672093745,0.021866407644951118,0.032209365151554606,-0.01854604084657372,-0.023911250365391233,0.05656997619219937,0.06384013836563773,-0.0016050287176377865,-0.05401701008720611,0.006266491713666146,-0.06460755023162304,-0.09693094442477844,0.017804193334483093,0.00428080910068501,0.05230347256928636,0.022502701443808698,-0.03004118807847431,0.011235543902578013,0.009713811560142845,0.010806951638316343,0.010350958029937633,0.036750352166572096,-0.06274034769459855,0.03224756327260328,0.03373913375955095,0.007157667561914334,0.03697285442942243,0.024797089206448752,-0.01392146473754172,0.056908008443180245,0.0038023012785967265,-0.0748265885041528,-0.04633969822778689,0.016992269742343823,0.036608174617848516,-0.02622800528068356,0.000737371941558343,-0.004179108456115036,-0.04078704445664667,-0.020106904653758344,0.0006632229835397531,0.019522626942904346,-0.03868029051159626,-0.07764887402994172,-0.028249979689073498,0.058520663156150135,0.0011016827429870262,0.02643304999839332,0.07002002037731553,-0.0636663525904642,-0.02203585702530524,-0.025958313123716235,-0.08569992204486115,0.034791772470548994,0.008171202596355159,-0.0273513095368744,0.02053024037538263,-0.055447419050225884,-0.05004589331973652,0.04941682227603402,-0.07691452842726185,-0.039723691516026186,-0.009199685792681694,0.299796477384641,-0.05420929902174412,-0.03161031194504996,-0.13490105775597644,-0.5304115578502712,-0.14988513781037555,0.5430292517862858,-0.6271463477633562,-0.64054633835719,-0.3821153101030028,-0.03714414482994051,0.6036897441678913,-0.8963784623062778,-0.1668404575447643,0.34200272952763,0.9208550260940043,-0.03229215341264206
94.51315307617188,1.0091934204101562,-0.90759917516079,0.1907169400701919,0.02631211759877184,0.16371797690409362,0.01038001687267272,-0.18226581838619055,0.2216911593146476,0.1291124104792778,0.20754584187506514,0.07264629305549548,-0.02602532459143492,-0.12977234820039862,0.0638966299504018,-0.3126339652977984,0.009817659346635189,0.09855614661504794,0.019383591807192083,0.08565339245102314,-0.04674401147971697,-0.11575403871661273,0.0512605040544209,0.1423130744577521,0.04853094590613722,0.06340067436752109,-0.07341257489966727,0.012892804560103898,0.003156342633509914,-0.033300627396357044,0.007978264834112236,0.018579508206921475,0.05721327582939796,-0.03656125981512563,0.0908974263500129,-0.0053964247722996,-0.038134712511469306,-0.0549585869891209,-0.007480795258237506,-0.03858287726487893,-0.011716797588814496,-0.03974149746421235,0.0857295415450267,0.00017620335242115107,0.0012842357906271305,-0.031948251532754136,0.10732563907813707,0.02442934408370004,-0.05435646785506992,-0.03422625659787165,-0.002862117952744544,-0.0013215238267245272,0.032680952214557434,-0.015176919616146567,-0.039933454430780314,0.030404835660966592,-0.0001735326197927498,0.10625731642485656,-0.003211213495308898,-0.022684249525684687,0.0008879347256074699,0.025661742534923083,-0.03520983220290497,-0.06918325583736756,0.02341057528390777,0.09562766614805836,0.00035878394136957083,-0.05247914918499698,-0.03257743126011674,0.07969179123495435,-0.070123126256783,0.09828407384119427,0.005812431044597971,0.053713369614057926,-0.0711791835024007,0.011079912452241278,0.041101353139847016,-0.057791945694876196,0.01314030778708631,0.03474241154899649,0.004772982557649682,0.057129244830537676,-0.135552410652824,0.04266003735836239,-0.043483640923209395,0.020435570471871698,-0.0828502542227642,0.15854336779888328,-0.03835220226464816,-0.36539378785281446,-0.5678325635610197,0.48530116890779174,0.026920873072045007,1.0495484765688066,1.495778025981998,-0.5066508829522096,1.1691172804453007,0.15662891229672332,0.22017666139397837,-0.25296403366915043,-0.16534333396435208,0.07312715430318986
95.52234649658203,1.0293045043945312,0.14783297391307135,0.006443344593922246,0.024774494816552826,-0.04279051960870759,0.12554165240219572,-0.009135133281004876,-0.03729704996594,0.012473206396055151,0.06369148064629927,0.017719351853702735,-0.10693560789264789,0.03727453989058602,-0.24407488590973445,-0.006896811472474991,0.011574973449785059,0.006134738894933503,0.07389702360315617,-0.027505529887040473,-0.016324239281737346,0.05806653256489655,-0.06297955577473327,0.017309886823247814,0.021056053210278796,0.013972089514005002,0.14803359118172385,-0.023763577243884202,-0.13016334967964371,-0.07268362089946462,-0.04317726064606492,0.0160543988188416,0.06329749569454442,-0.015613338675973514,-0.05102130010202047,0.0010460246889797441,-0.055724184552988415,0.0182288117534143,-0.05186199078066154,0.03188058177203437,0.02621329136811054,-0.08052766793061758,0.03537315734434569,0.063555064521543,-0.028638613956634015,-0.05343483114235782,-0.09022485497894603,0.011510793510065287,-0.02023939978864518,-0.0544245860506025,-0.04481155902073861,0.013823592853836678,-0.003771425111648858,-0.023386808315052597,0.06188874027576119,0.06937054484003286,-0.05161328047229766,0.01106812115674235,-0.005472185669649327,0.0492902405252892,0.015256055656847803,0.009922190008096863,-0.02474129228355368,0.04358228128474191,0.09365884626749092,0.004433692011237008,-0.0037922214194030354,0.022826665642560376,-0.075679991133674,0.03455323714012342,0.09493768290331106,0.037396918056783864,0.007907005240505287,0.0748310333289117,-0.05847444126964466,-0.028467580909319733,0.059594848491111435,0.04631337139138457,0.0009815077019822288,-0.059364813834477496,0.05303200393639544,-0.04875248687352997,-0.10304000611668743,0.019077974949005372,0.07239978275552213,-0.005570889907688989,0.006841017689721176,-0.09339006046405582,-0.15921784659675642,0.10243171301708237,-0.6691570155672424,-0.7714979263364565,-1.3604493784746645,-0.3323565321242435,-0.18705674433679936,1.4366586341457064,-0.5454789130051816,0.29789906360572416,-0.17522084383257447,-0.013793364049755183,0.061699701973688,0.20431355142352664
96.55165100097656,1.0591964721679688,-0.17069974451601788,-0.09353554207408818,0.010876772452292533,0.015942377302492226,-0.022978176750612513,-0.00906615936608734,-0.019550393066621395,-0.0557122723506244,0.10738261795491262,0.060146727562953035,-0.009848676078785801,0.0183172813947169,-0.02608087155035628,0.04756748497260515,0.008190994861734188,0.15981639094739683,-0.05620971344574983,0.057145123695542276,-0.05800431472283166,0.08468297584898353,0.009562822420730931,0.025056205760180812,-0.007419284801573764,0.0648639256755122,0.05166464290450346,-0.0008033521822009013,-0.019119937038931688,-0.0026911703285308953,0.030835813337862693,-0.006863681065415794,0.025768996412681575,0.09642915603773851,0.06984081948005467,-0.018144321694599907,0.0006191063150189655,0.06123565274142857,0.04258582429866684,0.0021314042986176835,0.0025691502302194543,0.05243772225125465,0.02230641010240236,-0.01317238420032366,0.037861146556046006,0.02263399362336435,0.017080727143537238,-0.012760041764026942,-0.01695089789418834,0.026706290824945175,0.023752753266887756,0.03676827440793441,-0.06485972115080078,0.004860618447071018,0.01726661023826738,0.10410723969994078,0.04929505408349838,0.04580751811963792,-0.011769931849953463,0.030692461030750233,0.020356938660756798,0.027399588631412914,-0.03320402723664493,-0.033516511272736915,0.02839387120263709,-0.01379817158949608,-0.05781355295289509,-0.05964739408049326,-0.06920890561994017,0.004806135427817255,-0.03585967381745483,0.0431311331520731,-0.012827775281339146,-0.13159487395615072,-0.008653923373380296,0.004901217506630778,0.01956023174947541,0.039590073239066964,0.01906454390186424,0.018187971504700272,-0.01825853824891089,0.03978409574569654,0.02906414829304474,-0.008810170201677583,0.05809477621643337,-0.029737626067607416,0.03185844703175629,0.07726873335605984,-0.03778967720611938,-0.6222252897650458,-1.5101808766537257,-0.33861381506432253,0.16644506151349142,-1.0386830048542925,-0.6484370389440989,-0.08289671030493057,0.9987707908004521,0.5821340303298124,-0.08735962407016357,-0.4244607643394694,-1.0557011845283724,0.09309778244590547
101.77815246582031,1.0193939208984375,-0.15609365383214013,0.02132369770762345,0.04710065210573221,-0.115756141875056,-0.029034110347846705,0.12239309075202759,0.040933523766820426,0.06222984274092344,-0.194882017554387,-0.15459484164761658,-0.04506975494147439,-0.11716957391217991,0.1295142778791437,0.016217199143404193,0.09543716417990268,0.015137013284192723,-0.014776459306062653,0.10922055835365374,-0.026897828628184017,0.019590578442503226,0.5803346381275012,-0.35828564619610803,-0.10947585641633466,-0.04919236181911267,-0.018053221128127614,-0.014700860028131223,-0.22046907823753928,-0.0940240295644187,-0.13446314996702033,-0.06008717187741548,-0.07646367736692826,-0.0956559985135613,0.01498758134105278,-0.05717689724194051,-0.007672825052179921,0.03974591653705828,0.01101268648151405,-0.08195470788639286,0.04045163344155721,0.0019224222293954115,0.09195621971738027,-0.08108011459879645,0.09003498896511651,-0.11318042033932688,0.020769704064708877,-0.026299389428821443,-0.007131857950533005,0.04750734716388771,0.025301899172853554,-0.043761446381903886,-0.01933067742081552,-0.01320569003957021,0.0210150862483735,-0.007063886492506025,0.011332417677972243,0.028348518697511225,-0.06957613319936502,-0.060364902199775805,-0.0047778005826473605,-0.042959202292645056,-0.023113858819680737,-0.0009852068976258649,0.01528717923566279,-0.0010288471937553167,0.06393673612176586,0.028813909544434926,-0.01580245215430545,-0.035303613084133594,-0.008129992690383066,0.011545236882053809,-0.04170465313342837,-0.08982007976838847,-0.002518566946850094,0.01711872910825716,0.015477584832815465,0.10942619179026847,0.018315603918252845,-0.009159060805500989,-0.03157695508320194,0.0027923510848471764,0.05055565984504568,-0.06634322189110171,0.11531594380647713,-0.025794503342251585,0.009319476988123824,0.5281067487602045,0.11781412865201109,0.9073139878517873,-1.1384731073890897,-0.8067339945622913,-0.7650860446401825,-0.7071964926751264,1.8552219967634667,-0.27003799604088913,0.652035148498073,0.28490695120204423,-0.260606299688245,0.036165124578802166,0.579442162362358,0.04219757402883667
102.79754638671875,1.0193023681640625,0.14332359711059747,-0.08869235179893793,0.07172682911508982,0.00043636905296064177,-0.0011925842259501843,-0.0721364381611392,0.15456930102098054,-0.1149588248665875,-0.01845163867732493,0.13766934367718628,-0.0708967128886334,0.13990753728953892,-0.06155480790371894,0.05643051397705219,0.15857738728161613,-0.016813289393753844,-0.035007715888368644,0.0666108400528096,-0.024763727802235243,0.08275841915782783,0.06718983476225196,0.0032105382536180664,0.02686674067164256,-0.020352564511210144,0.02059800704025132,-0.1415417944382507,-0.08367528563603124,0.034048406633697154,0.027706879136976368,0.023402558012101223,0.0018273029128484616,0.037528480215821086,-0.09962149577588542,0.026588088603247115,-0.1643669691992936,-0.037773518464385876,0.0388726863741382,-0.002990878986920676,0.036932002167610764,0.03389863650030467,0.0035669110231167957,0.0038091884628281827,-0.04020705983889475,0.11502084221552687,0.04795076908795709,0.08288566001962583,-0.045444335315246345,0.021432309086827667,0.017894948492460247,0.03166536015944867,-0.04276980392214548,-0.04290772002713269,-0.021625385939467393,0.05752939756095228,0.014012454472523361,-0.005670011946819991,0.04042591016381211,0.006488494354474839,-0.04136765967467463,-0.011091755325307545,-0.010938636722029303,0.004370160364480093,0.02100855542058753,0.035461760177132456,-0.020149680097623676,0.010147426162436766,0.00892731487266435,0.04106633829237535,-0.02054155145620304,-0.06618080707010834,0.07735976207251606,0.06619443701073328,0.03841638940553686,0.024235110311332384,0.06696019595617517,0.07357660336911942,-0.023275510124609405,0.28429484302135155,-0.09372184924546965,0.030155761587025237,-0.0023592442065270697,-0.12264934401781406,-0.00875850382657103,0.03523298958932618,0.0987523013604572,0.12313222478944179,-0.12318477106984936,0.5846277681280836,0.6335837126215758,-0.7619797591439288,0.9412756639621793,0.5406279277002168,-0.23475512804665621,-0.6181366646658379,-0.07608597306738128,-0.3751310193452941,0.9176625108524072,0.6052869762320396,0.8120147317996267,-0.6581228931916149
103.81684875488281,2.0085983276367188,-0.14879480345832624,-0.03337337059581675,0.04695575794171265,0.03160076097754769,-0.11353240238644118,0.2414505224396868,0.35983423783404966,0.30441237448382524,0.1683432321090943,-0.04159042225573131,0.09048003460241105,0.01333989652066897,0.18496258169096225,-0.060939685190697444,0.07644390714874898,-0.0022706084024055467,0.01058617451136698,-0.05397556598021732,-0.008377304122387748,0.02100689480510888,0.005152569810748735,0.05062114272414594,-0.06866690559631504,0.008445646500028568,0.021303987007864345,-0.03922513337643202,0.02211313879309862,-0.0498062495118371,0.06422380784120302,-0.09490617677991024,0.07027304127550064,0.034703127759138815,-0.03298133688869602,-0.020934440230417323,-0.07152775682682846,-0.002000440473503326,-0.08553484630979395,0.06315210318445023,0.04514029713708795,0.02778184753326552,-0.10818823326536264,-0.02916368581610466,-0.04167685653028701,0.03227989679524583,0.05541902187794272,-0.0022442628636572953,0.003705973898198268,-0.044699241523569896,0.04161263218357552,-0.05061724553022894,0.02142907511010063,0.02098962798329994,0.04462973145408959,-0.07783836974793606,-0.08496906671393396,0.04827821701475213,0.009997700920198988,-0.006708550126534171,-0.0005223354817350113,0.017572896335575326,-0.06719683710462906,0.09087732983982479,-0.02143887826083421,0.0017075926079938148,0.05324927960845565,-0.032174303909891844,-0.07661773582711412,0.01779315971675654,-0.02420106622910272,-0.04315477255969382,0.08833564553048916,-0.0033130606825065648,-0.027924644155428946,-0.006162887243188302,0.009509440036127949,0.10758411972822546,-0.017470207910747368,-0.02673029803936173,-0.07113814446388006,0.01641812577306137,0.022441956560117604,-0.12173125299475442,-0.26415467856950253,-0.030669211074890262,0.04908604914657998,0.0006525987813501711,-0.3677043589921042,-0.16204414600062647,-0.8772142505207138,-0.7909064279301952,-0.24943777192219835,-0.0762372164329965,0.10343758046978285,-0.018143681568500727,0.0017312784569571138,-0.07595411304880949,-0.3044238446227024,0.14171459511032009,0.6042710624183834,0.19105396675231898
107.8541488647461,1.0192031860351562,0.1974674750216086,0.35632339565850446,0.07119175727093219,-0.18974093418732416,0.09020804194406469,-0.07867342072983444,-0.09120769717744315,0.06637159713634633,0.13161785689170524,-0.09112075339820441,0.06596020586979003,0.043550521599214236,0.11305297058227079,-0.24064440696485237,0.1169835678622651,-0.0951699012454173,0.016136686083771168,0.07195349486833423,0.05563581070944737,-0.08219893300614091,0.057656827645633034,-0.00982982194315924,0.012064287112366769,-0.007956753414106238,0.0024417983246303662,-0.06762997817008508,-0.052396149883434634,0.008251814627806834,-0.005701374610811473,-0.03949647668798431,-0.0012601089610365457,0.024514464573690074,-0.021079721301316225,-0.017964122802927255,-0.03616514609647071,0.007590599935530975,0.0029272639866777528,0.04374906455815881,-0.021074147435765522,0.0024401887208361644,-0.047933144062379654,-0.03703484976607839,-0.04120311241234039,0.0034333140451794407,-0.015170007567519336,0.0016776631133608028,0.000832376999496745,-0.038381116694847076,0.007647106345243258,0.07278409832449506,-0.022056827402695305,0.09289187562464561,-0.029913782055586823,0.03485996129621524,0.017104858298805706,-0.046646735915523534,-0.030355385439090915,-0.015201012876437724,0.03487798709925299,0.041042871584833544,0.05525194394881759,0.003123793229830781,-0.013649904306321028,-0.12183692262848293,-0.023325819066528152,0.02556088341278888,-0.00979314019163626,0.0301489638519453,0.025478654621929445,0.07986824716839293,0.0038335842578250123,-0.007740755740666391,-0.05030838355760364,0.04395849366840532,0.05813288177536681,0.0047438606612671,0.019317838583526363,-0.0671950153657296,0.10687099798233156,0.007465802160347857,0.004549324685967471,-0.22043130022799498,0.01009903533923899,0.12044887228545012,0.009916636905441551,0.16280824388425028,0.07922597227554111,-0.06575626663028314,-2.026402753011594,-0.08386129360859684,-0.32283230007616226,0.12308191879163283,-0.4027980175812513,0.496409379072742,0.9943015501597985,-0.2840931974003243,0.18066160733153924,-0.7885451103196255,0.11518635919506728,0.03678039340580836
108.87335205078125,1.0295944213867188,0.27670433201085676,-0.08254231182585445,-0.16560466024521675,-0.0625186075613631,-0.03746407517633672,0.07294945250646835,0.08343606707328433,-0.11966328714313151,-0.17486665643635235,0.0465623601404987,-0.07184585704493335,-0.008893945311315571,-0.2436839483757118,-0.05019284230950727,-0.06468553885836607,0.029232795551166743,0.0865965988373988,0.03869302560785691,0.0006124921253481443,0.07262989009577306,0.05621269473194511,0.01608822723342543,0.07307891668692974,-0.0567941142473247,0.009491316696654652,-0.0029387325377400802,-0.010465868632056794,-0.035049515817701694,0.08852910238345166,-0.04049759747609422,0.04134384324232093,-0.01970459144064407,0.02352340073259658,0.013104751686295713,-0.020291103309698102,-0.005651526266704711,0.013848046878727186,-0.024887112546074307,-0.062388247613304984,0.021069379407301955,0.03639763747769209,0.008102969559709185,0.011629683726047111,-0.005927574931839721,0.03686369890314777,0.033278784983743315,0.08651781981929399,-0.05339796213040725,0.029371012471522014,0.02189171713879033,-0.026375863231573475,0.04465224540980972,0.06379704298666519,0.022088599621096612,-0.007052675008419864,-0.05183883982799635,-0.06846751024524625,-0.025771501933637905,-0.014409764335538415,0.06481035524322135,-0.0025768548990634937,-0.05586360767417897,0.05360679778891036,0.009764760823434117,0.046832218768916405,0.08686840755033017,-0.06565249532121752,0.01322191284052832,-0.025767969260761157,-0.04691859712863948,-0.024582022057727526,-0.09417092241808714,0.01860997770696561,0.04475556723334498,-0.0014923134268690144,-0.062235061378836845,0.03956314751811368,0.011994022985844392,0.008941707556337247,-0.0016646416210369872,-0.11806285477958049,-0.02025147814165669,0.059013254885315274,-0.050461084523434334,0.008867741771460972,0.06462297989225137,0.08386736581874625,0.22289437997068082,0.34618347768281,2.26936221686268,-1.002577878626303,0.9478703392212341,-0.5746572704727198,-0.4752264778935565,0.1357173614404095,-0.5697295046638299,0.309936174678356,-0.40880385353293414,0.46841212163512214,1.0865948286568334
109.90294647216797,0.989105224609375,0.5712347592866253,-0.08561546034445207,-0.107172651296678,-0.029196424556210424,-0.06170504582980056,0.04207138218028193,-0.09308122296263693,0.002429235083843931,0.0820735143392345,-0.032377074558296845,0.0298234315274256,0.017113579815652993,-0.02346042966485369,0.16373618070356505,-0.13512265219478742,0.06068203196428677,0.03585556577918832,-0.013109931720708068,-0.020156653548500335,-0.08966712144677619,-0.04268186271047281,0.050268857027084723,0.044945121055577894,0.021598007120353105,0.10255425720731512,-0.02796553326481581,-0.0076131098953701555,-0.07854802059700142,-0.028395190875583846,-0.070636688983723,0.10892758325644387,0.053802481980350765,-0.12198569081613322,-0.014305999803050525,-0.00433386198316792,-0.07713201227596207,-0.0074519037434360395,-0.013947413032414334,-0.01704638976968772,0.0891103640710083,-0.004488216518508207,0.05629567785942475,-0.011411113904947132,-0.11137736141890012,0.05730046827219987,0.03640355956243464,0.13268788728368314,0.05922460041544567,-0.037922654870586193,0.052398078134410955,0.023161628058012335,0.04775021954078661,0.0325723934514644,0.012081214725344189,-0.03179129958717817,0.01979415342102352,-0.026839187204990435,0.015504138859045911,-0.00782012686673229,0.0031580758897061575,-0.054372619151389384,-0.0226494245700712,-0.07085788707438823,-0.07104891422385501,0.009109165537765116,0.0331485681024269,-0.05022382968403071,-0.007174717495929683,0.05730506056927638,-0.05778731342778416,0.06504372678358844,-0.08425632005588882,-0.0549094175171337,0.01167428296854938,0.02724333027244,-0.054754469674543595,0.047137030501084476,-0.09603301200179978,-0.01923221801891309,-0.10792534947802325,0.05564780450987343,0.0008083227807447659,-0.28299746703999595,0.09092405332090395,-0.06523556100614884,-0.2053429505880431,-0.477101911304622,-1.4041577021825624,-0.925874778216147,-0.6203609373581191,-0.0696594229971414,-0.48104841706531265,0.5231515476233638,-0.3694777403640102,1.0924741066571362,0.28079733850988414,-0.26624751529448576,0.3196800127637211,0.1195293841129996,0.02957966616738794
114.00975036621094,1.009796142578125,-0.38596719951186603,0.05153532831421355,-0.17068462923655464,0.0744392096326886,-0.0162907494050625,0.05212921173348346,-0.1687135554893684,-0.2429609377197376,0.12357980307762628,-0.2774095171208181,-0.023973710107435,0.05084414298825122,-0.10936588751492002,0.16885873208450367,-0.08553170837288693,-0.019512771092555337,0.026982299989338165,-0.05819066775935961,0.07781782867765188,-0.12653535310876268,0.23421990846664045,-0.020019362604153067,0.17282801829195144,-0.07899473295879861,-0.052991710443939785,0.09172959862731755,0.09059399559452369,0.2017889662068264,0.2413179398376369,0.01729698034225962,0.15418875276464122,0.05411951598178593,-0.0844181959800441,0.2558214800777217,0.05308186322324687,-0.006518583390041704,0.000240330247601649,-0.031016275101084054,-0.05217666834306365,0.006834293657523999,-0.0671464502846014,-0.013965015754407607,-0.12038771564272693,0.06935060065223628,-0.06710917141308533,-0.0712358622866492,-0.058381664194891186,0.006637575073361976,-0.03843228395720469,0.012224383841126639,-0.03443513752540133,-0.07423568682795299,0.00833122257762449,0.002086197722787651,-0.012259463544502136,-0.016647963944970846,0.09405676071767029,0.019919622922633554,0.06346811065403488,0.028219408635421606,0.05177905343891248,0.018581984208062303,0.011776363821480266,-0.06256754119880314,-0.0013288254653773812,-0.05077031905583236,0.07278907540552129,-0.005975526534389439,0.04745201711525998,0.013025739560913496,-0.015423140575073352,0.059345647058770414,-0.015833328308098027,-0.02046184304976964,-0.002141410608103217,-0.030167689399538445,-0.10323167795371488,-0.0032886677585380955,-0.08865582765646712,0.14404931811245741,-0.03320138389938685,-0.044054999776222604,0.003299237335171328,0.0034099809834360908,-0.042146697622196014,-0.029006745911591914,0.019009229767590688,-0.6680227909875063,1.0623245339510663,0.7319206554303161,-1.0925161413629603,0.012430951480827589,-0.2754108181927567,-0.8549524763196429,-1.4392141644019896,-0.49924594138835343,-0.10462258050048924,0.38652286038410727,0.6897379108946589,-0.07063032388905921
115.01954650878906,1.0189056396484375,0.018308037842424518,0.07653311736121601,-0.14147922282215142,-0.2253087703474825,-0.030389427585362803,0.10974584120833504,0.01961998990627234,-0.04230473957515855,0.13916686604495135,0.0872796625275947,-3.421296029207377e-05,0.08880130339704105,-0.020684753423690444,0.0023240133480068505,-0.028219041639132386,0.003467321383498683,-0.006896286546006519,-0.00482779062710364,-0.0353986668824495,0.017809201205786752,-0.11240221835722256,-0.061653451755046884,0.1502043319487428,-0.07620305644580846,-0.000446169510269644,-0.018842276641619,-0.04945083310586491,0.021968254711356903,-0.08379112668378177,-0.14551581610984093,0.06611168270341013,-0.021914150642593194,-0.027518053974650396,-0.047094861135474377,-0.0038432342104178017,-0.06762534604603897,-0.03218918890495731,0.023049983521801314,0.004879303799745634,0.05238242867726612,0.01143932354091616,0.0159923967716699,0.09426495455377258,0.043426967800173195,-0.018512239642528842,0.07974208089693618,-0.09623572693703661,0.022311363522486274,-0.048428566069327474,0.04034235053276338,0.011839806458240343,0.06623430819345373,-0.02844116725031428,-0.048317702617191725,0.0512630992845527,0.05501175422043751,-0.008063834197623722,0.027849803870140518,-0.009874826977673563,0.05880146754058189,0.030929836071087895,-0.03197967036754591,-0.009984908957248833,0.02828592776253661,-0.060728058228750534,0.06829478526234796,0.040787324614232824,0.01916085635586541,-0.03320573708338599,-0.07118975520955853,-0.09394606422220338,-0.016230065563153147,-0.02824320228639796,-0.01973255204844114,0.008073042011076998,0.09557074183426131,-0.009278272974459146,-0.06576701694605272,-0.05000080070096577,-0.00945151905418333,-0.0010267118234059888,-0.023950009266165778,0.049361252111783736,-0.04750950042778792,0.17396478600433335,0.01283220013988201,-0.5899849760789987,-0.11837380170286427,-0.044916727090527964,-1.738349419885658,-0.38111932219038674,-1.0385930972729973,-0.2953541775367672,0.04035624007547345,0.03533982524645249,0.002456745249241124,-0.19475679023289705,0.11620350654660158,0.1059901306688022,0.40360748786764056
116.0384521484375,1.059295654296875,0.1543248541930401,0.13389348333633913,-0.05176261162708676,-0.17016182592712958,0.06139714744442793,-0.05856784386478012,-0.021739045561763405,0.049465447012303085,-0.10364604348584208,0.07517287985330866,0.010786498422053224,-0.0236005013285813,0.12931409722537957,0.13259416237427413,-0.045401753376742654,0.028420366999549543,-0.06360976029976534,0.07742652877780001,0.03444948411899672,0.035081386274900636,0.0005058190529302758,-0.027544727388902686,0.07770256831888556,0.021552172063333236,-0.018133031278904692,0.17696386542683246,0.5387407119760147,-0.20160949806327386,-0.026514586939589524,0.08690739420690982,0.028252280974071932,-0.08061325331344008,0.09185332833072929,0.07087346396458692,-0.041277420283472054,0.15320311685424964,-0.012665260500726812,0.01787037933661185,0.023845477298577368,0.018869518734914367,-0.07185197174923351,-0.06188124864723034,-0.023263253092796,0.009123049837475146,0.034549110518242575,0.0780657528818619,-0.01320871916031275,-0.06241507369669046,0.017562042688700295,0.019728676754754565,0.02540181049662152,0.0047417182963139844,-0.022872392030708268,-0.002839500298595409,0.0019400253673425918,0.0004933590414496311,-0.09817613193273271,0.002914501054158667,0.020981126409884403,-0.062477449865852824,0.038864181979844904,0.021882950817540464,-0.0016057773921168833,-0.0023187442031336316,0.045384456866383836,-0.03284736524332158,0.043864719970213184,0.05040165465451215,0.032821637954821535,-0.010441155353863875,-0.030314442224681912,0.01921294338584449,-0.06251573432177711,-0.027804351710425917,0.052775487956490424,-0.03452970099733202,-0.03034562112556089,0.0007130751938297653,-0.11487695209169607,0.026364809144155905,0.05781641622555714,0.002480553933163779,0.023563672025921547,0.08267626035706815,0.036421092964196475,-0.02335501255062296,0.6776386651123364,-1.1833189754855873,-0.7902159513375269,-0.5374617280419944,-0.2909478955743363,-0.06112798784328566,-0.49603464734814606,0.8423275122239176,-0.43723130223491835,0.7547883982216584,0.16950992045006866,-0.3798261399567375,-0.4800384785477546,-0.24551635125667826
121.03504943847656,1.0291976928710938,0.030559164058738708,-0.10044439825564144,0.01596894373665445,-0.08078655450909966,0.04327160587041106,-0.017604685668873167,-0.16336980507420468,0.019983348948983085,-0.13166576518800943,0.034397207756297545,-0.10760369003605412,0.07482004790537242,-0.055949863825261334,0.021707533085964167,-0.04686437431445062,-0.05408258598736228,-0.0009653731614264629,-0.0210635148865932,-0.1286197586579537,0.013832565212203225,0.0037321762051976334,0.04610522863074659,-0.047359215569604464,-0.01141977026043161,0.03045601043159217,-0.04469566091263573,0.05782184936566798,0.1953142002136413,0.16597151853461156,0.01619281083060728,-0.0003204410223642722,0.13023699108594278,0.22004043009003188,-0.13030924370062621,0.08339535292903495,-0.2866221757798631,-0.010133867884616732,-0.014820355757283146,-0.06708371396130734,-0.04763723470696451,0.03512933083148721,-0.010736248176663247,0.0002625751104739756,0.06548982622530955,-0.023160678034533075,0.016440522701139156,-0.011876005143690126,-0.060082027634693405,0.005873820840431555,-0.04536611325858709,-0.030247721347893445,0.03843103579129922,-0.05238113768817349,-0.012403050185343226,-0.010951766950312362,-0.023775050568854258,0.05943363524681419,-0.044502877676292504,0.0053155807248615565,0.02659610040592176,-0.058998171845058095,-0.08285291032811182,0.00962109280139213,-0.14297000135839913,-0.03695375384009063,-0.03358996028536033,-0.018396836201753152,0.014722141477004277,-0.07927241099728007,0.02954235670301684,-0.038470645566628964,0.017391986309284804,0.054616891855482214,0.013397642100774338,0.029617807424985286,0.044462302895830544,-0.07834191841574185,-0.11966346479598407,0.0046510001288467395,-0.012181388613484221,0.053475099589486395,-0.08226902143346504,0.058498860756483445,0.04309112654120537,0.04386479543907487,0.034342175088116766,0.15491649941021451,-0.06458564687556412,1.8061248426259369,-0.7991692284315045,-1.7620128376494344,-0.8719145531036565,0.17063230239350516,0.08351330672905036,-0.1413571832501054,-0.6540453414781322,0.03997895063841299,0.8975811947996258,1.0074869981537056,0.19206772159401497
122.06424713134766,1.0294036865234375,0.1272856145767811,-0.04462735799658003,0.03491985477217626,0.0438593004669868,-0.09459777394265038,-0.008959533267624255,0.08650024218737354,0.11533646684560575,0.046832707838175724,0.022824578932282763,-0.01716512417131039,0.13050239051967108,-0.0456476509526305,0.24238475428418688,0.008213828044708556,0.04422699156492881,0.025647727472897168,0.05642490608418166,0.05320673839434549,0.03755082179600268,0.05760038392920669,0.003457218017948356,0.024331692488898195,-0.04604133731113829,0.0202651852636604,0.009097996914204235,0.20677259940264653,0.0956763233149649,-0.007967921665602867,0.06504931167996288,0.12860185203578725,0.013166529065420748,-0.05322126543069795,-0.061013698808287796,-0.08431123888168826,0.11422177967664673,-0.07050507157267995,-0.05145860064683626,-0.07345319907669855,-0.010247207121339523,-0.027503625613029874,0.08915663217834972,-0.14091584826912132,-0.02115559718593497,0.1320760704828997,0.06053981394893003,0.004249752544651993,0.024810993745265755,-0.022520486904511805,-0.053174130719126064,0.024682479000581473,-0.022588347932695773,0.04530542570169503,-0.02877779808061491,0.04398904816183599,0.09676829495212173,0.022209686585839175,-0.03255292476676204,-0.016320819317360027,-0.019880252888160154,-0.016809144907850945,-0.020393867102047807,-0.0374221610658484,0.0012780595800625794,-0.035817682457660135,-0.04678455017726267,0.028307075310680375,0.04439162320780312,0.14572795976994923,-0.10622127506145983,-0.0354078568822053,0.039220148406619366,-0.045550860931560355,0.1182563644435807,0.001573066512245147,0.012109330858567025,0.06186926654954248,-0.028524593493247177,-0.02385930307552083,-0.07465120605571411,0.000878713532995087,-0.07568996184507608,0.0675154045470376,0.02579457747308666,-0.026333283450955643,0.1496030437942315,-0.04123902127398366,-0.8024086805062867,1.2121667316033304,0.34425163707712414,1.679714759856137,-0.13493264718684136,0.2625263157598657,0.33579506218448263,-0.09948506979672557,-0.4421344846814249,1.840116228669353,-0.8451838415393409,-0.1440659245256114,-0.24603244785705886
123.0936508178711,1.1794967651367188,-0.34509910780639647,-0.13587475970003063,-0.048730237534744716,-0.02132138156541507,0.025932959883008665,-0.3141893812292514,0.07341694286071315,0.20289313574380383,-0.10470481777792455,-0.07888937860961834,-0.09187279618118856,-0.22191592265347335,-0.031834715056007615,0.06795074176779288,-0.009822510891062489,-0.006305487798478669,-0.0644176522801786,0.026781078160920124,-0.03772360970206805,-0.035710112962609585,-0.06620704638464042,0.007290033688765829,0.05416582409633777,0.1314783540182544,-0.0723900239266601,-0.01776727053320841,-0.004080154445297926,-0.08343604448850503,0.050102811228989116,-0.05422439566289797,-0.06186399581493503,-0.07631630458368448,0.048177514004853185,0.03011499861508304,-0.08555983543607582,-0.0012042382115037813,-0.004178560713963135,0.0027416373109099,0.017070214337502103,0.016249523917089812,0.028729977396613312,-0.04225271676763136,-0.019698642712064885,0.016520330429903272,-0.001866287774266985,0.02219574474834188,0.04149826999016478,0.02198354954947145,-0.07754212170670895,-0.015908930978748084,0.02430263695274372,0.06180454441204334,0.04130121654049061,0.021119787744994817,-0.06042336326563568,0.004775377299837346,-0.0021577035975178342,0.018823827172762903,0.011243745407289476,-0.03706919228278653,-0.06897461653535329,0.04137561363583506,0.0050928830472488865,0.03444008211616306,-0.018444239068142947,-0.007217522014052482,0.004519066046560806,-0.03254268061068694,-0.05697385457833168,-0.05159254341169931,-0.05060462069733619,0.09607297453861498,-0.0002740277936427967,-0.054757799882381865,-0.04853620702370372,-0.009932098463370533,0.0894994696437776,0.051363043324455855,-0.052138340103106404,-0.060752276227982314,-0.028700137761813533,0.014924458772330954,-0.046544925631455646,-0.012904599092228873,0.035766083792556955,-0.05682057427955416,-0.06988746484090103,-0.09337914683202024,0.27974598148764696,-0.5025132669020035,0.06305548812860434,0.08440685160966706,-0.061726006898639565,0.7465596296428194,-0.31750774185127606,0.05595613390867818,-0.25844223706710046,0.3501118598832979,0.4421935183212151,0.15546318212097437
127.33074951171875,0.989501953125,0.5551311802121932,0.4912135991379209,0.7112575128606455,-0.14823424534480403,0.08096809079925996,-0.27178488269945456,-0.039187864136376004,0.06579459417736591,0.05750487840369893,0.006976984724713343,0.08584550248031667,0.03153703392947374,-0.08507047202595816,0.12229005367587012,-0.0026839015631115112,0.10099601824296933,0.016744855828213532,0.031039849357249877,-0.01198317774400147,0.01554288420838408,-0.10062707509297822,0.11810895739457322,0.3337201712246914,-0.0016041108854468328,0.03505444221985647,-0.005182249886466536,-0.24893449572124843,0.02548316005444655,0.07352732993561564,-0.11527769966539014,0.25172508488817963,0.015344575804682126,-0.04721644228561908,-0.009383996663010725,-0.08454513778625411,0.053112504601841234,-0.0372887662698166,-0.0293806580371571,0.0725205737530445,-0.044468245178886145,0.06004293166572974,-0.017822883518967526,0.0027656572396116477,-0.030309332929516916,-0.11132716789221554,0.031872129265719244,0.017755393766229942,-0.01970750232010675,-0.0011207434932570225,0.024295542278258336,-0.013503820806771344,0.03008026108987815,-0.026179814266894114,-0.01612703217918593,-0.04604455785517492,-0.024941325743730706,-0.018344911392242258,0.04070971877573293,-0.004965342721992053,0.05137207617305445,0.07068386163942517,0.024901820230612888,-0.008606486805883532,0.07875840435674043,-0.020365837022687534,-0.04497828864213627,0.016754916616301605,0.024888786410454167,0.005471591636020461,0.018560917021761252,0.03528137827866652,-0.012637956722347521,0.042995044562056044,0.026207950292961486,-0.01851366296531494,0.12258218189528673,-0.04606479604394449,0.0070152273547365515,0.014950778018024094,0.0009068565950527997,-0.26734048309237246,0.055616048351913965,-0.0464039937332812,0.18667267102010474,-0.09821175136293292,0.21999236903646094,-0.22447019556781803,1.0595668656709147,0.23033943870764692,0.8796906110948298,0.42166415807669827,0.34148717213340785,0.4387274612466131,-0.19322399632477527,0.7580744548045054,0.6040421460400377,0.454680414402349,-0.40149334097222256,-0.04517964152183437,0.0781816194412521
128.32025146484375,0.9989013671875,0.14781131463475175,-0.19314072138202176,-0.02970079703661918,0.03583214435741073,-0.09178949001643809,0.08199442821221654,0.05669470294396922,-0.04247026385924969,0.0591896426678211,-0.06765628973026887,0.03197028089291981,0.025717599350594835,-0.08176153826990175,0.015066448374621452,0.023599171492967308,0.03164249997272908,-0.012378734671075158,0.022775737679771434,0.04792303739015735,-0.007592376124221142,-0.1069110399509341,0.07157724526636657,0.05724451581186134,-0.20511160105528556,-0.2553388919592553,-0.008610309520077637,-0.02181631715733443,-0.06407860090316264,0.061889119428723195,0.04193741046433146,0.09165671895335775,0.008876059379608881,-0.0022365732510188363,-0.04142044585320491,0.06560714062231085,0.03161239955151791,-0.012781064159961482,-0.049504304309687545,-0.06822020324423063,0.032565851893266946,-0.008676219467790087,0.019941965633704838,0.08437939183707682,0.03520241526921192,0.024824212381295604,0.0677322923218734,-0.048908868341997286,0.003158393258063722,0.0012895095136092605,0.036316030586573365,0.004340436865700452,0.0554778970455971,0.03956973198121583,-0.04426828089415369,0.034907130513287594,0.08763501283499231,0.028968836683175538,0.02925347423066948,0.06853355157204402,0.03625238642516386,0.011708404838637148,0.010890286957821623,-0.0658510941292278,0.08866119623767096,-0.03264188216014536,-0.0034480195494057727,-0.045624443248398795,-0.06916202189295165,0.014019218574739934,0.016099755863804903,0.00023934823314121677,0.020061666363444024,-0.02638223319702143,0.05743988225778715,0.052694010937893616,0.1532268971006607,-0.0043040081574218375,-0.0004944805679728756,0.09511611688837518,0.031761625726313636,0.07063573389922774,-0.017708846843367883,-0.028964311116615214,-0.016322319051891056,-0.05405554444035573,-0.06893537336543247,0.000533393710880653,-0.5015480254520153,0.3190153701214234,2.408528426388269,-0.2907104882312124,-0.7590855483966309,-0.5004156077231183,0.44073486185673527,0.8569039461170658,0.31799228555488224,0.9244868757565443,-0.849870929172939,0.156704722672952,-0.10910891124548658
129.31915283203125,1.9785003662109375,-0.16393162067966557,-0.4209176223683665,-0.023991595117247473,-0.09057922949349291,-0.07534572907059287,0.06232905555547091,-0.09025285618427091,0.2095394803317044,0.025038630737090395,0.07638619053484114,-0.06800935571695582,0.004893662510499573,0.006448107993528816,0.06464122536248619,0.05084771614991483,0.015461951865802594,0.0392009053174725,-0.06948829527560009,0.09244547147000085,-0.018940979940126182,0.006844666398237043,-0.08338108469584798,0.11637903483072591,-0.017593855229099814,-0.12769564292503222,0.10315350985342285,-0.11995491598874444,0.04887527186659738,-0.0004740543330362529,-0.02765889048720043,-0.00941845368164737,0.10263529337559853,0.002742915735890821,0.022819413491660397,0.11037863965367244,-0.06425287468272328,-0.01821229766295361,0.0056539135913522415,0.06086283486555427,0.04071577748979317,0.04204389045785049,0.008519894272105222,0.06975082070855224,0.03985529025144844,-0.0093243540023516,-0.016077377345898314,0.015796366021529215,-0.030880053891983478,-0.009957634050365084,-0.0007112966258611061,0.04113116259945944,-0.050657288637119074,0.07220726820766628,0.017155716959702628,0.00735005911136187,0.005534531103132424,-0.02487545801136706,-0.06582366004546943,-0.007658893641954227,0.01923061394323052,-0.03915114253996328,0.03889516003063281,0.01093205490051363,-0.11619612428649495,0.010885880488896544,-0.02971581732093463,0.045678185624378365,0.014908872447822321,0.040592283545544734,0.03593399997059764,-0.07565616421467648,-0.008224744372355583,-0.01499060004051269,0.0018134631500726123,-0.026269901434298082,-0.08042367731523568,0.10795974851602146,-0.10447154899335499,0.00484575698786071,0.047097660553275786,0.046096553543638535,0.237151458885422,-0.057040634075534655,-0.001453978421881633,-0.00975720925612869,-0.16785222859739032,0.5253845517060693,0.5801839337672214,-1.3406163710916605,-0.25525259584668974,-1.1730127814330895,0.25711485914868615,0.05661475680468978,1.0095780209450285,-0.03731351957966237,-0.38387677603502124,0.5162368327319924,-0.3679863119163024,-0.041683892055434116,0.2202459739803391
133.31675720214844,0.9793853759765625,-0.8867924132254693,0.048708254315908785,-0.17450287354619773,0.02483430957448983,0.019788070653051847,0.13868131070761439,-0.11336215828492198,-0.07698279620076276,-0.15338967217445873,-0.059777637660937535,-0.03439198520030811,0.013570437135637159,0.005979610968729404,-0.0403013104042203,-0.07813486075730958,-0.016964135424954032,-0.011994383494181282,-0.021367449980438533,0.06106964894599173,0.052809519567164856,-0.07648672393640649,-0.07519302221730943,-0.1876004776734463,0.15681941215201808,0.3392868944630375,0.2525289904875395,-0.20702789638432778,0.084993648565175,-0.06698990041087846,0.2906536963435074,-0.06008664039999502,0.24804193564382537,-0.02465311526411213,-0.02842271987242205,-0.035777465601934524,-0.4030915761633658,-0.07362613135186291,0.05214296940100399,0.016033390096169515,-0.08972990465928687,-0.08350463920403994,-0.02871145372481231,0.04653983856718166,0.01071465653003725,0.04056120016923865,0.04719560036453066,0.0022098975677294005,0.07515127201010208,0.004035295134849064,0.036499857694383644,0.0026844753603696633,-0.06797633084729657,-0.021279317007848773,-0.011768357773104567,-0.033683109453459474,0.009227263522118473,-0.011083588646528114,-0.022040677755485,-0.03831997922227885,-0.02176854835563073,0.011314277832929497,0.0502951662709491,0.029834054918553742,0.018248126640987905,-0.004732228080631321,-0.037690394098002386,0.010959453244316058,-0.0253179900483738,-0.040935368075629086,-0.006282371428317465,0.011686549472423166,0.02635008614383611,-0.006210127097457871,-0.024749896658634793,0.033977197687280546,-0.013175896296415506,0.04069931100819146,-0.057253452724848636,0.0479035406710433,-0.01937720297344303,-0.026389672450864196,0.09617923260875577,0.04749378819827521,0.0424409379753987,-0.08067082583891994,0.012531583836694189,-0.3666028406836713,-0.41104329806559536,-0.004340895367784609,0.4751070429440042,1.5502207085444886,-0.5105650866694647,0.4505920728285631,-0.25640967016757965,0.6564659731521354,-0.11600893799265058,-0.5193178785971485,-0.8736894684894085,-0.2674213861067712,0.007575485246439112
134.296142578125,0.9792022705078125,-0.03702506637471478,0.04989554880916654,0.001814331580914784,-0.1963872049259982,0.1916288581468227,-0.07476522890758128,-0.07241678621244077,0.026520417321894446,0.048194590477638924,-0.11851275368364278,0.1022157655945679,0.06750606753461111,0.14940092098930893,-0.007905051601371971,0.05085797817461637,0.0745503843800328,-0.06213036889800184,-0.0648264638493195,0.041750666664566796,-0.02589589670151019,0.008820059234323635,-0.08634968374600036,-0.030018510920785352,-0.01247749857769465,0.011477802600468504,0.022960021537735374,0.07179682095317938,0.11917324848712796,0.09728665825441625,0.02357186648763012,-0.19419842717170385,-0.05030567423926359,0.19476572831307792,-0.024681211096782785,-0.010511977001399412,-0.1545916669701064,-0.025905221054842907,-0.05243188901115449,0.023067961342905376,0.05819846679959918,-0.030301958196741138,0.08127093225294847,0.018271066630852886,-0.01036166882660558,0.036477941262801516,0.03199956741432765,-0.05006112281822083,0.04561430920157301,-0.017891503065768977,0.021650068363603957,0.04270016988547014,-0.03669744662551389,0.031194465226244743,-0.001879861504695518,-0.012284831769836226,-0.07165257902742954,-0.057503265075932994,0.0039036725227417266,0.005048587159526413,0.0382073530442724,0.0032400997335647087,0.03505740099990183,-0.018303622009483753,0.03583874633727499,0.019685245709286203,-0.03843893006922133,-0.012177095138036147,0.021971154055528533,-0.031046794890956866,0.05142807078608341,0.009139481581226731,-0.08382939666393556,0.012942658731818033,0.03525300485074641,-0.04609812146598086,0.010862111717809313,0.02849328043443087,0.024027243372327048,0.008592923161209028,-0.04740278577675865,-0.07932572705315627,0.040513104456693726,-0.00508872988316949,-0.014664087253178675,0.048437154036203085,0.1533202264899016,0.07600422853897087,0.41203074419586266,0.2804674383038002,0.21450610871451892,-0.769169568499182,0.16359248256678738,0.30923074111428495,-1.084400089290841,-0.4501597793422811,0.4554994893409579,-0.3536364725910811,-0.1668437152444182,0.6447617922291237,0.14227597594017405
135.2753448486328,2.038604736328125,0.24671689721498902,-0.010774979974330585,-0.07517294687570301,0.013311389065741834,0.07599404559074743,0.023231163936616814,0.04557949779344726,-0.046698907921545026,-0.03180608636247641,-0.052747795340642674,0.0056690164538459945,0.055649049956131014,-0.019578941911341838,-0.11001691981453665,0.009151660758619956,0.02655475963081509,-0.002922515756764804,-0.014535141015015855,0.09323074941512723,0.0019780790348390073,0.00721348809360467,0.07078462921496877,-0.22836912701009263,-0.10335105780716461,0.060808690923070556,0.03751208252652247,-0.012088582662293835,-0.0701377702093389,-0.06161032781175457,0.0011586630179377187,-0.029914578105246295,-0.06101763482181067,-0.01177748893420695,0.10613298606335204,-0.09932690284889913,0.019625874352642708,0.08363229827624306,-0.06294764360147957,0.01458569012463048,-0.01529351885944008,-0.020394283161040107,0.03453320930651543,0.06442697837355289,0.005010491134700892,0.006124204959626488,-0.02840052108697712,0.12554755061462425,0.08107728404069313,0.03963136262914624,0.0022739963228021742,-0.032932973543178895,-0.021819736443697824,-0.020394790836924193,0.04287067045265876,0.033686581531891156,-0.019584012145945007,-0.011297797984539264,-0.03319166805880622,-0.027190113205091963,-0.08006370379567727,-0.00017536017269642948,0.01118537772728722,0.0736706339859583,0.00230121041814264,-0.02853556626756031,0.0766060856387753,-0.04179426569046381,-0.09168062401428195,0.017727640349573685,-0.030492872886407778,-0.05436228769585537,0.05888206683967645,-0.05663202264588224,0.08056393677011063,0.010822606984787372,-0.00456584109908377,0.004797422970785397,0.022392681133467526,0.007211760160299549,0.04384884214934971,0.07668217999547701,-0.06479570606952129,-0.28120354175685824,0.09003115773495671,0.07409036502689033,0.16360783858725148,-0.35790028269950913,-0.3852249989831299,0.6289824658965677,-0.496268941906916,0.1967424524798671,-0.3757227043217753,0.805713752852304,-0.17770132470856898,-0.1800067460752095,-0.4357087845415098,0.5826322581786119,-0.20877555926949454,-0.253458289036919,0.12613884875772402
139.2926483154297,0.9994049072265625,-0.510709001618276,0.5794344125598333,0.08539530280133098,-0.10007099127873109,-0.1152723331072565,0.21986105681796103,-0.2268016383635189,-0.2579557727692363,0.08702687382578289,0.022511554256380722,0.03235696543416626,-0.08957685631324229,0.014103897216545608,-0.07650023684285959,0.10547980912466245,-0.02290672349904248,-0.24122013847532098,0.3733322811139605,-0.17496419911394578,-0.5488668562978499,-0.10471443484557276,-0.11466437442509785,0.1413292128862925,-0.09450604580160507,-0.011347756193152085,0.2997932687371846,-0.2600422960919846,-0.0033615864435809903,0.29510291566386526,-0.011454348934049813,0.15976753986178754,-0.07783875620787395,0.08304300993657182,0.060443967540736075,0.13484194352709764,-0.030193547644506036,-0.205944853198161,-0.13985844206862713,-0.1426262784720688,-0.03881839757969668,0.03514570847328986,-0.07089749761110593,0.0145471791673118,0.05359895709193305,0.0052699973004148234,-0.01572639149538543,0.0020094839545455115,0.06219361480980923,0.018670676220541284,-0.04277580233576352,0.04507618590349917,-0.009137649538028052,-0.04826778066664239,0.002439764366868418,0.03908333756267991,0.023189901565389963,0.02411690479094506,-0.08464532648131137,0.04328992917494824,0.04760594644262751,-0.034811909020862085,0.08674466639901554,-0.014244711869681542,0.03427709721710724,0.08228547715946517,0.006982584401789615,0.02251109088527009,0.14544553592404924,-0.02915487607764705,0.003191241157000543,0.00826917744053142,0.0595181883206975,-0.04409500869206054,-0.05006566559901971,0.15024901796282422,-0.0454783472170484,0.037838008902154066,-0.08082683700300775,0.018974039639941397,0.09529481888013808,-0.03488370759316297,-0.09416919110568094,0.027217109017982306,0.06756587661849964,0.015137838610196776,0.05589340328901186,-0.008684173409504153,-0.6110032833116338,-0.37877655736246646,-0.6911367045263469,0.9717955741108298,0.2878519775364617,-0.6745717633700223,-0.32957051292235773,-0.6218971621970114,0.08652535841829066,-0.13037904998438354,-0.08399207734659538,-0.1170759155224831,-0.5044291107290633
140.29205322265625,1.0093994140625,-0.39658837588726953,-0.2081203744962205,0.002020999074923035,0.18661094371941916,0.016215103843421126,-0.1440061005021053,0.15940409461004676,0.15160915024303745,0.08741187268219203,-0.2452195854058329,0.01524308928944048,-0.026855640739454855,-0.1141147100373434,-0.02156675692733108,-0.016463426523922166,0.056873897660744424,0.06158357511215625,-0.08781652427983361,-0.08117046245830908,-0.009146466578012446,0.08278474645253353,-0.020327361023235485,-0.02047491177372511,-0.009489131482906633,-0.11398305459316309,0.13724999415671885,0.003664812011067789,-0.05215202516821092,-0.09865693616343149,0.1911261189420368,-0.02707687390048786,-0.17699383429291163,0.1424594614113453,0.006650452098606218,-0.010973223918124603,0.034587600870212634,-0.04935274402718817,-0.10188754711642056,-0.016718568392567842,0.03533588998278546,0.04060009876030492,-0.02001062541907809,0.0009549113520648002,-0.0556645494531436,0.035161875218614365,0.04068780865729088,-0.019214681107156604,-0.002818378522451961,0.01676505091788151,0.021288010005878537,-0.013802101482654866,-0.013495011282051914,0.02078035479460668,-0.00202356230842282,-0.05606567349857864,0.049538111720156375,0.004178113653331884,0.008435048860564611,0.025705762311646514,-0.08024159553700447,-0.0021410367837692255,0.013974690982743471,0.05877269789472905,-0.006576989735517749,0.0608971898161781,0.05840383391797371,0.01984523580141869,-0.06700446287597922,-0.06132365412225451,0.03720338592250456,-0.034229277330560824,0.04473085860402262,0.018625497235751562,-0.05362793963395098,0.0413019435449249,-0.10461285918718359,0.022710815888165273,-0.003340320010504565,0.10676237393145624,0.04812188737418793,0.05883369599472054,0.013735022841342762,-0.061725330776101546,-0.018694833649056834,0.07994075115663349,0.19334903378668308,0.28198795602041454,0.7991868153281371,-0.5468069628330372,-0.08748063977627246,-0.6180013673375349,-0.24461949254956708,0.8436992152624643,-1.2786594626448702,-0.05760488257411306,-0.3983396534642979,-1.3481061554431353,-1.154820384380049,1.3770804455165975,0.3406914520666987
141.30145263671875,0.959197998046875,0.25035895982819384,-0.17575177313838433,-0.06229593729522692,0.07628434687792682,0.2930854298257246,-0.23067533098014567,-0.1145360898910099,0.012912390605680184,-0.19016061261703746,-0.0659444429519784,-0.11772425976421665,0.09998526317475012,0.03802390496770507,-0.03501462347287934,-0.017108264167654486,0.0548060045399525,0.06355566425895012,-0.06724900615081247,0.022021578484953456,-0.0633083649051943,-0.007015960815879241,-0.027654141956846616,-0.022363397544692507,0.020498650070955922,0.06826753649963029,-0.1346256395541738,0.13936768706258654,0.10054368895565868,0.025183570838155766,0.036678565896694756,0.3747025780533787,0.1271077933350992,0.18818149387407537,-0.315442571057544,-0.039963017683420345,0.010034179236341135,0.10504390278417261,-0.03233624168188327,-0.08920579480335798,0.08638263302030783,-0.06049709772501047,-0.0015342671647855,-0.08309883794589364,-0.0862727510716979,0.06111647897745638,-0.04404127707982619,0.01980533745234497,-0.022403887722027043,-0.0794812845310916,0.03564493293358291,-0.04824887105025483,-0.02745974869779711,-0.04552517575510175,-0.02675418113318719,0.0063908534539188514,-0.00012174167887434647,-0.026010540314203162,-0.009128504778868557,0.00570687140401645,-0.05658439179900103,-0.03640684124310302,0.10388510545277053,-0.038384178322984096,0.018189219046333176,-0.0257582039103754,-0.03901897394538634,-0.04939279717053264,-0.04998805433699466,0.08867377287487564,-0.1301576102017328,0.001545338270630886,0.05133245250339323,-0.03755131089930607,-0.006466099030828482,0.04172166253032191,-0.0991308174246852,0.04986292056936674,0.07870979560010674,-0.0263960232305443,0.014133865977173287,0.05904498142044433,0.0004083140654146094,0.04423574506802397,0.058350643708642444,-0.006359964145989515,0.43928137961932756,0.3494724132644605,1.3833655911974052,-0.36834593313738084,0.2909547596518437,0.019478736779631654,0.11553404276004273,0.3516036970075127,-0.5520910670191616,-0.5596265309189464,0.3732769833911046,-0.21864623481162188,0.12958925293604068,0.5806203174846238,0.07798837594428633
