start,duration,0,1,2,3,4,5,6,7,8,9,10,11,12,13,14,15,16,17,18,19,20,21,22,23,24,25,26,27,28,29,30,31,32,33,34,35,36,37,38,39,40,41,42,43,44,45,46,47,48,49,50,51,52,53,54,55,56,57,58,59,60,61,62,63,64,65,66,67,68,69,70,71,72,73,74,75,76,77,78,79,80,81,82,83,84,85,86,87,88,89,90,91,92,93,94,95,96,97,98,99
8.189800262451172,0.9388999938964844,0.01479898614509196,0.1220045042746309,-0.2500772846413952,-0.31615986584663464,0.2542879257220748,-0.04495436024789866,-0.06683957149117158,0.023959438593897292,-0.2537777197568283,0.5832948070403501,0.30921994500683725,-0.02333750546900195,-0.15136428642960625,-0.1538126720005373,0.09832815276937315,-0.19274456012238295,-0.04306152847618322,0.3338290295379803,-0.2815312019105544,-0.2224815872833941,-0.06796340033933566,-0.022808215737913647,0.10145950578994002,0.03525230759993735,0.030409893654613957,-0.05987408435657214,-0.0037439258213272384,0.016380583663219598,-0.13620012511097412,-0.2855804572104462,-0.051436832239592556,-0.6034553671145627,-0.07973390237868948,-2.651661970722786,0.039121548893764665,0.0003684486496593198,-0.009541601276045478,-0.6089211105509401,0.04489586914407108,0.8204595252346837,0.06190076732684993,-1.387604627736152,-0.8189932895433234,0.6643271844605356,0.7455909633814888,-0.9655972480748247,0.8004481588039701,-0.59146458609221,0.3247501729074902,0.5626292865332233,-0.25026109879098785,0.46467460863380555,0.1357536485156238,-0.17142123156137867,-0.0359832154067296,-0.008817389066777537,0.09085365642269659,0.0018576868575764173,-0.059627393285367196,0.009303074719542321,0.04415488967944228,-0.25163818255769543,0.056408947810189555,-0.13128036338532184,0.0049269626072956305,-0.00037445890741128786,0.07928877204941175,0.007884009761971345,-0.07614846928011805,0.03768230827935154,-0.03192384185382989,-0.3023058888618779,0.11973744446910775,0.20344724548684545,-0.22081943754195807,0.017539615083453003,-0.0003353324053101594,-0.036093816032392256,-0.06793739272734964,-0.04340854809910074,-0.003796981576168275,0.05254697855162983,-0.0073170439193101944,0.05541943696009355,-0.023242195977808244,0.10077491092136122,0.03485547974459968,-0.049252703869149955,0.1050079017337888,-0.040187066909616716,-0.08648948243747777,0.04537646697537603,0.1434160205046412,-0.05907136060629621,0.24242230741730753,-0.274711012970597,0.01860925240456042,-0.09961864987043273,0.15757625086065105,0.1663501917927056
9.128700256347656,0.9285001754760742,0.14763122430749465,0.2645599610273565,-0.15929672128214697,0.01682306394781516,0.03732070731679471,-0.022478260213363487,0.1777017123632873,-0.1874156638358692,0.04720637202589604,-0.23445206496384888,0.14156680297125807,0.021960208674782537,0.08495613652160994,-0.05356258744920067,0.09762396428787899,0.07346502849320184,0.13704223366655907,-0.10146605474875135,0.08462100734832818,-0.2468540005267255,-0.07172039304676081,0.07664229562852463,-0.0322504266861801,-0.04200978324632276,0.03371550410300817,0.1070740248215541,0.11991804016606884,0.11404976514702153,0.22790054058781892,-0.09087894218494037,-0.05381366774495115,-0.0399845330778473,0.017174436283797875,0.18529078212731004,0.8503271457607378,0.4813622807323908,-0.041841083572228016,-1.6072035703467464,0.6423637565750957,-1.273821939918175,-0.3514397792695484,0.13180230833990367,-0.11261520378197593,-0.5348181129650074,-0.40677259624762874,-0.04174254420383747,0.4768569195719819,-0.36588996620161673,0.09635628652684541,-0.7581714256821316,0.6607122165588432,0.7992244748811617,0.09261899320185848,0.12927775974773836,0.10981553218228347,-0.13941568161907975,-0.04364528221020291,-0.09246585752936756,0.04962867685301732,0.15196935096321368,-0.2527102174305953,-0.2417281262840952,0.04045892676765045,-0.037280391972489314,-0.12143188458376536,-0.08778426875955941,0.21513293430474065,0.08918659320802053,0.21756671249387105,0.1814713269024753,-0.090142913966166,0.2027683851300703,-0.25855435405493177,0.03917213289603258,0.04831331021061579,0.036056146289564765,-0.09071033938525734,0.07441509977204103,-0.0634174474117993,0.058998220391691295,0.08209557699174833,-0.01588991988844678,-0.11320809881367466,0.040174709918856036,-0.02270382387919352,0.036787826480988134,0.005174556532854084,-0.06944371267178812,-0.0424285987407,-0.13943211946639347,0.1890125364865938,-0.0028036735236189173,-0.04043658816959652,-0.19750535677703232,0.06912390723162888,-0.1262618189261174,0.08042810054844193,-0.14413247619050387,-0.19988910134953275,0.15603862484548225
10.05720043182373,0.9488992691040039,0.007642451866211986,-0.050247671463009305,0.5156193898188111,0.13526318918213087,0.2790827671658841,-0.22998034741434487,-0.14746145823753162,0.5315084363702196,-0.4958051595187103,-0.1920129449064263,-0.0441199985732722,-0.112997214124408,0.2402702095035862,-0.13181624844036433,0.5393534214706849,-0.2773342301555227,-0.3199196338189255,0.03457026882612106,-0.2974475738655882,0.015619237770197332,0.0009177216868081726,0.026965988399707944,0.04620095207306145,-0.04560289368037873,0.008292545610351351,0.18175269626748589,-0.043686609518461324,-0.0593012987331838,-0.21539735588622422,0.029310855891041532,-0.22489946170505837,-0.06630532097479977,-0.10642662709375596,-0.5827360430981353,-0.38794516776208043,0.21214451986455574,0.22459799661693036,-0.3767560574796937,0.40437446408842315,0.2665962016002796,0.6332050038337642,-0.7970663016047892,0.7456586422704351,-0.9342057582023348,-0.5810179705290459,-0.9642858705297199,1.4070276357792497,-0.022505916944430812,-0.007882272770656618,-0.4241262808554674,-0.9612088160339054,-0.48430874180197614,0.1317723811498842,-0.1216481309526972,-0.07334837822164089,0.01582617524576496,0.10858428041638758,0.0019040383451522456,-0.0018765082758833915,-0.2622848539601626,0.03628062862612884,0.03449742150201017,0.2530676414519134,-0.35505264854348645,0.36347434676275514,0.0873621985684247,0.0838791712841501,-0.03792947317018268,0.025630448700482596,0.20084976791859813,-0.06028521686300735,-0.1305039838989488,-0.19777254122066948,0.11904669504384974,-0.3475001846287855,-0.06541333547109565,0.011157695582233809,0.05891819807845869,0.04144592233645087,0.02033660172550416,0.07636299957791698,0.035296698020043905,-0.09334121344093663,-0.0761432171828397,-0.07642187162166125,-0.08694911030219539,0.043535191934168126,0.2364594755393742,0.08545763317716153,0.1392145458237786,-0.07124936519881893,0.0929924013426411,-0.05836189608634866,0.06679431731616976,-0.08609968205106543,-0.051074209279461144,-0.05364444339028436,0.012439375710541828,0.2093030881480116,0.010115259208515026
11.006099700927734,1.0093002319335938,0.1699291435015122,0.051094665068638974,0.13017165691339688,0.21738715024801858,0.23564035844794784,0.10840178578336594,-0.186707887131273,0.0945727858854387,-0.05033027131656467,0.2562524945885504,-0.05661471233807715,-0.03601632995895532,-0.017835539171623584,0.09322606411932731,-0.020355065332313408,0.13832851075393687,-0.3550158150716656,0.3529634245458756,-0.20046875994744706,0.0669487451650485,-0.06421817153299024,-0.06757274790051539,-0.38232632246549436,-2.072307165356398,-0.00022555772616186798,0.4266266062207392,-0.4701375364508782,-0.20050719028879951,0.2231888878788401,0.8390125682092612,0.14343263746201898,0.10063460712079461,0.3617320865980334,-0.4337093004377526,0.025099156887544924,0.9074331885383446,-0.7247546650001216,0.1297072114553702,1.0012088872109395,-0.16698247204497457,-0.19816041517079613,0.6676414983381014,-0.6373535462866513,1.1022842968152098,0.11529237607133486,0.8009147176905899,0.7283320821511167,0.37365701156782793,-0.41826013611881296,0.07213660951874876,0.14070519366463985,0.005787342515901576,0.32127741756567924,0.19116991313253487,-0.012789682636881112,0.006393966069287188,-0.014666665765491978,-0.013782444529285238,-0.04200378550049419,0.3250539125718062,0.3013453794031179,-0.03968629157739596,0.2575111408717154,0.04925928037681085,0.06674509869068661,0.05826524787725837,0.031379627233064464,-0.11997828894410772,0.02159860693917052,0.15408693690595404,0.04257871145197057,0.125613837857412,-0.13114349523844532,-0.035388213910687825,-0.08066191663357733,-0.006395423496417341,0.09226386629346787,-0.05341750808355901,0.21991446494596392,0.037344357928685235,0.01549153261912556,-0.034723128146962275,-0.01748791183581249,0.11640643728916433,0.04270111498670347,0.011058063965701012,-0.11931802697969472,0.12439374697388797,0.04330788079550973,-0.12343617271372803,0.10565223379555158,-0.021094260372257468,-0.09455108692757987,0.12153392295737048,-0.15492029233590426,-0.003547116831162338,-0.08947485199858513,-0.11849280165094195,0.2635534315440493,0.35714518831421965
12.015399932861328,1.218400001525879,0.35864868652629295,0.6779193575012259,-0.10036384186111737,0.23829414664740006,0.03323549717590746,0.026977995939985094,-0.19893549623542428,-0.0610531903862649,-0.03415025649196787,-0.24733902536263697,0.1424860157450884,0.15675419647184383,0.07172086510911697,-0.03909736387550905,0.23364110211243905,-0.04427987950905059,0.2212038607499362,0.24632460431859957,0.24261087156670763,0.38637143342138075,-0.21365188223752402,0.31478254306852177,0.35990546357934355,0.11078976137824224,0.16054503994950062,-0.572668620329758,0.30893252880746364,0.035319119654916055,-0.23452789121465076,-0.029841160393435522,0.6920028283599757,0.07023148394654316,0.20895769675921524,0.34034065836446575,0.25383885253409555,-0.1103457496100849,0.0171978057149828,-1.076129531432607,-0.3249019104110936,0.13886854529629514,0.1041114347556239,-0.08758184897799813,-0.19648905268086955,-0.12334229168399004,-0.21122480769045734,-0.21533918778860128,0.3625259233791394,0.21627476870049123,-0.5154169754556972,-0.1309803887926833,0.06760120974339251,0.12827962701798556,-0.009352210953967956,-0.0837741067281449,0.33798239461987983,0.27144066238176484,-0.05074729526822064,-1.3100340234976602,-0.1142175717103435,0.03213818224766509,-0.060164541608731026,0.057221208964890954,-0.16463002133401716,-0.03343374397499873,0.07408549213156362,-0.15527532013566642,0.0657022414051939,0.004813301499036152,0.15952300536813027,-0.00790775148506934,-0.005446445426279343,0.006101101973037794,-0.01607060587187191,-0.061970844859430926,-0.058702094780431195,0.0661517639118816,0.11956539314761999,-0.02333535173470628,0.11983803478781746,0.08459009469736373,-0.1744602382451131,0.1477535731963246,0.004243112902853591,-0.29665317020177273,0.09061749613721558,-0.04412457004956757,0.07851588465865297,-0.04146997165047367,0.13981667559078786,0.11107864131099751,-0.04523514233356629,0.15964611120098854,-0.13821352176714538,-0.04305996128089537,-0.19492690082426525,0.14946560461481334,-0.21935685333541918,0.002820377093042413,0.21825127646343206,0.3187764718063384
13.233799934387207,1.0088996887207031,0.33523927440893986,0.3910403245759729,0.09276839747653284,-0.24481189418579252,-0.23020006247271155,-0.016363954993267364,0.08060035627493946,0.4492497228173771,0.08379938711144068,-0.09028620278697796,-0.19461755479669135,-0.18430793345932533,-0.3155617371542861,0.05702071730659819,-0.18165249710788145,0.7817987036192169,0.36413354392282243,0.06701118211817063,0.31815916720043574,0.26998652945688056,-0.16699342394182526,0.6580263177125274,-1.040670486532401,-0.24653723120740098,2.0205918201324398,0.16686701147058425,1.6246342219516112,0.8194796302928595,0.5563039331753921,0.6829201177271702,2.3653198022004993,0.495794694882397,0.42483446847850176,0.5352244745652824,-0.5311823791069225,-2.9891806225302684,0.17647141417305345,-0.38559414393625124,-1.5746979951572764,-2.2430282234289227,-1.57058530057327,-0.16399898952790437,1.4486084282511755,0.8160511880147818,1.309942228656089,0.9519711726119343,-0.08621975333937375,0.08337669784243938,0.07862232405494995,0.13258662883178943,0.5851016491939696,0.6247361977454258,0.23875284467057126,0.5919902036577159,1.470917886334913,1.3434913452929198,-0.4061376941289034,-0.11446771094709451,0.05463495870477542,-0.10595540761406094,-0.03494428801174277,0.12102573786359924,-0.03314924334691676,0.15286612048056045,0.038117194698835594,0.3035926123119596,0.0478891703316277,-1.5791281226227243,0.13654726270713108,0.11439359529322721,0.059522975784201834,-0.04175119397788079,0.19957858891067992,-0.1990427852595114,-0.17060989543841348,0.010817057069698096,0.004365847267714423,-0.1800726321795108,-0.41168169184817066,-0.013311840716448548,0.052098991533642156,-0.06041670350055758,0.04217527598164477,0.2564100782591705,-0.08606100429233993,0.007105930696946297,0.010876911964033,-0.02790172665101141,0.04552132761056285,-0.07176358217457118,0.0776862360336461,-0.06379794491637819,-0.25867696813394886,-0.09338082884620919,0.053242543926858,0.02165851447358415,-0.20985214738309688,-0.12323254967306198,-0.028268452494725295,-0.0193827534160447
14.24269962310791,0.9584007263183594,-0.1467820538748388,0.444878639558599,-0.21827712897825924,-0.14680559991044181,0.5113938806279213,0.19735343232669655,-0.17492828086330925,-0.19124464744770456,0.08306997848989761,-0.11311815358785718,0.19253466856316925,0.11628862885445543,-0.13096044190534809,-0.007667413981031495,-0.48875870970294366,-0.014844374473731423,0.4364234825525505,0.15809147971540652,0.04205297038292298,-0.1609259625257957,0.10378275097041172,0.08379087066063023,0.18293170818842447,-0.04708342829513523,0.0964363987701,-0.051828103864842746,0.0646364688232293,-0.18558604443659088,0.201431168856602,-0.016674746434792925,-0.005154353234696749,-0.09976380244872758,-0.09022763311623662,0.26250040480005044,0.08237182921396662,0.06842655911512378,-0.3537486108028699,0.3090444061672948,0.04443058512987444,0.06266883670801843,-0.24456758609238252,0.4600765781239119,-1.0707370593728862,1.0867034791636427,1.171260016953535,-0.056358955530858706,-1.4989580775741094,-0.6451085737466986,1.662388789922647,-0.9474005582000647,-1.1292138247503583,1.1055525179216492,0.5450125338428438,-0.24715397158895863,0.145400623106597,0.3606708499699864,0.25943004459049185,-0.10933509694771539,-0.01184010881177628,-0.03391790007042022,-0.022606324846074968,0.12100931572249428,-0.3847968536320612,0.0048439625589212325,-0.054947890958704046,-0.06314167755573123,-0.07590210015718131,-0.1473802184311266,0.2484572563900577,0.13008644704838365,0.06334854982076897,-0.14603147924884474,-0.010856281506629182,0.09377682776001567,-0.04475301653601921,-0.0779409814177958,-0.07290880804968693,0.13816938289573377,0.09266866815953916,0.06542223428205762,0.07546082642723186,-0.07389136661503601,-0.03903434471689383,0.07916063349089221,0.052299783954064226,-0.03906570109569718,0.04930474515224712,0.01788285591438334,-0.2167248807318073,0.19872713746386175,0.19404735200386874,-0.1971674478272684,-0.2184931352388394,0.03215220713355939,0.037204819423926457,0.0511528833816763,0.007148343705237648,0.22642397552378496,-0.06602541457649383,0.097790461306131
15.20110034942627,0.9392995834350586,-0.0612140903637817,0.3524268894535073,-0.10725945329277098,-0.04345972128464265,0.42242514092117495,-0.061651146977510785,0.03125382710704402,-0.6904786416693239,0.3009236822328921,0.6240404223870006,-0.46029556064414257,0.12937286809641693,-0.10957856582349229,0.10891803310556307,0.016699795191082663,0.3084710984392367,-0.007916597453083596,0.03525594308470259,-0.22660972258758685,-0.1558868163583314,0.004825761583861998,-0.012605067483795654,0.136193373648468,-0.0420095730271038,-0.06681734917978532,-0.008208171454545582,0.020384372559199684,-0.08066416840027799,-0.0421914509081645,0.08831943399126596,0.05434416644744168,-0.2552836236774122,-0.12420315831264296,-0.18024460037708814,0.19034334771187764,0.44103229333944693,0.22240073760306223,0.0007818425613267399,-0.045510236648221965,-0.19761769456974065,1.0739512893161651,-0.1897087680314281,1.05926920173268,-0.9593306798676102,-1.329636606925108,0.7127704094035102,-0.5013101150923382,0.8370511764563315,-0.5998584059336433,1.4216019004651632,0.40145569143748294,-0.06230868504216441,-0.15221162555014833,0.05420132256391931,-0.017342546720906654,0.06859514840974539,0.015871554076963494,0.02835249651420789,-0.027473468514862875,-0.004556979095321779,-0.09552806835789775,0.08416858734959315,0.12253363611677372,-0.20027206376710383,0.2646867370385527,-0.12126187851981086,0.12227156687235136,0.12362151575654466,-0.3301316549007509,0.2142254124577298,-0.008082977598900375,0.2215688793924966,-0.016817154992383253,-0.3142795250690554,-0.180529776305502,-0.011459290720690924,0.09612814437992226,0.025469481880980124,-0.09710379862507532,-0.017515041476305383,-0.009598538729157221,0.050053258199755174,0.12842172611420755,-0.21197319585680088,0.05982416728714446,-0.01901387933700487,0.05513916579666694,0.12195648789823435,-0.20223706629709454,-0.13242814777050882,0.04714972624763308,0.029558737393823156,0.04217737737938401,-0.12887004532969973,0.08847570429250678,0.12068565840247966,-0.38089112459384716,0.22038202815242477,-0.07929665782611578,0.03957530741465509
16.140399932861328,0.9484996795654297,0.057405613861472894,0.02350791141960541,-0.10296956315281802,-0.20370221448955356,0.15779184997483642,-0.13399632236587583,-0.08370412019559112,0.0843014616971904,-0.12780809700933518,-0.12548136547682082,-0.578894324468886,0.2474545336467256,-0.09516588577529438,0.035733176309077755,-0.23449824287550353,0.01591368837585959,-0.04808614168986649,0.1109141021337507,-0.021739372265284412,0.29784969265501743,0.2590345066202011,-0.06835896152491228,0.03746473291500202,0.00586462118877411,-0.1461638360640525,0.106016156840785,-0.003691516808714119,0.2730980711303024,-0.33671150139442274,0.06750728107111233,0.0552806602073117,0.2245193379621289,-0.5986733630270246,-0.3606829442666888,-0.5333240596067629,0.18008773658112853,1.2690125339114566,0.7886488286108382,-0.14701780999902178,-0.6051965464134951,-0.2089800906635387,-0.10657963508758325,-0.30750860897741333,0.4573609255598964,-1.7314334022994375,-0.2850758599446861,-0.251256511293952,0.14073138396932594,-0.11680971252383629,0.14104189402456557,-0.48268260954398606,-0.021369398463831533,0.08920243923044917,0.6163734562344464,-0.0145162586597963,-0.014383205062080781,-0.05684206650315462,0.05160542599431843,-0.0315409776545386,0.04030180693772986,-0.10912557867477723,0.21825454460195107,-0.10295200026856506,-0.11112683120458611,0.15850245170709804,-0.09921548929564529,0.07026015028581595,-0.19081648504487667,-0.24941984074448625,0.03851424185399112,-0.049660033606821266,0.013577074309837957,0.08222519235140918,0.08248335095140248,-0.2996229050026154,-0.15633288676481058,-0.0043932205893877935,-0.06770178755130331,-0.09345557533271298,0.07946825080255834,0.014769481867602144,-0.03538628125368238,-0.022119108913550782,0.036687495364937275,0.011701820571098878,-0.008811221568669661,0.01150319347524247,0.018281204272955005,-0.04664400456797574,0.15602821707934364,0.04863300446726899,-0.20765505791777283,0.005002690602201862,-0.15935194949897033,0.021027841392456795,0.07593151595187039,-0.17458237376773772,-0.06129232060084436,0.06812220158214319,-0.142272953030318
17.088899612426758,0.9689006805419922,-0.15360693890925736,0.2754791574589255,-0.23487431275693918,0.4941645227889875,0.04566792547258142,0.12199473930051417,-0.3140097281978465,0.6601191753702246,0.29324049230576255,-0.1865762131495008,0.1514460167539683,-0.13188965101778813,0.16594349031278602,0.045322463671763194,-0.017452394412283537,0.2234260803509339,-0.06844748098901982,-0.08204079264449071,0.11091903695539335,-0.10977715692873102,-0.1605489763607016,0.09462149929976768,-0.028526353176349578,0.019845324824914832,0.013851047784267283,0.033987976519260873,0.36049352525938816,-0.1122159990257596,0.10615368098797888,-0.022899674145041127,0.16315143671166388,-0.0022477981920359033,-0.23930673291720353,-0.19299462630793035,0.3842432582436344,-0.3598179206544873,1.272643073624175,0.05483238047909782,0.02983835279025663,-0.40938327899537114,0.18003850609206923,-0.7359593344063475,-0.2538298110448025,-0.09634096540834222,0.36627339312323026,-0.9930145320975035,0.9092842725256677,-0.2345157706524421,0.012377632806551062,-0.6413521151637447,-0.08259847916263029,0.11424821409449429,-0.16951568004093134,-0.15574384858676016,-0.13769245554239012,-0.06799225792684405,0.04464022283522131,0.08955108977357881,0.017811854312703667,-0.04110941548034441,0.14505005346701247,-0.21301818656402954,0.17823770942243342,-0.17124516416053776,0.06586165703054846,0.11091743314920288,-0.1809817533748359,-0.07356319790722077,0.03368279522065743,-0.19326846291535646,-0.0956125207441454,-0.1602513917087315,0.057666793794912,0.18747421321542207,-0.20336408440470677,-0.20583129946784287,-0.11850521550718066,0.13074236935890599,-0.23832546196046536,-0.04864477537807005,-0.026202819360246796,0.16651356558965522,-0.1498441908568108,-0.09198317107505258,-0.11601078114501841,-0.005069981426783382,-0.23626844417868478,-0.14807131122256112,-0.04120197753533257,0.1777435528795303,-0.4205155832662474,-0.0377950040647531,0.04767405367626297,0.16156843851765013,-0.16085941217159977,0.06862906275586489,0.10618389028192286,0.06602217470918219,-0.01685972001758374,-0.027355792423230274
18.05780029296875,0.979400634765625,-0.14797139318334152,0.2403854821266188,0.18158485699602053,-0.05684347505778145,-0.22554064857094255,0.17702770612551438,-0.05118577442878769,0.00955819868059398,0.17824105364746531,-0.20648777280628644,0.09264356107548616,-0.06845181772881737,0.06514433646945803,-0.34905035755057223,0.07136532523276469,0.21009299444470317,0.08050168061362546,0.04985031390014998,0.059643213360131585,0.08268479762643649,-0.09701571572554948,-0.017741744484753255,0.054573423233889966,-0.09900324934008359,0.11078385434928993,-0.01739498679194118,0.03386234734811685,-0.03689136986212438,0.13469260982830558,-0.22461407138349732,0.14543692583362292,0.03377595913633877,0.645347770709427,0.275097891339102,-0.10585316638546188,0.230459185585139,0.1900951945463199,0.3932255827731555,0.07719790568200678,0.12261226524049884,1.6376316694033282,0.21429600483968514,-0.6469059249637403,-0.22608231815265822,0.49205291525065287,0.4038598836823588,-0.5815941041138839,0.4051686276225921,0.6173017789676284,0.265814873916813,-0.48927346194100185,-0.27592370990548626,-0.15496178233741867,-0.20967113328657372,-0.04766499835638223,-0.024658591479862726,-0.03609441640694226,-0.0073667727742838295,-0.004220375038658743,0.06323975559573454,-0.05610580574766435,0.3036757921431103,0.03169497214230697,0.2723549462432141,-0.14407205421623942,0.06188472154359939,0.17917918674229072,0.04793425946038127,0.18302309354133692,-0.13006836859998122,0.20667794682091045,0.021578796910493796,0.025098591676799453,-0.046589352173348614,0.043973289407533214,-0.08795842855536709,-0.0323495889512495,0.0011365096151717763,-0.011098685076504996,0.06110226702645997,0.07018081448678036,-0.06188059332740862,-0.13330100866691996,-0.08703144633139358,0.1356400146832825,-0.1538254380390076,-0.029965687568462438,-0.09794928431455305,0.029595696161952963,-0.059528059473988315,0.04766999201717567,-0.028018148174421748,-0.1204353539333546,0.3013677715087665,0.22303913321315116,-0.01360187318099676,-0.05746584648348707,0.14727870876463586,0.05441247872514331,-0.15688873406090775
19.037200927734375,0.9487991333007812,-0.15036433509577807,0.18601483797428917,0.11476326763794359,0.21547814454269718,-0.01052736783351576,0.3932193072482422,-0.3447407242000223,0.1176245141800236,-0.4217478837694203,-0.1193516475984639,0.13103710017382272,0.12275449003444093,-0.02881737808817163,-0.06675860421939189,-0.04381551737652166,0.05091860178627958,0.19989725050309906,-0.17182800307455134,-0.011309903377288296,-0.21372567553246818,0.25563034298581877,0.09083645261959156,-0.3386485519474595,0.0741323990139745,-0.22799924411775097,0.37956521981545105,-0.37497748200127023,0.8267667372804751,0.5646784705841792,-0.20557778485724537,0.04786081118040695,0.12027397494880988,-0.22800033409461443,-0.09618494345427335,-0.329185784768983,-0.6043129866487194,-0.1567907152114275,-0.44779659549702877,0.09846303548822091,0.254913407153173,-0.11408180942403626,-0.2376111983412782,0.33667503435144036,-0.12542452763338705,0.06651893896655962,-0.23243067641722465,-0.08163562132953743,-0.348602709952005,-0.13837878907459641,0.11169318306305329,0.2579082627511939,-0.5241625890076458,0.21908864529111569,0.09349989567775673,0.06902195974260064,-0.007416883693664739,0.10791838805140239,-0.0074466454646374275,0.040453466332735416,-0.008088998582785641,-0.0006054953523042684,-0.08773430940340061,-0.1430332897220195,-0.14150220168501573,-0.05538729437974647,-0.1110834541941498,0.12526942957635723,-0.1016646095826421,0.23295314115897958,0.02835181751835529,-0.12946944537401348,0.24841442593102836,-0.06098028959659569,-0.12960152380154097,-0.0910740668107208,-0.031479010541247694,0.07604719952789303,-0.06509452908048051,-0.09187210784088433,-0.2627928903454698,0.11785454931360961,-0.029838234597724174,-0.08926963966414586,0.0033256296246171827,-0.04678605102893823,0.05105062516336667,0.04356406242552639,-0.0603825007206491,-0.05414590790540338,0.13551593501677925,0.10281557767736642,0.12347650588432724,-0.1405909402548583,0.15769599162015888,-0.10158080042251061,0.04392750887332887,0.02787725226522215,0.10467868958222087,-0.03332377664266819,0.21670074192023336
23.042499542236328,0.9489002227783203,-0.19325048242203524,-0.5440341721305003,0.12419521311756755,-0.1327063593755615,-0.0015607484677869392,0.2663295940859133,-0.07143281806284436,0.6520840158547023,0.04720449145175777,0.054067782787107804,-0.12316675467313545,-0.5178743123530065,0.10153955724941444,0.03737945357769968,-0.3011506752558458,0.1653556821173874,-0.025420824574804386,0.03365563244139651,-0.0471029671442998,-0.20803020405310374,0.01542215813634121,0.23745491530320234,-0.0447497941512814,-0.19326234750289376,-0.007318223472986919,0.10700339845535228,0.11488441986723079,-0.10701150475262457,-0.008270683694152212,0.13612047036946656,0.22933990746800745,0.200637061712934,0.16238395632827055,-0.4803576749633651,0.6670721935232776,-0.4767998980893678,0.4500062110375618,0.5342073110728575,0.24904102488893384,-0.22269792603516925,-0.42054336174558793,0.3310138341853861,-0.3255394518672281,0.7401941454184048,0.1004864567306248,-0.9629234041338651,-2.571488039796881,-0.1520803277833164,-0.8436415050986805,0.5856251873889703,0.24435216270231663,-0.27506061496590617,0.014915984218615869,0.009618453061675327,-0.04492978854949984,-0.018805935429705496,-0.07357912223720584,0.014883661656426999,-0.016493475399377705,-0.3194563871644331,0.13572851601473657,0.0050218513798699245,0.04104020751660585,0.032856620417543565,-0.2522287779459449,0.3022638174444505,0.18499259599976176,-0.07579136117808653,0.02813998450821443,-0.006277144696765633,0.27373588120190223,-0.1877222748226392,0.006728352581121297,-0.0946749467725873,-0.025858601994569363,-0.24425990459018743,-0.1177253375502026,-0.15072319927830896,0.05715265979660469,-0.028643270220064937,-0.15047475979437733,-0.026959657958122128,0.17956202548457623,0.02082875990087392,-0.007273444308703733,-0.1268245728610713,0.1281810767672724,-0.18733635086234815,0.06108684717541249,0.10249524741703694,-0.058301573615033214,0.07188534279963543,-0.09243337429137673,-0.03516378620439931,0.01231045340509302,-0.15242177741965107,-0.005220722366764468,0.09507275958300221,-0.23554116944795445,-0.09507458632312027
23.99139976501465,0.9587993621826172,-0.12632521414200915,0.27499110432613116,0.14395595743109849,-0.09467249999351153,0.01253634060708951,-0.11577955972442253,-0.267214283706634,-0.4812111634837119,0.6545963711815145,0.28191740507918683,-0.07838093607470645,0.020573708657738842,0.08201765830297546,0.14272297867775277,0.019113852640047543,0.013208402616168667,0.032887122718650685,-0.00047199440284498816,0.36336676139900004,0.3496790835918263,0.00549738331574246,-0.02930390173224459,-0.1465773717596518,-0.09257693416855377,0.06567173155409214,0.00882495575173943,-0.07583262030547214,0.05666126828598354,0.04178307626998203,-0.001950081235135969,-0.03235696800081932,-0.1203864149318116,0.14241019104493544,-0.04229371236545392,-0.04378401726806669,-0.6829532608489843,0.30238854158979167,-0.3819899990845952,0.021093836285986066,0.17990472776732236,-0.862769005631868,0.6038829793189223,-0.5112180078620413,1.195611967360835,0.7138162507068786,0.1575270140707873,-1.1226951930791365,0.405121971081327,-0.3600868858917312,0.15708740568411989,-0.09617002815672557,1.4529237879754284,0.2955885846965645,0.14421189934809614,-0.16094202215041972,-0.013337351766316188,0.03856285949311295,0.0032357661598256537,0.055225194543481966,-0.08516204166570056,-0.003512761992390625,-0.007053478414209673,-0.3426747044844445,0.26142919952063176,-0.13803867012543383,0.073796262793803,-0.0015407894701917751,0.01680310978654838,0.2232037108488886,-0.057725771128558034,-0.016215554485951238,0.17618163993231867,-0.08766927273170999,0.11207795959657384,-0.01670028414969382,-0.06145316751496139,-0.04689543946038456,0.09440656159582979,-0.10443381401050279,-0.014128534143447334,-0.023794837081590723,-0.10808353037457705,-0.35859802768590326,0.1593662843959404,-0.04886587112784188,0.023920233270156823,0.17622835304129825,0.0035758152442567775,-0.06574628801092026,-0.13930216574555865,0.012085026265072237,0.18110604371583422,-0.008414010019020146,-0.28308501224936755,0.08687429140844632,-0.18334569161972705,-0.010474184571269807,0.19463616282971696,0.03467571521524691,0.06148026217933548
24.950199127197266,0.9390010833740234,0.043033323219615685,0.027569033740483376,0.2826661333973828,-0.11675064435549992,0.23832361722987488,-0.11863700322938203,-0.07078923332508545,-0.4027052233447126,0.15750301491488897,-0.06720896575394203,0.07038455517190677,0.1751973065009989,-0.18462634133798383,0.2160445193928587,0.19705874626824707,0.14411998360099992,0.18039994425436184,-0.06677144741460249,0.041396752380361536,-0.050592912682724894,-0.22802979209276472,0.33014274105745517,-0.09514869838519945,-0.178468244518224,-0.02311231523607095,0.09478108165374927,0.12714932687878977,-0.24146464852777508,-0.17756855148847764,-0.06605424853061287,0.21313336289004614,-0.04223191088385973,-0.3040302745807627,-0.4533733031121175,0.6113360012122074,-1.6564354915017843,1.1255659124837805,-0.3746601767725443,-0.045847756663180084,-1.7916856997431108,-1.659386056536081,0.39492914136430246,0.30263722271317467,-0.3577782357453532,1.1857686265023875,-0.1786334401287723,0.09482160538487858,-0.8873147487719707,-0.5747793831724018,0.13034529277327975,0.6796103215913031,-0.10308063909665958,-0.133189536281718,-0.014352408695982904,-0.04408253845426132,-0.037089593602098854,0.04362388221691095,0.01044562525129778,0.09248551060895836,0.07599822959210159,-0.09800540127115621,0.12449896530420743,0.17366907099524867,-0.518312238735977,0.18296158478162858,-0.19468821296824668,0.3402419407360196,-0.06269510762917177,0.07638755983463964,-0.15140491008613197,0.03448216638880427,-0.04836674512867255,-0.019360775042999462,0.14579858309606092,0.16532286108761612,-0.1623595236576209,-0.062120867806384227,0.08079610759981308,0.022152207567817918,-0.24856789204210125,-0.05141029647614168,-0.0407400649626853,0.011491875050409736,0.07248578399100088,-0.09193823200472102,0.03729813849791028,-0.055556166083339256,0.031085256138051978,-0.005971812756876202,0.078264054156273,-0.06542642567495748,-0.050649979419927195,-0.11012754699356468,0.08241150734437509,-0.0021211491693367518,-0.07849069009355203,0.00022616867137190827,0.02747273116855161,0.2990750813538244,-0.0685634050893123
25.88920021057129,2.157400131225586,-0.03942134578033585,0.07012004685846326,-0.36836077568225983,0.005407348575275972,0.07250217706305331,0.037654522058933736,0.1191121420275597,0.060535294092318837,0.04382934196938419,0.03606861797100306,0.16515019176964155,0.22927407697762578,0.21155238861753956,0.5064183340130157,0.7226956970830412,-0.3540938159072346,0.7764677610027746,-0.6058613331477349,0.39351863760107,0.5558389552110309,0.13336357273267258,-0.21508760467534943,-0.9782813416477876,-0.08371060218499375,0.15903296076016543,-0.13268508857150876,0.11173969352838281,-0.22231105090682593,0.3622505447423785,0.1711983189688174,0.13885378953295063,0.5499307897953081,-1.4160765240371067,-0.2927394419883106,-0.6240075426925628,0.7229929616918921,-2.307881174358742,-0.49867558928183114,0.9088570466639545,-0.6188480175650574,-1.8910561422012742,0.3256560998372612,-0.20551171364787438,0.5960726698393011,0.30106397837304777,0.8315577138016008,0.23081195501742613,-0.3990005041705459,-0.36077332285933517,0.3365616635266948,0.36540558094007763,0.23986521485428428,0.08020527133900096,-0.004559018023338943,-0.3250270252900649,0.5513145076358548,0.4751863437620651,-0.02233301547510675,0.03516681744125878,0.09794245072835663,0.02546646532550176,0.079510199554968,-0.01643034918475862,0.04606910026896384,0.030171841890147648,-0.22168362418404236,0.09522703069874955,-0.0371781041738808,0.024159436705102583,-0.07857374022577185,0.07585397971284871,0.08413117843620992,0.22152082686527716,0.05633698687690945,-0.09482117248041798,0.08309788669494915,0.023061043177594068,-0.21773110821583103,0.04889489204869529,-0.010551067313048256,-0.024140717054585953,-0.012040530212020435,0.29636274798220974,-0.3168591334571319,0.06394353651170812,-0.008805771629480989,0.17842334823423736,-0.21908550214610603,0.377862716484464,0.20223799785224617,-0.037406649554417935,0.013061533449765914,0.003906856424776119,-0.03209705017243225,-0.0450493335146266,0.06825885085368434,-0.1310045144529215,0.053188759679219294,-0.0783951319588169,-0.16782739892162413
29.97439956665039,0.9388999938964844,0.01986451202607345,-0.46405538627782345,0.1147505098716502,0.06492690026997683,-0.2576438847249273,0.5132789192835027,0.20063807734921568,-0.0702469116214034,0.018522566120542733,0.05207360195886646,-0.08756867321820766,0.10232852043546595,-0.12225829341448148,-0.08517798323524728,-0.3082912745542889,0.10204513111585234,0.38720619667615347,-0.0787756253415602,0.11664560989990996,0.009467947622551848,-0.14327428192284083,0.035502634857997185,0.15161052490429003,-0.13240869602948,0.021558819323469383,-0.07091757708834731,0.1387573017769655,-0.04739009585332119,0.07225602971663296,0.053170891069926784,-0.08171191914335653,-0.012259541979996926,-0.36338607595117955,0.6021006401239924,-1.1539451128701883,0.22606417521971284,0.5895749632505649,0.7053693632407398,0.20098878752967075,0.09360542582340967,-0.5717426256087412,-1.0420514625493236,-0.28156682629553864,-0.9751806337829908,0.9590672213703572,-2.7092415607566775,0.5148245717578962,0.6543384782983684,0.08873930465711938,0.43530586328769294,-0.7013489921421134,-0.2785893565644634,-0.3834319557929714,-0.3281001766231467,0.26230279952611696,-0.1036961628688133,-0.11629931459143167,0.06902797174843038,0.0323549982555631,-0.05975959001754909,-0.005969607002429017,0.17432495335499207,-0.23628668113550688,0.14718575864749311,0.279156929065633,-0.007728731395385269,0.051402136845380586,0.024893368145460358,-0.2202273751237381,0.1371143600547063,-0.12259728851791388,-0.2124740186836607,0.10331814561974179,-0.10965201399725072,-0.18547892971305882,-0.08062388127799422,0.17943900325118436,0.00522540128144172,-0.024218531066841725,0.07977817638157671,0.08600773705009135,-0.007884326191412898,0.0575218360130945,0.04617513567335628,-0.08564264828602738,0.08007978365764787,-0.23234337367258368,-0.09828051864990063,0.2562609496713366,-0.019587485674794628,-0.19260427638951627,0.21147187663224815,0.028250720383821676,-0.010308168517911963,0.0023094416621082204,-0.049182228094841615,0.38572906166578264,-0.06547665793273677,-0.05249084134456234,0.2684878031034288
30.913299560546875,0.9288997650146484,0.27584864735899783,0.02917985969909219,0.06785732671007765,0.33903772815098576,-0.027116954300896324,-0.24038024601314967,0.13695338742256907,0.04069434630624535,0.25240551877224804,0.025824946920046853,-0.1281388009636166,0.05586815617604643,-0.09245452725127608,-0.03811000205123137,-0.17075422267406407,0.032444684672299655,-0.15247959887931095,0.09155711410474454,0.04724729004149436,0.2288834496124328,-0.16301708655490618,0.09462144995547742,0.25558370254117574,-0.029386045810977438,-0.07561819597177777,-0.06649559263389766,0.009583401239828732,-0.14881809702404286,0.047873835279474156,-0.1944873067198455,-0.06173494368026078,-0.020591873255036242,-0.007067188510611999,0.009352458472583161,0.9337994042061578,-0.5682878898733014,0.7907744040108469,-0.2480299289450258,0.284258808987991,0.5471477180962565,-1.1235387534103078,0.31994766321337254,-0.6398641374575955,-0.9782829456267824,0.8076303863553513,-0.7423773443525442,-0.2996374213559581,1.088260615692116,-0.18373579947596325,0.34013443575535235,-0.19376464359340295,0.09218275260340131,-1.003704955398156,0.03276311851810663,-0.046938408325867334,0.019123478815385588,-0.052780991006989554,0.0685176377562401,0.003670574833242995,-0.006529900939076478,0.11159226515303053,-0.2691589760452522,0.0834297052983711,0.2508203645348903,-0.198582058453073,0.03285532853748883,-0.2578141408983045,-0.1339495236495188,0.04737278679997336,-0.1206054763202275,0.23920987854474215,-0.4548909401033497,0.09296785485072596,0.06663529527975234,-0.014042765885456172,-0.02914240793420871,0.18338321167377514,0.14681353748970322,-0.15949494568735112,0.08589980481175359,-0.1578330306911882,-0.039813689549742626,-0.19438345277561123,-0.03309972400137012,0.041412051383444774,-0.06753979878583836,-0.12292173280605874,-0.11721688578998474,0.03204364705803145,-0.01780561379013633,-0.0034203419057185604,0.005930791240708239,0.06299824345785206,0.20609976910299382,-0.06692843448891783,0.1369506119987475,0.2816000173305826,0.0011612293259169234,0.07705262782572472,0.1149311450465968
31.842199325561523,0.9689006805419922,0.08378857302658321,-0.25107974125195165,-0.24927559276812206,-0.047595763579195705,0.1208555870565494,-0.014180805311632636,0.164093237145789,-0.2061683093173683,0.3475140185372674,-0.382028913485442,-0.13126923156708,-0.30740231416035485,0.003322287439737963,0.3173659549072599,-0.03226067572321942,-0.0941281771477749,-0.09738707228629712,-0.1372906602586424,0.13483844979608017,-0.13607416360419494,-0.29650492180632115,0.11738895956166975,-0.14889464054088905,-0.05691641759061225,0.4483697844398601,0.342925064508853,-0.06680473709770714,-0.03068364723136082,-0.24037390848395912,-0.01897244405192899,0.0825525360720192,0.5807893787743945,-0.41381758649123357,0.2886543833316555,1.2578225634261218,0.06332972427417816,-0.025360427979036898,0.07519501357727829,-0.28415950088825676,1.1363726741665463,0.916735677962016,1.0173856206824197,-1.6102531872315893,0.34671720646693027,-0.7775813795030726,-0.0210567238688598,0.07151549632440854,0.3074664255068523,0.1644384419264595,-0.03566366958894604,0.025987108120018657,-0.17607259759735758,-0.03200729451246673,0.17478357226854557,0.09986843669428352,0.02232139175559577,-0.04530443474819635,0.07587506785473964,-0.04203964963049562,0.12334892514694444,-0.04190749509172005,0.2055032981869226,-0.25656243968927145,0.1340872447101248,0.032412409815418625,-0.5092990993044595,0.2860908417549466,-0.24059450921718595,0.10385762018690194,0.07506634108774765,-0.22339000682164467,0.21774933667944768,-0.14117067975757921,-0.18057191159076916,0.19461331954716832,0.03778793743568066,0.04651933473004696,0.024554160182126684,-0.03427103053459778,-0.011175451580144106,0.25007397486343397,-0.07991265990575892,0.041862177067318526,0.10086008058675106,0.04962123877185577,0.08853411527110393,-0.28860111299827723,0.29674130626602463,0.1946916817618454,0.1099030728053461,-0.10111256537319986,0.05479506127157882,0.08181482367414722,-0.1511479879677018,0.09744183970021947,-0.22731210090573448,0.01239963347266862,0.11930447505204932,0.09091676900478746,-0.3420845099861957
32.811100006103516,0.9986991882324219,-0.3855484677657175,-0.07546858039440141,0.29068410034286796,0.12298161436525533,-0.09204517422967548,-0.05658291865889005,0.020797423474806884,0.09224422392176015,0.0065646470646875885,0.04159691453607338,0.008418285313502158,0.01268785097302029,-0.30099087960935045,0.037583170348914015,0.24743842300117677,0.18581313095619306,-0.07760143891188336,-0.11331544820556921,0.007723534977076544,-0.3220558907149976,0.8564122214119004,0.07699303608741176,-0.5102305950916245,0.1748754746163713,-0.0061041713885271395,-0.34458719768927093,0.2130815678647846,-0.06865140832081476,0.2989603006965211,0.16457173566614333,-0.546239163239979,-0.3163034485146243,0.5923530784034124,-0.42424437913907165,0.25273277801591865,0.968770009934455,0.15753926852835204,-1.2449554538289895,-0.9805732961133066,0.465388152497775,-1.218841817806956,0.2897375469659377,-0.8874488754256259,0.19092664164823858,0.04874028535602459,-0.5437875172001696,-0.05559840226152181,0.13877636102051794,-0.9916122587303885,0.15028466626631376,-0.02909566060435575,0.03717791527839093,0.1492670155335796,-0.1750379796463914,-0.03799560348374438,0.020885258386355743,-0.03269130598025724,0.03562102517285113,0.05874387251887507,0.010655698090604272,0.1525472411368553,-0.2197360634976464,-0.022462823636700165,0.1314388953585726,-0.18129928858192937,-0.10557091636313864,0.2023870061006398,-0.16085130056764865,0.23239422725046147,-0.22647031156387862,-0.02962286096302573,0.016950508780221127,-0.030736626311534933,-0.038865769417466195,-0.20858728593558687,-0.052860565416367467,0.11560001553336828,-0.18583832994208352,0.03165706030557837,0.039050709919332446,-0.08523462906281999,-0.2483775633464684,0.060138420427943255,-0.4809333450707853,0.030565227667506682,-0.0235333423732859,-0.07532972070176273,-0.22901984963213035,0.14540097369438396,0.1341048046003149,-0.03893557327016568,-0.07327329802637368,-0.09838805670911516,-0.1001361099839258,0.00936997137572604,0.10592610195231604,0.1171189660198329,-0.0026256990656503996,0.0675532087620355,0.15641158558092788
37.90520095825195,0.9483985900878906,-0.23347287127089944,0.3012950898279506,-0.3463322889899601,0.3483471210466116,0.24214010342941464,-0.026611051487738707,0.07332519992431757,0.34856859363677367,0.13111605519672237,0.009919843512524971,-0.17135566947585687,-0.15213648857673412,0.056161810081485915,-0.02597111297306881,0.13865878723692887,-0.3629837949707514,0.24086712820199138,0.268480767714572,0.6608173528801827,-0.10090380715170803,0.0924803458111697,-0.03306195615819571,0.029078764159870804,0.1462518502162035,-0.19739247971205467,0.12697307655645215,-0.08521444549765539,0.0721153660298866,0.9040043850570446,0.5544556672873358,0.07530065780872638,0.3667534927642624,-0.3484466392733121,-0.5471263462962177,0.9361278321833755,0.5841953162177624,-1.7397328233736198,1.3323750222296902,0.1646617681139482,-1.7912506132247008,0.5380192691693838,-1.2743529403631793,-0.5981854025813254,0.0062629643523346296,0.3825811322176603,0.4963822817514588,-0.5795316669826704,-0.34984239398280254,-0.7366331921291668,-0.06399794788383852,0.6149156969456139,0.33281135029056463,-0.25334332426232375,0.2079602553866275,0.15703857626512144,-0.29289218434411823,0.14285997259383718,-0.010934799521584574,0.005920930174758446,0.05795044360368469,0.019209543853456638,0.15309025589531267,0.18863635572703452,-0.32735308001241925,-0.014589337266871633,-0.16446178620966106,0.1814390195075841,0.037514094207080385,0.24608964350388368,-0.023144750181017616,-0.06508523411373218,0.24809395726153569,-0.1361851445929661,-0.02600434357189648,0.07842253050798384,-0.0015576360852718775,0.043654833534589925,0.026326704997559996,-0.09765339236475173,0.0612409464194971,0.23650511344079478,-0.16485876378961883,-0.33674386768559705,0.13787953033408065,-0.0929929311889254,-0.17881401116567677,0.31121988615298407,0.056259113346433715,0.16525233182486943,0.004167868574272883,0.12924218087375727,-0.09722895322506615,0.18573218964048457,0.08804233488592358,-0.20263307519163481,0.06738899787105958,-0.01525424055010281,0.007476803550682476,0.23643559023622265,-0.16107352312501255
38.853599548339844,0.9491996765136719,-0.15837096960970404,0.2675614105675441,-0.21256032559532295,0.07060265507237731,0.21879812151912248,-0.09441710814042656,-0.07994234724367653,-0.19103625648257924,0.09798483374551169,-0.024055624019659032,-0.0005862251033111731,-0.04487065704427767,-0.17754754868961664,-0.19469000529701855,0.3370682496266755,0.2002547385978416,-0.1708891592450449,0.028093192680060823,0.06535335081598338,-0.0609120212319494,0.20531652331584127,-0.31126638000083157,0.2507659147138511,-0.18492149479389822,-0.8778775250819849,0.02206745244391793,-0.03919044646283726,0.019992041555443228,0.3967233589113228,-0.08487697111413019,-0.26539181628394537,-1.291448100068415,-0.1634353290333984,-0.33151157741849974,0.8969677138660221,0.1980040599543747,0.31204390738404597,-0.9586989437784295,-0.19564272965945753,-0.24053756590302638,-0.28300335318452996,0.09945748820826264,0.25865325993489857,0.7658140057289434,-0.7628205387565358,0.45337897000228805,-0.2310506051859798,0.5773244527739395,-0.35250248408519236,0.3105120699367865,-0.24864280719193166,-0.40171924542515547,0.2901959720381232,-0.003171735670212946,-0.0540785861372676,0.08820368074171006,-0.08027755756829238,-0.008258933256176274,0.06522331798497313,0.06944164485052515,-0.048791208234342076,0.01774024689941428,0.33240827811714585,-0.12320650989927963,-0.08980032587023011,-0.06917020061915563,0.16927944494152322,-0.007632083735752189,0.059493720454251164,-0.03599921236557949,0.005475351109359969,-0.1409652538907714,0.21478610326301745,-0.006386114955066826,-0.06814093702677267,0.02178148465646871,0.06467864332502259,-0.03622184798662499,-0.09386817102887562,0.013669859961261218,-0.02063831626447228,-0.07844916932808127,-0.0028358922579879717,-0.02080065624825381,0.0487227293613223,-0.05762666085124936,0.03287332978150412,0.13923938104180975,0.15490393729541438,-0.13480107927029722,0.2391179137219025,0.13405212604510164,-0.10714718862320007,-0.025362679699718116,-0.07936475699207345,0.043194545363702756,-0.03843663649152457,-0.04544052802416888,-0.25553932767024956,-0.00014489871892901232
39.802799224853516,0.9790992736816406,-0.005319791640615312,-0.13361521488477004,-0.05801501748449468,0.273368563241274,-0.16249616481549245,0.19760563160440653,0.07481856547868161,0.14167779534098227,-0.35443725395287945,-0.38090558319265966,0.0600609315901705,-0.011357647970391342,0.04896830575863181,-0.02408407310369637,-0.0031898513174171087,0.14032318786678327,0.10612071256225304,0.18124936036571007,-0.013187392106969939,0.16800241437737537,0.10065888622018403,0.020756711860148668,0.18392537525040445,-0.20725895419652285,0.005361715469633913,-0.0655438698232698,-0.09502475728765644,-0.22156402468161612,-0.008439145715255773,0.0004560449341864685,0.1961928308555977,-0.25363243263923263,-0.0586032928734987,0.04877071698869673,0.19872692338693893,-0.509975039486823,0.6285855158147563,-0.9678208736017274,-0.004593814784190357,0.19560721755725669,-0.47861627173319027,0.07884260708575347,-0.7634187996517906,-0.2333246576156143,0.1565522096542109,0.7143848392022083,0.0188251172848563,-0.2536059091320842,-0.10078869731420584,0.22767296542817378,-0.795548505612813,-1.029357177823162,-0.09680812678247415,-0.37601002609563766,0.10147534915743577,0.08462157010921802,-0.0016887073586189447,0.06520380500689159,-0.13126240948640897,0.0471175381524086,-0.2251798590770728,0.1324656444979042,-0.0019587636853414664,-0.1537112117722667,0.15207394573101293,-0.04691578091528098,0.1421292467871169,0.021442691585799496,-0.055894950382162426,0.10868234489463895,0.044133326590069404,0.07346362056086711,0.005821748890319306,0.20527081338299794,-0.19873271716293311,0.16565161045487498,0.09889830712786399,-0.020670452373694616,-0.07291740330231643,-0.18273795659847714,0.09550428231402185,-0.09603981262485498,-0.28291985291731947,0.01937151388850616,-0.002666456477431792,0.060582918212724005,-0.07099354903985954,0.25014362067536233,-0.09058430740022654,-0.033970251806460273,0.006365571502219622,0.08252225170378599,0.038518628318679055,-0.24926285040974908,0.27469641701360925,0.08821370482385085,-0.15692177351642647,-0.05424673726224562,-0.23368557083487757,0.020617210020439564
40.781898498535156,2.376800537109375,-0.014760592825239865,-0.21956828123493874,0.012580839672612587,0.28147816841172113,0.025248427909573212,-0.11415855911148658,-0.22273502090523273,0.04772359716309464,-0.4204484283588488,-0.004558938002490076,0.08640654716328772,0.26446015722520777,-0.0065914261433967225,-0.7257329436546639,-0.05641584565180021,0.015105010855811271,-0.17277914997701138,-0.19278514495912544,-0.07988535362118562,-0.7517852826265197,-0.11963202539268492,-0.12633918206228575,-0.16737332084223078,-0.3049391963563526,0.39915461174780564,-0.2791226018980693,-0.0855935295310637,-0.35652629172494643,-1.3662657580460438,-0.3073798324118401,-0.2896098844958678,0.08375674696043482,0.00978703453425954,-0.002104272458296211,0.7386823032956265,-0.7292936650077514,-0.038043385518121406,-0.15998686269905255,-0.008422408615840232,0.9791642037326914,-0.2543565974349261,0.04507589993950127,0.29617106685212,-0.1377998025626737,1.0678644866051497,-0.7688827498929909,0.36088035566140947,0.15970675469866427,-0.6797922912338701,-0.2982850891543075,-0.07886402640559553,0.1284179585689175,-0.14690080869998565,0.3440406718276925,-0.1844328081595086,0.07410231515886107,0.09690044484846791,-0.33517051864218966,0.1266039889244348,-0.09911542698870862,-0.15524648831486543,-0.04797559743106716,0.0326963558169035,0.13604631041104134,0.04221207882423563,0.11507446516992201,0.0752106085465146,0.08747545709141763,0.09109447023680486,-0.07492216859308287,0.027156963979404074,-0.22033268342461823,0.14903738105854678,-0.08932844288041164,0.04981228151140631,-0.12737557836429084,-0.0786428793041369,0.11882580388128572,-0.24812037318100733,0.11043410627228785,-0.06837842574805533,0.19985630959759512,0.05009307668497716,0.05612602388312748,0.19003051057072956,-0.1308857963714693,0.05236062702686323,-0.0822683705548645,-0.014981173585392396,-0.047190557987902094,0.03920531415900807,-0.0253215241351202,-0.1826425250031297,-0.08380846208567652,-0.017731384740862777,-0.15279549322178854,0.04664723066975714,-0.17319122787167182,-0.09907331598075507,0.12171559740423121
45.14680099487305,0.9584999084472656,0.021599699365353345,-0.10472064939399697,-0.6813150276607509,0.1942618240617916,0.06638531563135032,0.029247460873168037,-0.11594880980383697,-0.21733066070573606,0.49840913738146975,-0.7202208575041114,0.02907509010306993,0.06863024244868943,0.04341833585121328,0.032455345262011756,-0.20402033134754183,-0.07420037962528407,0.1032212317695099,0.0717711467937022,-0.5110944053715347,0.22158309382175015,0.22002842909566095,-0.05266004504267479,0.28589197050277293,0.08782047112084396,-0.4070470753849246,-0.06894500539156867,0.1207145340126169,-0.05287398631998032,-0.011070347386954504,0.12366357792934586,0.05211052471627955,-1.0127603583214357,-0.2208105283429916,0.6275811799406386,0.0046300541814158795,-0.16163696976781802,-0.2429769183708201,0.5958645373980115,-0.10000762497391527,0.4124391901172719,0.6069077843662407,-0.7477043673747239,0.5487798465343834,0.8340353265676779,0.3733741720892752,1.0139534095428624,0.7233038331041517,0.23528478962374394,0.8479651177655987,0.1915919142530807,0.10941207291279986,0.4329496805431291,-0.11568668245589486,-0.23985767451247395,0.02155156620416799,0.1041121030663429,0.05325189337281296,0.0006694237176632797,0.272803708144676,0.2503910268693529,-0.06110621176592656,0.05999176700000595,-0.23215863118611837,-0.12309296949678082,0.01857395653011143,0.11148119567073113,-0.049159902600778474,-0.06991373779033061,0.12584391328179093,-0.38068304678639436,0.029970291480332936,-0.0625099819642934,-0.3003239021922366,0.20058532200989115,-0.0882453950034162,-0.005430242301407461,0.23073224665120576,0.179518640090573,0.010690779467110023,0.13644992645740148,0.06815182671632905,-0.05654832763112466,0.03317517985492079,-0.11219022844133066,0.05143383153929704,-0.07411775910536837,-0.0020440535268263244,0.11880112737236681,0.0101241711297832,-0.02837562287378085,0.1274027745355725,0.04717095997383508,-0.24876835391998414,-0.15758671925443715,-0.1318772415509474,0.2413254756108977,-0.33416107221085106,0.07917453766086885,-0.13996109958551817,0.49137079357668323
46.10530090332031,0.9589004516601562,0.3710047169606065,0.44647929689581867,-0.04986725374691398,-0.2501785835374126,0.13992432776718744,0.04513262809713997,0.04733244513582266,0.03836791425044131,-0.002725234439153925,0.21331454685079027,0.45335759027005074,-0.026085009019896147,0.017976079863717617,0.0871136672449988,-0.11005457478720879,-0.11679631258585643,0.11175046990437684,0.12361274771168272,0.16137179013447564,0.019443648552899567,-0.18608795149032392,-0.19136442859886177,0.024102539302615675,0.020004752955024258,0.003344656278607873,0.18233259664319967,-0.11831511007662737,0.010820412478719309,0.028064549940796768,0.21670167741562965,-0.10076711605045209,0.20608371538472792,-0.0024331411951434775,-0.029053991309384936,0.22508062177364405,0.019290547151714993,0.44810920261666914,0.06971873922493728,-0.3937973707621811,0.08945724523028473,-0.43841190959494336,-0.503896349320555,0.47328695882297867,0.3529942683881253,-0.49302055399109246,0.5899715163620833,-0.008210801167256601,-0.8726383981167464,-0.6231342451775758,0.04854472217325252,0.3941146326512353,0.5842326031491363,0.4542634911945791,-0.1801456047458015,0.06595702306822743,-0.01937287812351104,0.04095945952280297,0.02936049672357133,-0.04785526496967811,0.030571888077860866,0.06417830036853976,0.11141799622118351,-0.18337012371310962,0.1420130428285138,0.18111782649770009,-0.12717076336329397,-0.028903290527760507,-0.01807725171375956,0.0031663698879725068,0.025907168258533293,-0.097238459332677,0.12558279291789964,-0.01648297966541027,0.08319106839117403,0.02994672438273427,0.1925017539875035,0.03127464930196324,-0.010828999664783269,0.07172226923113957,-0.07112683288344282,0.06994911476053325,-0.17842716051007362,0.039169747320206325,0.08767030646067177,0.06385810584816275,0.07300875701443078,0.014762134675947756,0.1324206065541723,0.15826225536069985,-0.09649784053981282,0.007738504028373314,0.0648046016636064,-0.07822679135749223,-0.052919136636721514,0.03133547668208858,-0.13615822383340873,0.048120425392919,-0.14021723051645807,-0.14410080822790197,0.08207604161021001
47.06420135498047,0.9694976806640625,0.07224817275959139,0.4025824125775629,-0.2946970763706939,0.14746098587440157,-0.12310552378803039,-0.06357478644106346,-0.09243154640961843,0.47896483351403285,-0.4203947193521776,0.0949387320672965,0.02725575477795346,-0.07704512639029008,-0.05329567094308645,0.010635980019022611,-0.0035988449873623554,0.023489965554358668,-0.12959139035652575,0.1198229277725434,0.07519254179551627,-0.24102136337468427,-0.403585768192978,0.14974837332126834,-0.07655629126085384,0.012745615742964343,-0.04777481885828082,-0.058595645334347135,0.03500535204181107,0.06123075892005179,0.014913704480568139,0.11224025632803322,0.12231685037831311,0.09017360968834602,0.012658299593196152,0.10011886618666557,-0.1997436430363779,-0.7307075612454855,0.2700512656241533,0.21212314159625417,0.16605738149012333,-0.7228572027147478,0.12830860594001253,-0.06600929044812967,0.10584294143196311,-0.7157809113401972,0.6050502281073603,-0.9969034028479227,-0.14736277477724263,0.6901243375885321,-0.30037732274403284,-1.2172112237897574,0.5166959100557591,-0.48801682564278925,-0.4595851597389452,0.026285330091769872,0.24655666278807187,0.14747647058465574,0.006277373522785273,0.008761767360410733,0.017243490019143763,-0.020824069656228465,0.15890803420278968,0.11226280381025827,0.06858694733286894,-0.07596252415895784,0.11349002994602334,-0.15810661217315378,-0.007562023408855086,0.0008285699597944327,0.07847700102949708,0.05821465182207562,-0.262689847620881,0.023649111003411525,-0.18978627377328686,0.04164970158223637,-0.019003200922680062,-0.3235494692872353,0.16496511806221778,-0.24694498633042591,0.02457184260984295,0.11946867040809607,-0.012027529175447103,0.3242065571849472,-0.18502781604275453,0.0020151717218149503,-0.06500792167520048,-0.013809258329438958,-0.18111315038217551,0.0488682093799357,0.08493203371046598,-0.08925353713753229,-0.12934806637414734,0.05799881849552885,-0.03927312239796181,0.02713481122141866,-0.15407605965644372,0.14165988910335753,-0.06616819916412225,-0.1497023996860625,-0.0058704421541967144,-0.19852659175644227
48.03369903564453,0.9887008666992188,-0.47479867559270506,0.1386620665817438,-0.26760716987827227,-0.10960948039003318,-0.07451022343306897,-0.09068615209797337,-0.0996026610338568,0.324281941733347,-0.15377183344644013,-0.04619323187044308,-0.0040566408764633344,-0.041127144398127966,-0.013696529871027508,0.08903254614328486,0.07346756900014623,-0.0697046736144669,-0.09430096964598791,-0.2873987950628606,-0.05672904584251546,-0.09537426235807844,0.15840794063827313,-0.13231105260840909,-0.2837837322091407,-0.09953120889291335,-0.08221785708042116,0.13392881557987057,0.10280208644142677,-0.06883148125100441,0.016793942667896675,-0.0888868577180273,-0.2588859878593418,-0.2882827318024751,0.005338149212786096,0.028800284762553835,0.9478106447225785,0.5392899983413708,0.30392926377661234,0.7408593890208603,0.33558165478521307,-0.24343391469616665,-0.20615256003383697,0.2847199970578135,-0.48402915858183754,0.28527014298296804,0.09124239251742138,-0.5599844796873281,0.3469840094218991,0.052033926223766305,0.305287634295192,0.3171945288909994,-0.16875519656473645,-0.534029394425043,-0.04737958977723067,-0.06700321365209677,-0.263339259149621,0.5053961256232095,0.3310561423952867,-0.023337721479136167,0.05769964408199921,0.02783593223480125,-0.030660558851443535,-0.05489837157587062,-0.03380517823237426,-0.0992268946700082,-0.0013707692389410137,-0.026840043287776037,0.16600636364161028,-0.0625682269961254,0.04979968404908824,-0.08406794000897568,0.09294079732258077,0.02318224287305721,0.088962620309826,-0.2985787686283541,0.05188535589805399,-0.11021491870895495,-0.03861906102883127,-0.08010528122426344,-0.03802863852055885,-0.0047146376847362875,0.00650278757256632,-0.22579015157147955,-0.1652484497620838,0.1349766157725154,0.036706236195620634,0.10210716957117202,0.2755122392877829,-0.03827283589418225,-0.014550012475179917,-0.1732456742353422,0.018051965334916244,0.16619682685310241,0.05585053136080012,0.08902177825267589,0.10962973989957289,-0.5031427554989979,-0.0017345857803950614,-0.07021094944644383,0.03871379157892303,-0.10637914225382594
49.02239990234375,1.0881996154785156,0.031081761757591406,0.10921916624323465,-0.09491028118498251,-0.15790552400085264,-0.18311467867375741,0.11312336586114066,0.30261055304176393,-0.12364764990474525,-1.121422938312541,0.033525986713732574,-0.2503628649852937,0.1203678058450909,-0.13360807872719221,-0.3023210168970269,0.10771763777638772,0.05412005688071783,0.05586101897332026,0.11158660882571424,0.029541988339729947,0.0989368028751376,-0.1808415778794949,-0.0148063877212232,0.11024220976290734,0.1311176275442423,-0.1296171706907391,-0.03072756148866845,-0.07686520279923328,0.01589428161970818,-0.1714568135250061,0.0975123176771181,-0.0032782523892907777,0.17833066851712823,0.02475157758927612,-0.0185505305305798,-0.08192766571293403,0.24088797429989406,-0.20585341045822758,-0.12522717621541024,-0.1690809347628771,-0.6911168191978976,0.7814647984253086,0.5159286036996299,-0.7852314811111176,-0.14386782655113822,-0.3794446138689384,0.014428394701494596,-0.19666309866435633,-0.12028545399374006,0.06952300273845718,-0.6288396386890975,0.3667325300008111,0.3314642711151371,0.15784408616071,0.018284457359783762,-0.03868082873279693,-0.06846493704155614,0.04964749040870808,0.03570661859890998,0.013272507922564793,0.002264589308015666,0.0901775549251469,-0.11356635168842473,0.14877146345898162,-0.04434960874574049,-0.043231360475945155,0.14576671638365646,0.15976092524141494,-0.014495404785498454,-0.1057280519633137,-0.07135661986958586,0.05069502754637014,0.008611574272711774,0.03063687361320209,-0.03883021364179964,0.08502224531096003,0.2382929552338682,-0.0005161506687991347,-0.13090150810920267,0.029453459779366538,0.03259678406304404,0.20799711602277843,0.0936204911512116,0.01894780682364301,0.13487361963373273,-0.09986304938263452,0.049990520170999024,0.06158158838065848,-0.0857332321285954,0.14345186270164997,0.047966013972697966,0.02490464291598586,-0.26782452835493786,-0.05364730069434306,-0.031322192730941695,0.028760343826116315,0.009892681579208583,-0.07341097662079768,-0.12959447138893684,0.13728010582849445,-0.08813933210407111
52.19860076904297,0.9487991333007812,0.07105324924812291,0.14970069782208817,0.44154217284612696,-0.0813451087928308,0.20363677251068524,-0.13792038691516384,0.1416705838543837,0.10640288014847177,-0.04532305809441044,0.04112054473649406,-0.03442604750203309,0.03733634729970718,0.04130463772304807,0.09000189635715945,-0.10418238501913862,-0.5763907367107334,0.13052251951278931,-0.10486959536383081,0.12750620899124618,0.040332812399694176,0.2791815215717524,-0.3652157489918131,0.14320246776147263,-0.031258563752545064,0.15073448376891202,0.003785149645505123,-0.051710573462197394,-0.062409062553887396,0.023296650296289922,-0.17801827656366806,0.0771510854683031,-0.023284022716510602,-0.09889354163608668,-0.050015869802725446,0.0676347052332066,0.05997568873815812,-0.3563274070254093,0.1804597047375281,-0.36733800326155663,-0.6332854670693517,0.6573141038462149,-1.7893532573345092,-0.9801435254282564,0.05067121286897015,0.2686214772436485,-0.2280764525512915,1.0633266623340114,0.5925076151110147,-0.3297445500186035,-0.451520909317476,-0.6167494787035056,0.32068862233538215,-0.1856357848584268,0.04667138487388283,-0.004428907572377823,0.007130545248527034,-0.02693106669380032,-0.024230219733273564,0.013776400376280008,-0.03622373637655603,0.13352896149696386,0.07247943413099958,-0.12679678429169783,0.12290876766576328,-0.05377428543215249,0.19630814364453056,0.018461701989959268,-0.2250669380442424,-0.08916270920998115,-0.014905865683713385,0.032335072476171706,-0.34037781199836586,0.10231637431978048,-0.012093700459689001,0.058905630240422654,-0.0766040497749855,-0.17342773740908796,-0.006902335943694687,0.02803424944159831,-0.11638018395844855,0.002941189434782233,0.010469058941417047,-0.1375757691811792,0.019718952324266473,0.11821171844826348,-0.15410652036742095,0.07221561974008417,-0.10998522237766913,0.17878694453505686,0.008024984059922908,-0.26515966314913125,0.18511737548361043,-0.2191705867609442,-0.11901903173104156,0.09519437236681216,0.03791950245862008,-0.07876260153769514,0.19837271243561752,0.2107037063801372,0.007229297427029824
53.14739990234375,0.9389991760253906,-0.02554505350053637,-0.08023847734455558,0.08113760672230474,-0.967057459197127,0.2663975063646685,0.014470999738353071,0.0584375736132646,-0.1579946038565233,-0.31425030927053077,0.21043837518110908,0.17654055411862557,-0.10342785892707762,0.10394406990006676,0.06775813359978305,0.03664235720995848,0.3840542046926585,-0.22449255887169567,-0.16397957342801195,0.14445743008764939,0.20767062984937062,-0.15989497715304182,0.08106474799626658,0.02078517364477094,-0.05620718228601211,-0.0775113939582287,0.08908790178587482,0.21641238523959125,0.006642076348587586,-0.10623093549858165,0.23788610666887186,0.16555340243510627,-0.15304744127599984,0.2593617664802296,-0.9774585237206426,0.5822931871564032,0.35644923130966333,1.7549037607906273,-1.3458185701835952,0.7540192824943457,0.5382072230650277,-0.6479941165470315,0.3344836820537951,0.26870163480232795,-0.47059650554909804,1.137786799176543,0.44222990662541917,-0.508342324036152,0.6974850773717287,-0.17062037045975942,-0.3686030883387745,0.44859556822731206,-0.07463151310138105,0.047490812824433584,0.1661711815430483,-0.04545658161091208,-0.03295308508899457,0.037839399148914106,-0.008778218632803168,-0.023174864785838273,0.04767111796211986,0.00016302738665360862,0.017217127810194507,-0.17670379085737561,-0.04288911821986536,-0.04705163537443229,-0.17621215115806335,0.04934339705278142,-0.004864115439426924,-0.17231823762656565,-0.03243736308009096,-0.07671016657461115,0.1690885958266475,-0.10082167765068353,-0.06479568166725184,0.08266802911774282,-0.2620522835037626,0.2853706154340618,0.20312089070031758,-0.20539104179927725,0.008817284885427322,0.2245773189710367,0.012798127498701078,0.11134975351988158,0.06917323302876367,-0.02421173230227329,-0.03719911106166156,0.17660103155445195,-0.08865818615844412,0.04990996761647621,0.07224949855230775,-0.05100156443563397,-0.10738897030283125,-0.02151979859182829,0.010404168345860158,-0.2390575543004167,0.08003473453159131,-0.12506079978772455,-0.08835826262300027,0.15643745643333914,-0.1823595699919371
54.08639907836914,0.9289016723632812,-0.1852173734284095,-0.036696772077311146,0.382637086730561,-0.325715530019502,-0.0059485344725862255,-0.06860646691633214,0.15643019520602672,-0.06699963384704603,0.06008900371788272,0.06516004862949153,-0.18389230978061213,-0.029000999056830283,-0.08143754952407309,-0.11611595823424108,-0.001026025994355903,0.13813231737008214,-0.08577421958098623,0.018061080278544427,0.2725595663473937,-0.009940203544227663,-0.06750839709803258,-0.09813488816700433,0.12045603949934913,-0.04640362445905904,-0.02855379358936859,-0.1256780193589287,0.11453864411211026,0.00411029654241582,-0.11517768773698908,0.02055656395938112,0.2828698060593015,0.6469189932773012,-0.44199195442491757,-0.6414663288649045,1.6841182886911645,-0.1317139965766187,0.6191882852462488,0.038905296089599764,0.21907667420088023,-0.07774278788325592,1.0610770117929123,1.2323331138844724,-0.6472700341768716,0.2784533703922433,-0.6280015616087856,0.7003650089718537,1.1492051368173875,0.4192885639521967,0.12551948414682498,-0.2853618233756441,0.3783210853678234,-0.5040776753633016,0.020667719611785793,0.009402084755600532,-0.005382174318936113,0.01846868388290514,-0.0291011097186709,0.09201744062184496,-0.024078740056204046,-0.1559482307393831,-0.06155011835386745,0.13498297689967412,0.1299347460339823,-0.3385396458599819,0.19049232747444098,0.15107735090256616,0.17262672439113672,0.0640154684834433,-0.06685268456817939,0.21698462098482663,-0.08563357109324124,0.12087532613749304,-0.23257705268713652,0.1611450946715752,0.17135574342636603,-0.13531593057102287,-0.047486096344748874,0.17100812563696433,-0.12690004269184088,-0.02268123988339324,0.039892341773553434,0.12223472397117334,-0.054305939090487365,-0.11404018277645392,-0.1702984120366653,0.07799187554710883,-0.006758657755244005,0.07698368685822404,-0.04465820542459512,-0.036133456323858955,-0.010415765962981965,0.06697332530956404,0.08087349214290704,0.0010511654599693679,-0.033258890223144426,-0.1153026180388011,0.12643354215302907,-0.33702423096200335,-0.11326751038027984,0.6666562886477899
55.01530075073242,0.9486007690429688,0.6869263354171083,0.014804018120880502,0.3064669656440458,-0.5067804769775177,0.430225525434345,-0.07827917744612518,0.18091525702404415,-0.570011001979188,0.10549367868006962,-0.19274307552213998,-0.07279022650206259,0.057532896676168135,0.002130256970468541,-0.08782375698034928,-0.07671947444884916,-0.405721232036771,-0.2481130216037259,0.1616927393398411,-0.13122442204769946,0.18932277484686064,0.0640112545285457,-0.0018465278398463272,-0.0670395496358471,-0.14266672726046037,-0.1310107638003741,0.10846491343357431,-0.18151052544388036,-0.044982687850672776,-0.045601476236190826,-0.3751688093399641,-0.2057534344099991,-0.20526884199733136,0.012884214624837728,0.21082789467577978,-0.3020163089612013,0.5468524818269869,0.4230118881399193,-0.44453537434007784,0.14690085016347942,-0.6633785820454812,-0.5280300082711499,0.232616409042528,-0.2584838651727542,-0.26965750141379463,-0.0376205529023101,0.46255358651987244,-1.0437480464362636,0.9741906586232674,-0.3487542951646286,0.2594302962625254,-0.2235933600731252,0.379172723857676,-0.048375191895843266,0.23518409687164935,0.5886453820250526,-0.19939096367156367,0.01367160681533093,-0.055716674015530265,-0.046530657920915826,-0.03731466772440295,0.02451963186479788,0.11828914794246638,-0.03424196085985953,0.2633225131215421,-0.20026068895069402,0.021387834205041104,-0.16823858008095366,0.3882799954163406,0.02733961935280118,0.04223825712150385,-0.14731038937648913,0.13956983814404691,0.061630568371296296,0.02680838985707687,0.06645408238915346,-0.07546725604511173,0.13888528826127752,-0.10492106935680287,-0.007632165555028948,0.0034044812860139217,-0.10829371993668939,0.09141741164494532,-0.2626946886931977,0.041567375371754395,-0.07632697309835981,0.06867780567602022,0.06566731326510607,-0.1109221374907419,-0.09004235583984463,-0.1796339678255888,0.23351418268618634,-0.022633899565843083,-0.05791565237480422,-0.031198165026098193,-0.008672040958856434,0.04102113892245499,0.36532016818580876,-0.21967846103199096,0.10460938481074994,0.17269061426545881
55.96390151977539,2.0279998779296875,0.3506456880249347,-0.09220287804238839,-0.0777437161650581,0.08653327763506213,-0.2179724053693775,0.03721344822063357,-0.15179440256475507,-0.19558138649068796,-0.02050386459977476,-0.3238056852554521,-0.2715466676450906,-0.016708455071968442,0.14629355193270518,-0.03590631208289198,0.05845141913115712,0.0052321215956968,0.011352904233712961,-0.06684948454683368,0.08996609550268798,0.05989241924598415,0.04538590279299515,-0.2663631527710991,0.027776087706057467,0.016025425250212836,0.19553884253302234,-0.03145102266845236,-0.08043504616867486,0.028472611810090576,0.22911909467681946,0.008024833319527969,-0.2178475469036637,-0.043833470516042965,0.04028924144652142,0.12789265124740837,0.2036603087822881,0.47777730596967394,0.2999963401633798,-0.13683197762588933,0.38342612515956,0.21723542354803105,0.14804580529940708,-0.2824366212747664,0.2932581253515143,-0.6252353219433398,-0.5117978195415822,-0.046092710992713073,0.1899633377049683,0.49813205959317225,0.08696837625664589,0.06013763624767335,-0.09574344652677878,0.13692586855180483,0.07639607706271098,0.3131066862363654,0.4531550405061258,-0.0732987517812354,0.03131415004971574,-0.020084570328550537,0.026398952223603455,0.05743983667021618,0.016234008056820196,0.016342527095607837,-0.13632244258395176,0.04324174492977799,0.08506776804243518,-0.11015511028280725,-0.0008414734224296803,-0.0880295654181501,-0.01137126335385745,0.011653421766470232,0.16697921754240116,-0.09753460114722443,0.13048518050754915,-0.005136223383875534,-0.01593368370487047,-0.10331545797692777,-0.013306114875815954,-0.12477443247682567,-0.06064136506954883,0.127219294173131,-0.08781126496051372,-0.024644348100795785,0.06468637587699244,-0.014088354439842915,0.060894814291673524,-0.11145329772695753,-0.005530967827840438,-0.013042974395775014,-0.003118063884398092,0.0434329804876805,0.056452700305740344,-0.09980871313572401,0.20504145293573242,-0.16093219501887382,-0.06660013945825001,-0.1017444901864802,-0.019865090643987365,0.12537883320765736,-0.2028011545812036,0.048507853144374224
59.90950012207031,0.9292984008789062,0.03595365356952385,0.09505748416373828,-0.32157125853675966,0.34791623986654147,-0.1258545215793233,0.4614372975145406,-0.0797148669705152,0.3292009368261542,0.09999186213765364,0.16522400281554644,0.018676226570957355,0.06369407363970045,-0.25238055928716957,-0.3556078028744659,-0.06673512543292448,0.001741159260968435,-0.11977321060119252,0.10735864841519238,-0.061336066773250125,0.027079328260751632,-0.35456565614114044,0.22884777028689476,-0.0658145996565128,-0.20260606678679924,0.1286230143685071,-0.04101893089287284,-0.0019818161686390645,0.10617541033277873,-0.10649962492540123,0.15999980648000564,0.07338130001621682,-0.05784949904850824,-0.18695105158154354,0.37836382984878597,0.5951288199326425,0.46394061213718224,0.19053493405689373,0.200418233633607,-0.17859183748286186,0.3381473787571368,-1.1650527730928621,0.8418526760566887,-0.3749393823541818,0.6625035784885214,-0.9051321897748706,0.3292444655527539,-1.0977824457175789,0.228514508180765,0.9667562830871924,-0.05466877027929495,0.9743379624478761,0.9085152784573989,0.09371365235713847,0.4622236694557866,0.05812174584553986,0.09828969786750999,-0.05930816188145578,-0.0003489111102696137,-0.09865908335861691,0.12572861881517156,-0.19175236523899192,-0.12937263861286072,-0.2108496599515751,0.12659360351046822,0.09539910758365466,0.04382654156396409,-0.025930547768279057,-0.07231272603210617,0.06956317036766575,0.06240607103271101,0.32860475067924916,-0.01115811456775747,-0.08197634052185424,0.24505806963159488,-0.09821439853899076,-0.4011997599408015,0.00047484215206545013,-0.026325947870431653,-0.07572155851096857,0.31031022000398606,-0.0424434786335325,-0.0657640558137944,0.10979014159413038,-0.20455161710386716,-0.08479409607644846,0.10051878351814328,-0.01499094493821992,0.09362759762191279,-0.05496377911246928,0.07647869787948829,-0.12446413707578555,-0.19211379751699592,-0.029743496447249038,-0.04788414868384888,-0.6638867428143937,0.2361282733900638,-0.3587231829080958,0.1385482136939181,-0.07487940129579762,-0.11529745668914455
60.83879852294922,0.9283027648925781,-0.1387155402635751,-0.45712311635156777,0.48601999822394326,0.09219097657807454,-0.3020827786559751,0.19718700472840917,-0.30535138735867706,-0.2448781653505183,-0.09838404066314207,0.1323687089670629,-0.22496691764050367,-0.11542228180415345,-0.1302537621367558,-0.05620583827747941,0.03457624528302728,-0.0910600783135184,-0.15793945392359532,0.011247988910757843,-0.012487538646424453,-0.008653461526589551,-0.07727265398583165,-0.08287019512414338,0.06891425700048871,-0.12182253154231515,-0.21769770544784822,-0.00845323190349037,0.018292507533528308,-0.21467550380821254,0.041292034068509606,0.09098762064263106,0.06577682172859524,-0.42241065811386297,0.0006615140639331385,-0.25408689111919613,-0.017310860047902853,0.6029976621227049,0.685771310255847,1.7161005128161877,0.2833113250403261,0.30376977468683103,-0.10588684984583999,-0.08454441110678794,-1.069959998247946,-0.2973526723595802,0.5651122141231569,-0.3276572820839664,-0.3682766698182896,0.44611536957433784,0.3773593423037989,0.2871851030159239,0.8173590967655366,-0.18382556128343772,0.83430364181568,-0.050528492798448496,0.20364937258350063,-0.34533798273026145,-0.006336475174578129,0.021055431472300636,-0.14128873884602774,-0.029184488969146036,0.025617351952201516,0.19297144661917487,0.41862188822646584,-0.09059560725554888,0.12225272909724538,-0.20017318265683545,0.06433253907815539,0.0633162634484658,0.033034057190128946,0.08640725612275259,-0.016093412073617648,0.01990557395283396,-0.10389825925017138,0.08594233459325556,0.042307818706932725,-0.2483692602999171,0.022223899995152195,0.10409826713857635,0.1346822844469076,-0.23375372551223417,-0.007879279132694992,0.014709251299409212,-0.03886265138576893,-0.04187815521474918,0.010587138200092931,0.016715861919769807,0.042601634232777824,0.10226502821887477,0.15437417393850847,-0.13940877641445387,-0.2846577393369419,0.26267803973044385,0.07322799968355963,0.20455354535022466,0.071338059035503,0.14637684906729576,-0.11600055048863352,0.5679345298774935,0.16583267500162036,0.027418240436783647
61.7671012878418,0.9293975830078125,0.13491418314339185,0.0042901323327046575,0.1346876343636247,-0.17342605520331797,-0.008332835550134629,0.10831801839248545,-0.1639555890648709,0.14124252173885118,-0.2701094354847219,0.038141586283480494,-0.21975874308697374,0.05098612245761209,-0.07992611845122934,0.10529563869721655,0.06445787842895817,0.10337590931335407,0.03930214507490297,-0.0697010192534527,0.3589038754870627,-0.6133904992130881,-0.34299156285683086,0.9305967732753091,-0.7123607875645162,1.4669233980096676,0.7272821527400469,-0.11469040084354012,0.2690291941489373,0.08722391674850538,-0.740573998228871,0.3513284673450825,0.0389263144449287,0.23658790473923785,-0.061404497626942195,-0.38370649661624046,-0.30226961363142396,1.4001179744276935,0.3086970725312769,0.649241353487428,0.9566800041931197,-0.16340733911538186,0.07859717214962895,0.2854807230803205,0.35084422415301686,-0.13839480327774678,0.09658121786721803,-0.08336415115389706,-0.5225459273454816,0.21620489735406587,0.35619569710879556,-0.023183656170523405,-0.28880975359138805,-0.1660727934913887,-2.182368628322085,0.11305721816205394,0.5863977035656985,0.2783188826667241,0.0006625985266012213,0.024341975749829572,-0.012633077712971306,-0.009933022136481597,0.03323260588498152,0.06262605489646335,-0.044744238154568156,-0.3492576004527788,0.3122825598282329,0.06847732295165374,-0.05852004953633905,-0.13065649461872417,0.1794116486045078,0.05023230842045177,0.07437965020157533,-0.16904880536764955,-0.09882937509215056,0.10791864992727761,-0.26895069366825813,-0.09205719051631749,0.30797845164938087,0.07362959536646987,0.060240577025181485,-0.13245580564619258,0.07228816018466222,0.005467407237183171,0.025862231918331004,-0.29006453661501413,0.12468496861369963,-0.06383603208248614,-0.06501275633560152,0.14908943294269156,-0.2984825641321754,0.11481056701597589,0.2579774943046729,0.038120685769596985,0.1605132212612131,-0.13063547082744434,0.18018664492694159,-0.040587493763323976,-0.0514862375728242,0.03822101757590085,0.05524114901106399,-0.29461727870225296
62.69649887084961,0.9985008239746094,-0.4277764916171245,-0.05708683249378704,0.17865840974198902,-0.43388690924832796,0.24077917747760028,-0.05905879664988238,0.05088880350207513,0.15056946070017405,0.07380910065286786,-0.272040664931942,0.016461644510389315,-0.05667200881517187,0.23705474381170297,0.011719614038492542,-0.11767251860132899,0.2205333623624726,-0.013961963477341018,-0.03768004572644878,-0.020199845239915887,0.09335719754536484,-0.12771995632488467,0.21733135774510332,-0.02375235290543997,-0.09916756254114047,-0.09243482980091947,-0.047510959050225135,-0.23485674614552243,-0.1593778053562347,-0.22093816894771195,0.13161068237674678,-0.10348914763275792,-0.09289148938328302,0.4365598414377118,-0.017335967185044474,0.6327870089403198,-0.0899291445504211,-0.2936821175716148,0.2418530327746439,0.1100683249440367,0.10604437712049467,0.19094489925911975,-0.6990989219977306,0.6552274141121593,0.29185696158066776,0.259831231174397,-0.699383685043624,0.2149456631586613,0.8884174868392112,-0.1492557904967245,-0.11628290245411141,-0.2595044070712769,0.009245165523125418,0.033995143244448356,-0.08022132974060892,-0.01418494473115961,-0.061778557235361964,-0.05839071973276068,0.024292294768551433,0.045331063835425664,0.0016809931916306074,0.013879266395344342,-0.02426369044829023,-0.22219767593225337,0.047564072758262466,0.252983790981657,-0.1768047600591004,-0.04382533781235334,0.05326089470412831,-0.05906019533552136,0.2296656895874869,-0.23311312530088416,0.0464220333071539,0.22381366938567943,-0.02997580345846966,-0.060492041348970856,0.03776577528533149,0.013687829918788266,-0.0742512227234198,0.025513316251086618,0.023081586350805282,-0.013244764807630406,-0.030864200208853682,-0.08805292339171163,-0.18703119865371026,0.08781271850378951,-0.018568464431675178,-0.23081784095649105,0.06349980075011147,-0.187085490963622,-0.22853771633918046,0.08495625759998657,0.03685880016934619,0.2753364559277994,-0.14747847183605942,0.12543547275688785,0.13745598327383068,-0.10555940119463822,0.08215735812432282,-0.25277697310637653,-0.004283616067208305
67.04100036621094,0.9390029907226562,-0.08291411651818764,0.1194419209160223,0.43909044236796013,0.3140614843739302,-0.07169767689344628,-0.11962436168845147,0.41034828485702807,0.6186058814660464,0.638670491298736,0.30362272647683153,-0.09159589857187371,-0.09048111792982529,0.0498205225373154,0.02603783649636218,0.42986235998326444,0.2048822835431865,0.13069538562535965,0.00340349843688054,-0.20810847237566243,0.1448722572426949,-0.1775017795627022,0.04952991861677781,-0.1391918934611792,-0.0714602425060415,0.04939932667103809,0.03130469900679518,-0.07425688796051892,0.26827058381184093,0.44059491526566474,0.24079008034206947,0.0630245500609117,0.27919196274307817,-0.051788303409074976,0.11900137594780444,-0.14543276232469415,0.9382928744356464,0.0009373546379623367,-0.7305786877697721,0.07475741384095153,0.23618299917922164,-0.7577268769946155,-0.9116946046226163,-0.2753671377531569,-0.6329321926187621,0.24139548489846785,-1.0064592144271325,0.6003359329770882,-0.41359316108003463,-0.31650885160055114,0.427572106630336,0.023861203496208187,-0.8143016708513947,0.01780654682423213,-0.05402002006282336,0.11541633022674787,0.17839221637879146,0.06271566080770449,-0.19284254623282196,0.2698985775180408,0.09940324429170858,-0.00010700407544975143,-0.007234913718864448,0.03900306965481737,0.0002735904976921902,-0.00399527184310842,0.10909036951940848,-0.218479440234169,-0.04637821885679433,-0.01533011847449162,-0.043268922929877156,-0.0892038516913928,-0.1472004414770586,0.11192435597030388,-0.19353869052694983,0.1059431645458342,-0.2272054412536891,-0.11813024308120373,-0.031723882429919296,0.1232847657464928,0.05348136907846928,0.1142025261313467,-0.021375044396353713,0.021208257021543143,0.10336363856992739,-0.11121440630688634,0.08528369528968102,-0.08928623771226993,0.07318380572969493,0.16011917519858962,0.21415938709775223,-0.19816292066850574,-0.2447659947460596,0.15768097010797982,-0.15604503521661148,-0.39037681960776127,0.24460720852613738,-0.14975003817842358,-0.01663266824249663,-0.19101237164804968,-0.16818801673475292
67.9800033569336,0.9186935424804688,-0.04566195041323143,-0.24773060085317083,-0.5804359820776728,0.032320173450735845,0.4530812657986276,0.3033420344779754,-0.21723718462008945,0.0980319212315893,-0.29980947351818615,0.24549835057069525,-0.08485016797074783,-0.17477136175027036,-0.046018837256859485,0.08141387707111483,-0.10467031514237445,0.16183859695450561,0.03219795235060168,-0.02212979188171522,0.15645889729243317,-0.29381503244889406,0.08957215640407303,-0.057380435708096415,0.1363036624701028,-0.11189740976758308,-0.11472799832113308,0.10027788099237799,0.009264398501160948,-0.05075806410441848,-0.02771413153007653,-0.0494217241406773,-0.20836578355207871,-0.16213606298689398,0.12341083598373045,0.3843414832201051,-0.15189840039336946,0.025622637971476615,-0.16681089718699754,0.049634268384950345,-0.3763831650454147,0.08570287520735966,0.0468060366139359,-0.32641769917301755,-0.8365562583137923,0.5596400517125317,-0.18850504911631827,-0.2627155141933681,0.9494782812222068,-0.6897030697222831,0.3449722100834618,-0.9804427734593645,0.06663092691042655,-0.17221175264801147,0.2146538638091439,-0.5003526400709295,-0.06657453246035273,-0.055422287171752,-0.018635462010436702,0.06577762369335383,-0.04767810678500818,0.013413780318242296,0.02227454084824588,0.032264586255546374,-0.11535940864964202,-0.05113874815127313,-0.07728889766816473,-0.06898337696313035,0.0637027648517654,0.23917819087644318,-0.1802682807517285,-0.03765321104710286,-0.019760922010354284,-0.24184540683996555,0.13927540093709243,0.07292619821037413,-0.01638111380191739,0.08998994962868768,0.16938563736859846,0.017453730849007094,0.05105917515094391,0.07378448466381339,0.0026470813651083822,-0.012785181770360352,-0.014031617855473178,-0.03358822264371081,-0.21026789194459208,0.06671041867541541,0.17257294628155198,0.00032121606427006327,-0.16459631185343576,0.05062054550264912,0.053693604189966854,0.11553988602066118,0.12022014442283872,0.09280740399693496,-0.06283231286756683,0.07692656053268923,0.013374393754578068,-0.3467413405022979,0.17630554249061425,0.050979406526546325
68.89869689941406,0.939300537109375,-0.0870259176086495,0.1104583889074177,0.17550920753463772,-0.1753600440652608,-0.08717706425836318,-0.11444537230744709,-0.18707809469416775,-0.06921366930290428,0.11769346308623943,0.0010039122644747017,-0.1362977316443821,-0.03868313344553585,-0.041535519241378736,0.05921405529249989,0.10472811686407946,-0.02377484698204551,-0.08476954374206948,0.03311952191371743,-0.014899443882108733,-0.055005044238968404,0.12760230925593005,-0.0024842993873299955,-0.05957612138744567,-0.24760377929000493,0.06185891871587612,-0.06029691067630653,0.11319469743711999,-0.21442379304842152,-0.07499474835452899,0.1237281591012071,0.1136534260057008,0.010540211587017172,-0.10631688743885369,-0.24274527756255257,0.0373813494237283,-0.4182180017007805,-0.17120031551243264,0.1958733481998511,0.7170611670292522,0.20507379577680862,0.5422715741777238,-0.563418336386528,1.739634350101318,-0.5944363762457844,0.31176055329721375,0.3138095524681723,-0.22169288817877839,0.6970333855081368,-0.1853559908724169,0.1899948707333618,0.08158052521474782,0.36099221637537016,-0.30464496081164977,-0.04693430266222261,0.009922824847891629,-0.09468561027020958,0.07368474328708692,0.014398941803007534,-0.005707401651262187,-0.09587578924965334,0.16992506194802587,0.20452468515551514,-0.010932781566289117,-0.15270898475657907,0.13329430866565073,-0.06506863973851874,-0.13267311019761274,0.03741649233223649,0.05650279571490213,-0.0778376611800775,-0.07149091413878579,0.006817862370403971,0.22422352875790288,-0.06693715910889855,0.057945560896169965,0.22590400307972383,0.13310600478935572,0.090693258660383,0.003984451739644096,0.10478025706097507,0.07191347130046458,-0.24047112220635028,0.1893550594749979,0.08643056537527004,-0.05545380155846004,0.13076636157303223,0.020932372062974578,0.07572654179098473,-0.09254193343917162,-0.14096498094798332,0.09861043939059749,-0.05196653004570113,-0.15737895724267373,-0.0756968266722349,0.09704720231426434,-0.047021373624172504,-0.12275320558404282,0.14247881759518716,-0.508359530234212,0.18197458859723775
69.83799743652344,2.2475051879882812,0.15364995456167158,-0.06106131146559089,0.572437782368582,0.10538687617683289,-0.20494396564639936,-0.05555304199265917,0.16482931482189567,-0.11205422888942337,0.22913176561479962,-0.22186993166627436,-0.36798441559528783,0.00094783344596161,-0.04250910022645063,-0.10511549067196721,-0.30049823151471616,-0.7516474796866515,-0.06586560748827883,0.14948021260767158,0.11990417703876105,0.08814191994686077,0.06067132686732045,0.03910833824342281,-0.07300613876545634,-0.061621610933818745,-0.03232548410460715,-0.08286494490902914,-0.18165143343044238,-0.06738283631059692,0.038155008575799176,-0.018959336961800105,-0.05066969482257558,0.10126461306409344,-0.4158537383197154,0.15450317839980707,0.3715376079595719,0.126891889022087,-0.22855689463316217,-0.7604300818103399,-0.43943181497753947,-0.791632883242815,0.3347295232628775,-0.26614431131287597,-0.669379209943003,-0.511753342290089,-0.6458885409994185,0.7732967628539238,0.72528675074017,-1.1316969310258285,-0.3240854557171658,-0.2560630155768092,0.0986264763490179,0.07467457827155292,-0.10123911311651446,-0.012886011252494868,0.005861863572510236,-0.027873366398371714,0.04425044306498864,-0.032020651333772174,-0.046495953970611736,-0.003554103118052228,0.022773379979393427,0.016057605124192458,-0.18676113831808155,0.07849501978376947,0.006537054254937724,-0.06212451715929288,0.06693197288805512,0.06359070530094701,0.062476700781170076,0.1224435168711888,-0.18561851832352463,-0.1575387994433355,0.11710868836430331,0.04597551932848938,-0.11810381990769755,0.024487981611017336,0.1986497192159409,-0.10227974902300575,-0.09380192601058096,0.17262218809223553,0.04420477433308294,-0.14397483385526763,0.11143900925249792,0.017877334665782965,0.13683732804737098,0.2129807939082046,0.2959478420505145,-0.279082226740774,-0.08910428357778191,0.0024598584523694983,0.14189402239907317,-0.33756270956686457,0.121945751509068,0.10632864318105964,0.015638752482363925,-0.04344980309601901,0.028752487628702937,0.046184656178663755,0.3852789680850643,-0.16293752460316677
74.0531997680664,0.928802490234375,-0.016429283984799925,-0.01016421975008754,-0.4344105701680244,0.09073381571406838,-0.4560883470123745,-0.11603629367781323,0.18034293586146014,0.03627951242506618,-0.20070947220679838,0.0013503541998220042,0.05177717887628946,0.05404273542106497,-0.05517402756047829,-0.011536742263337882,0.017895500418672772,0.6924864069469715,-0.20636409458125993,-0.09909424315109208,0.12274972489470509,-0.05365758217261117,0.01387980902183705,-0.012894205297995436,-0.033108030173326954,-0.029737785163556907,-0.006568657584302414,-0.12476945574203371,0.1409208475551132,-0.0948721421546536,-0.09784430176603125,-0.16136773947632832,0.06820898194582528,0.08373741954397437,-0.02814761826317101,0.41264910584297665,0.2157450107789394,-0.18377870738295843,-0.17078408485306829,-0.28871223619609854,0.29110119661784245,-0.31662541202264793,0.24769162152349905,-0.11398697604707865,-1.469774764039016,-1.2599001774229086,-2.618076544577166,0.4860135135283319,0.06767186171058184,-0.08647222374837754,1.046297698846509,0.0416552930413856,-0.29549410403185283,-0.47303862455394063,-1.291301802597134,-0.5432219859387291,0.18880841357472308,-0.2438810088979277,-0.13674514036496016,0.05659373570930332,0.07698211538918322,-0.11066320529341028,-0.08401885520016301,0.09660177277950585,0.06836808403494919,-0.34733967939105787,0.1130168041236674,0.013121369540125499,-0.07681750804065525,-0.09590194402934293,0.06359057221685346,0.020490708532305703,0.055676041786663494,0.05349125698810961,-0.17201138476420597,0.09236177832692766,0.02649816722595904,-0.09764222104377061,-0.3263593168406617,0.03964003201247346,-0.32979466767604687,0.0673000208393621,0.03097487574166504,0.053451751728192026,-0.06536236986492341,-0.22012672732869198,0.009149759501532656,-0.2548584096501396,0.047734961974491216,-0.04653805312548376,0.026429437048529555,0.3000180107861707,-0.20524931276862504,-0.05861904914937761,0.03977808661102515,0.004913045827179861,0.1193574076069798,-0.3257670387657797,0.20053098932347663,0.26442013745407794,-0.24977635757893635,-0.045963110965761056
74.98200225830078,0.938995361328125,0.0772980906871292,0.01989728590799579,0.011590430527873235,-0.23390716463518768,0.20231951895710432,-0.09212892920122884,0.2105172708296053,-0.09865517028856574,-0.23178913512953297,-0.3998121498379411,0.08781034872005185,-0.25485422436006083,0.28504539554613995,0.07588123179039281,-0.0922187633832171,0.16426523273228216,0.20916792825172092,-0.09162996075927565,0.030102006471153214,0.15325205979647938,0.06684946221193086,0.0058966150778510355,0.03416405470945652,0.09320770283886562,0.052528000644856514,-0.08549529472939162,-0.04986805705755496,-0.08846938302626958,0.1189174123138308,-0.05311269676927154,0.07022403726902604,-0.014673113058328455,0.0661462143520913,0.09839076557035635,-0.035833995122363696,0.10747767574821357,0.0353375094147529,0.2479643915776972,-0.378907801609963,0.38567365689088134,-0.37309921359086096,0.42987099155922576,-0.905485748561461,-0.2141900039885417,-0.1364747167455508,-0.7357076168911035,1.604514570611747,-0.28195420469306554,0.6228476470485028,1.313183906628758,0.9337516198260735,-0.057839086739108356,0.3297571061746573,0.3411685647568357,-0.07853699689288661,0.16791248226575528,0.18408023808140808,-0.010976864205830418,-0.009078571630431131,0.01774562964420342,-0.06273813142426095,-0.00576395795248532,0.062460645342821815,-0.22711500725876352,0.2532196200913757,0.06675704413122138,-0.07416242217412264,-0.02024759273014122,0.08973168196824163,0.18110897519459948,0.05828803974611584,-0.10136994069652741,0.09050659207952387,0.16454199903449465,-0.20862878347070823,0.1369335814531107,0.00984179071637566,0.1544502293083989,0.07609911194372614,-0.11931790429998487,-0.04718665760506012,-0.040572606300764334,-0.03939316563737831,-0.07753843943174543,-0.004454733066638338,0.03292128729759245,-0.04158504538193622,0.05754275408928246,-0.2980287978072816,-0.03426092813665429,-0.22653302519166155,0.5463994983727328,-0.05737690767412187,0.38654470034427796,-0.17052145655386425,-0.01732786686489063,0.07845513713879163,-0.025161911828124484,0.1274160773595685,-0.11724134146613063
75.9209976196289,0.9384994506835938,-0.13096255513424593,0.08946956450937563,0.25614710777474503,-0.09442604482879954,0.14956510846074897,0.040726852062521676,0.014438177754388675,0.11426397962793564,-0.04229987014939336,-0.009096676632059306,-0.22692205009558675,0.1290735107779367,0.25579304822343657,-0.050303238258116986,0.02870010936224025,-0.08211498119122812,-0.019651125609722778,-0.028137149614626385,-0.0030908919304690717,0.02736852710502179,0.06576133176324055,0.08034028052497659,0.03934945260447539,-0.031191717636969096,-0.11306283129885718,0.4098192386876316,-0.18509856041316772,-0.02883372996967716,0.6084717332227558,0.519487943965733,0.20488089410225668,0.13482933080636128,-0.25802788104284624,-1.0819362165196684,-0.05129809323683434,-0.14726835354899465,-1.5620182640054958,-0.043063991508996965,-0.5954926990836501,-0.5136810845907999,-0.7836619532055766,-0.22897958334002264,0.673629595762588,-0.678154376189116,0.633068861593863,0.2019030269232429,-0.8352248062762135,-0.1831883771528714,-0.0956840125508445,-0.006447807568658117,0.538547393778324,0.25639387180530815,-0.052742321908743894,-0.2154927104381967,0.02888561999050884,0.08872941743524643,0.08099781178892211,0.03280039460300968,0.21195470735490654,0.03853765113667327,0.02432181050251871,0.025606364205418695,0.19429889121932523,-0.06385533468230688,0.13626940501191948,-0.10393467161272052,0.044745947221932834,0.04713681046720499,0.12376210411335577,-0.10970549057203222,0.1091810594797684,-0.01424159167599504,-0.0056249800914421905,0.16865905801740952,-0.07113098773880464,0.42614859107149117,0.07463206727989374,-0.2866200485450242,0.1056122678741993,0.05989422188931934,-0.004633560095810125,-0.12660091736722812,-0.11632127594680886,-0.060390089924374946,-0.015651736944285687,0.2024333050247261,0.06988258073543956,-0.20427243492897196,-0.3630861256942699,0.13054896692126272,-0.17723005777161024,0.11843290696254351,0.13188660383064885,0.09304705432501856,0.0036703000430393946,0.03942617070531592,-0.09306962868320325,0.06805235576778672,-0.6193435094000067,-0.5336465344926948
76.8594970703125,0.9793014526367188,-0.7041356840729098,0.08538286043661619,0.002658816003715153,0.38134793186106625,-0.08657924173548691,0.05278756770111401,0.01421249586770959,0.0273470579738847,-0.007086568642605817,-0.08701406293995467,0.05763679892870584,-0.24922838015136675,0.052035324849767334,-0.26742198160055436,-0.3370090035491648,0.013594672269703133,-0.1241146620685703,-0.26151715026638667,0.15530881833824503,0.29296250496094817,-0.20240008131673842,0.11601562416955538,0.4620220280646378,0.3125662901065087,-0.20974265907416462,-0.30255007096008657,0.25461080966677685,-0.5362993354476839,0.15868020953306988,-0.23228034488857252,0.20996055882444048,0.08977592069732193,-0.2555817857515528,-0.13411191139563783,1.028020425737048,0.09694543387820823,-0.7271343304940654,-0.03585268336630271,-0.1990801864603241,-0.4839142844835985,-0.3403422144210939,0.10735525678403895,-0.23194037402769466,2.657199323357123,-0.23860985387623962,0.09005457603919548,0.21992927815281488,-0.1377310855780381,-0.2321048180336995,0.3187081621696529,0.40163537796988663,0.5124575972670016,0.11989048148490122,-0.37173523273764586,0.06390434160019899,-0.039035460962431226,0.052799385397738825,0.11018472651177696,-0.027987916494137906,0.05313489195596171,-0.03747042845712111,0.07566888254460542,-0.023923764195220094,0.14839138423798848,0.276761618509739,-0.02259738414847152,0.11793356991055812,-0.19604983760515338,-0.17556235543265136,0.07448185578413706,-0.1813542870618273,-0.16176816442466946,0.0021369418136599205,0.14249465118522914,-0.17181355248981958,0.157728084599195,-0.08477337816804927,0.13567785557793677,0.07849530209515984,-0.013897233738193238,0.03716710519717082,-0.04815520586076783,0.09599316789556982,-0.2218935551370299,-0.2779161888811231,-0.05429052952619984,-0.08514645367526125,-0.0101659826293044,0.23575318865210396,0.2863738204570847,-0.41667864761062146,0.08618499039514399,0.10031674962921477,-0.06604813372808242,0.04158526447789149,0.018217053897876527,0.06750865036201392,0.0065804970068922344,0.09965476396319756,-0.09577840530500964
77.83879852294922,0.95880126953125,-0.1275276579001835,-0.11381327614274105,-0.02134929454152845,-0.289264680121735,-0.06899386733526504,-0.030288542404173405,0.311153264652913,0.16966020194037845,0.12013307639137948,-0.09142150649979652,0.15228499643193727,-0.07780433993042048,-0.4330232397944751,0.2399788408182584,-0.08349941402573313,-0.11655923142183967,0.08453458244403884,-0.012396806302482124,0.19718481212542868,0.029136939520033586,0.01722891598573901,0.17743358596914083,-0.012763083550361695,-0.045863616020160064,0.20818216432888975,-0.017119091477723253,-0.09264333919327876,0.012535865008465048,0.0010853992025552982,0.11323391706495338,-0.009676490858431945,0.15126953206296095,-0.0732640210044543,-0.24067988584616035,0.20084459979585625,0.17170671263105206,0.39791974352645243,0.1990473197568456,-0.1765698295376739,-0.002214864299911006,-0.13155960959508792,0.1393729510789544,0.04888279843923488,-0.0851364534057885,-0.13712108079730514,-0.5287305143105238,0.05072738704088223,0.06175178983418356,-0.3283114411164051,0.15814338126331362,0.016250770461083294,0.07738503946212495,-0.013588400111885446,-0.29364670212500327,0.1614447937679907,0.005516875281175995,0.17398458243535248,-0.06375463238339879,0.01729263791568695,-0.05303459414825664,0.0827602992133717,0.010547173878417094,-0.1325431008696193,-0.041375859346976254,0.08392546407992306,0.0684463542446698,-0.0017904280028578313,0.12216168475348702,0.1607905191553773,0.17868349949511697,-0.06888389776985886,0.016435984551526596,-0.010453009885513826,-0.028575791732399623,-0.0014438911168938758,-0.03618770163164184,0.07339702751298793,0.069884663863334,0.02223331226361687,-0.013886146035858478,0.037384982008147244,-0.01467510929792335,-0.10719626292843418,-0.009427547655884008,-0.05006207586521772,-0.10930129776730893,-0.1449065263821076,0.18085742374784455,-0.052992272862932,0.029243103145215915,0.03280766803420357,-0.13929276796458165,-0.0009192245979227761,-0.05425099954735181,0.007575297638288674,-0.016130180455613995,-0.1839486969805988,0.1422783673026884,-0.32078743662607734,-0.31159783216564657
81.76380157470703,0.9393997192382812,0.06894126408800089,-0.24601618154645177,0.2963986950575595,-0.17963171058965832,-0.19830017615548956,-0.016865753792577584,0.015856138382645178,0.026531260982791863,0.13968205285143953,-0.34739903693513774,-0.09982504904364262,-0.0928827042289609,-0.0076497329028769705,-0.0032030236925473425,0.09452840421123673,0.0663392386825418,0.07162311667902851,-0.14231639298969284,-0.09638865728726234,-0.12572683457220385,-0.015222544411818209,-0.009697816360185095,0.3480172928795467,-0.01905563458781266,-0.6149182210235247,0.266667742648035,-0.00212904137702036,-0.081164392311624,-0.16854136164397465,-0.19997845543810935,-0.026427002555539543,-0.006578719658633873,0.012955052531039554,0.5609694261986736,0.18027709759285931,-0.5019334038458293,0.16332108722673275,-0.0698451411794122,0.12467128657968787,-0.36917369548735707,0.1217056941284703,1.2599520995756692,-0.5317937098444477,-0.42632737388025976,-0.8042472527884296,-1.2093708344599492,0.7686092757056888,0.34183980744966835,0.10500169613500696,0.0549765039244995,-0.03903474522786554,-0.4894101526970298,0.02588794889098161,-0.06429503196440184,0.011953131792453948,0.04096729706050377,0.2747282687981934,-0.006648111961104361,0.034819194036663864,0.006292769801985225,0.05047321902392934,-0.12663300414808024,0.18357833102552765,0.048680306889164845,0.14262555281865874,0.11364387991746264,-0.038008847390247416,0.13024940219104605,0.07086659809671568,-0.11480763581283929,-0.026828195076095244,-0.09361835337796037,0.18937772077422158,0.013927991633016317,-0.03608996727183703,-0.08116295704179888,-0.20348692239145166,-0.02852609693863827,0.0014377867916747916,-0.08071094422581235,0.1442513398683756,-0.12879643195397114,0.0007989600797014179,0.003923748365689372,-0.014727453404744878,-0.04741666588117221,-0.0735296597964809,0.10711397927972469,0.03300823287237374,0.07548192997274011,0.006987052909327326,-0.01064728526878148,-0.05506315421687568,0.02702198084517135,-0.117291490019509,0.05533401862942054,0.03171593972655466,0.07152017962856719,-0.0654163830661907,0.07269167951742492
82.70320129394531,0.928802490234375,0.22264372055148562,-0.3670220206533264,-0.12220560471405134,0.5933463004722639,-0.05885643920103209,0.08695133401926036,-0.0624626393572537,-0.1967878792410238,-0.16847945327549615,-0.27163918936896286,0.15196400118567255,-0.1355720485870155,-0.004097558107140196,0.27600679619770346,-0.05716731216987079,-0.08594168259750048,0.12853716654349992,-0.06053254466317681,-0.0889199683434313,-0.004613728860548755,0.17892932823253366,0.15390117937559478,0.07177066177549977,-0.17955746649212354,0.09185275882468828,-0.09893957570738696,0.0381983183841797,0.10679239163637916,-0.047885533782602144,-0.03575016395358902,0.015374967607046177,-0.10213966976928676,-0.13533813284719942,-0.24610425246405693,-0.22671074637335104,0.06300228513115741,-0.1700888493072426,-0.6499349152069758,-0.1817870065204462,-0.0671977112963521,-0.9494408067906329,0.959706770458571,-0.19677727635212017,0.3078605063941685,-0.031234720019548856,0.45086841871794814,-0.7043821178974798,-0.20404887059041973,1.1862105255025013,-0.38270258636415283,0.6665241172046484,-0.06692815063842872,-0.3728879086063842,0.029777855713721067,-0.14840963950466723,-0.04195526752981392,0.055817299672974365,0.18373268722668556,-0.025030893777568286,-0.0629010123779885,0.003522764072782686,-0.030970761913631375,0.060558303773661955,0.20599405653900177,0.06456740264631795,-0.09992974066228229,-0.002665212041434502,0.06237153407713387,-0.12760273894957622,0.09021451381892862,0.15449194943838887,-0.24920919918666337,0.10846644539050207,-0.09787346747593971,-0.012440501669258874,0.3319466407673028,0.1831535206562259,0.143186698988406,0.04545197599247777,-0.016498917315922686,-0.0009276771205071199,0.18960820397504208,-0.06556477645403846,0.1343642625364779,-0.04501240522954587,0.07148708012027874,-0.16842706432160934,-0.24318102229930905,-0.021454446061667465,0.0525810182454723,0.0363083363267092,0.22265047927008452,-0.2332991001667063,0.020392885533780374,0.013561158628326658,-0.16914078227287146,0.12568379293324253,0.09534580502715799,-0.6211075317035687,0.6113719839897483
83.63200378417969,0.9586944580078125,0.5947965753478797,-0.30773455037636144,0.15313508892786737,-0.07896668457251997,-0.2855198051932542,0.060404450038388846,-0.006772068416810665,0.2519457441002174,0.12721783290616398,-0.530083253932843,0.02203132887494822,-0.1010645037569964,0.19880419862374515,0.10588559974323089,-0.0756675880312086,0.11523469387010493,-0.10090543356743292,-0.03935911160987422,0.10773792267078112,0.04096199801055568,-0.18131403596147608,-0.08991260235534813,-0.04829341214493767,0.007360563664803036,0.24889251795530748,0.07474806019392588,-0.7025469931678313,-0.16232578557692706,-0.09514675917382212,0.42838061920725107,-2.49383849365213,0.42559201921797996,-0.1664184357811393,-0.39309345860917544,0.01835929918120911,-0.05854385526770094,-0.7343379188726411,1.1532520277866165,0.18970212548176357,-0.1359950406720067,-0.25163486384435224,-0.4559538004375179,-0.0957891866110291,-0.13074822536216585,0.32317555689517385,-0.7399999603100386,0.6456546492887271,-0.19103665026623343,0.27539497914513084,-0.12372708535104987,0.08644246519285992,-0.12505264490123746,-0.006198451889146875,0.03797037062615173,0.015359169768056982,-0.02888816870042123,0.016880313114426882,0.07533514420447343,-0.010791955043200602,0.09223920755965548,0.0128401826744437,0.01247693124453271,0.021892246835151986,-0.2318461748230979,0.2376643521074097,0.18133299379008264,0.09170931048511556,0.07687844587121755,-0.21825713374799494,0.06048118975775363,0.09540588839009034,-0.12003976313206179,-0.09636202610844195,0.21929512824299274,-0.2014068618093119,-0.03784022758555489,0.16392208513505158,0.08967154404201857,0.01345390271282611,-0.04915636925924755,0.09489655203081226,-0.10534559375639815,0.13889491281206318,-0.0032096929869354085,-0.07345531975742696,0.15758055650691383,-0.060093166791801975,0.13070123922343413,0.18216954233326837,-0.250916846888929,-0.069767231108435,0.11006487549085647,-0.07284699550742398,0.08733400397712313,-0.20443955593565877,-0.07598012641716294,-0.04891385037237651,-0.02997122524149788,0.26461611658804457,-0.12108391126976997
84.5906982421875,2.1276016235351562,-0.10909012823613431,0.24416975695367027,0.017143901244512268,-0.1924018270458581,-0.13263224401837448,0.10661467236064756,-0.20268850543872086,-0.2689996119539527,-0.023448736422913716,0.054700242855762596,-0.04458912182263642,-0.15455947468925654,0.25602702767879,-0.42809401679763204,-0.3344047735453949,-0.06272917630033491,-0.19935735340030966,0.07691185885756982,-0.04421491930686236,-0.21443378830533016,-0.11141799544329707,0.17102026635219023,-0.31983016686105425,0.2202644762504806,-0.025791842431360193,0.1870507541180371,-0.04125296164117585,-0.16430256200504476,-0.14253798322278666,0.034483705294052557,0.5898801656661455,-0.38001006304337964,-0.8704112177249319,-0.35672060475977896,-0.0859403884947046,-0.020387904470148016,-0.4774788595622626,0.5437771100447787,-0.4551633348823518,0.275691233451813,0.8781379982226829,-0.031007026834566267,-0.025960618895500928,-0.19498509173788775,0.5470324576921258,-0.939100861138314,0.35026504805006475,0.296298011104266,0.12382370865370271,0.1183221782537271,0.3298400247256963,-0.5348260558893276,0.1565356772370056,-0.5712483503545622,-0.13758412439147316,-0.020251876784249362,0.18082202214222182,-0.02785804575572482,0.1257345763643799,-0.09866898737681637,0.049839206470861715,-0.05797694207939939,0.05265272909571824,0.006227997130605489,-0.02419895244725054,0.04358504256700166,-0.026218552867036587,-0.119374270008265,-0.07753469230235557,0.04701891152176002,0.3020395884901061,0.04122966609308373,-0.052855040621888595,0.14022324325894212,-0.001488890233968539,0.020927521170275895,-0.05568506606291126,-0.021562598156494424,0.03705951613648166,-0.06181049186194865,-0.03855556175833085,0.025688796174150097,-0.014153896131111982,0.03442906957410296,0.07580338825506407,0.05641176082061993,-0.05374561279791764,0.0060487796614777265,-0.06599925178712258,0.08309790142189208,0.08038580916546886,-0.0215385542113212,0.15125531242434473,-0.010156053266473165,-0.0008341821451656461,-0.044134348444274836,0.04631022309119731,0.07502877467049181,-0.3047991730076169,0.14758078437224947
88.65579986572266,0.9292984008789062,0.06446525063984472,0.2571052365790003,0.18817940859818547,0.3246016286554603,0.15837108638169736,0.03290617278352898,0.03400283731146107,0.3796515211524236,-0.2240173000496505,-0.32865749116005294,-0.6052331820892584,0.12248924868504504,-0.0559883108368866,0.046027990048348726,-0.11341692084331986,-0.22467995541265157,-0.005976313408266978,-0.14001651640193827,-0.21533345085609712,0.054165371243305394,-0.017013038042158972,0.07048774051010058,0.16334513117616434,0.11119346598023586,-0.009630135786837593,0.06624141014066412,-0.028412352037776298,-0.09650346731998624,0.16000948587159847,0.1219297617698864,0.1432257930540649,-0.16314100619704108,-0.06446192923771074,-0.11624372664706065,0.643426986945043,0.5019081170221403,1.3926990171545706,-0.11283919221424468,-0.33984695359929074,-0.4479942050495881,-0.6227243690301792,-0.2202549284806765,0.1571218732211974,1.9857428280732536,-0.01858820963880225,-0.8585911735086185,1.0645202564268286,-0.6966353860957694,0.22214548671143758,-0.06294328085983433,-0.4366862805274307,-1.0208342827147638,-0.03736665314902421,-0.17286913792701167,-0.07173995353701532,0.45529880942476025,-0.0712219015603409,0.035793487398024744,-0.06297378125120083,0.0926744943700562,-0.0886090851379248,0.003520409983696727,0.34047315874398043,-0.09822506118976312,0.07352703359954912,-0.05676847218825007,-0.09020424255803276,0.17894043179194913,0.07280033162470247,-0.08667423710320929,-0.18120776410434378,0.22458319188017858,-0.48496896771922726,0.4421072082982858,-0.06866910504123869,0.04301805187780053,0.1540728010693922,0.032396503950942776,0.0656814253375363,0.022347594609939896,-0.13892659158843337,0.059355805956240106,-0.003760519683102588,-0.03843788960067738,0.03447614998516866,0.02022652019383953,0.06910516676582319,-0.09977595292805057,-0.29210257633752795,0.11390590414383785,-0.20546688727941578,0.028670096145127482,-0.08528279381842996,0.07263301176582161,0.011157870896992828,-0.02910218863754208,-0.1787997487832229,-0.20518844754216473,-0.09488254384675669,0.13802076367429617
89.58509826660156,0.9283981323242188,0.25719063066892844,-0.14177660061111608,-0.49249249100809306,0.23380498554262716,-0.28908945234971684,-0.08495019601673144,-0.03666409782456254,0.13743381932429885,0.05958993768960403,0.08168990790155128,0.18400554153274912,0.03694277242333667,-0.08463578164115106,0.050415801212655945,-0.010078855060648869,-0.09571541089757185,-0.07832574944523317,0.24225106877516972,0.1428140884278662,-0.058681631128841956,-0.1960649313452008,-0.030234402578378505,-0.12969292475571043,-0.10488759620523588,0.0064312273938346275,0.09841710857378078,-0.013680374158805766,0.09925087823398691,-0.01370511887999512,0.4122074397480918,-0.062454296448301916,0.10958919140884474,-0.20483519916255347,-0.11598869624360664,0.34934218677455925,-0.34506620746637157,-0.0981105836315889,-1.4228392330142823,-0.08074021730530034,-0.3782698840181121,-0.22787532198360566,-0.7660580650584969,1.2105024105026017,-0.23393041771896764,0.3293626035267989,1.2975090587545353,-0.0842858136705297,0.1281796000940629,0.09275264351564944,0.6070375978817926,-0.28954980645989337,0.059672913170027764,0.04801396737654572,-0.05093211473401902,0.03391365536839434,0.04970021787751033,-0.060472430911147325,0.07859805989290926,-0.022689844855517227,0.00036650743239242944,0.08143041671416854,-0.30667880132300296,0.20815144163873667,-0.09626041942246978,0.11345860583951506,0.07466417057726296,0.15414962130767274,0.17943168950599306,-0.3446203031531029,0.28038020243705924,-0.24085955710126275,0.3629566354113143,-0.24538937969717564,-0.06145895250398792,0.09639147719438029,-0.31876150336426107,0.16068532211953118,0.06576116363712407,-0.001916412314250493,-0.10447277573773735,-0.04873048224134808,0.012136480105006025,-0.024162458130658194,-0.07136368460797061,-0.0694278928845581,0.08447981784604655,-0.13152045759744802,-0.0018676922786937415,-0.043897151149161706,0.0644247154462903,0.19602505142442228,-0.21911403414059194,0.21080160160977776,-0.016741236743049115,-0.17979215069318444,0.09404654890264665,-0.15093445409915673,-0.04084485066071834,0.09726567925445431,-0.1489368042941005
90.51349639892578,0.9492034912109375,-0.13584875578399852,-0.2123749317960435,0.10698933240496233,-0.03866057249879585,-0.2223313651519285,0.12748224880574777,0.25582449673510116,-0.08270539263441697,0.2261706007162744,0.012993367894234435,0.01669766154709129,0.015320511525012764,-0.02616084687725513,-0.3330850391942148,0.10007208018530167,0.01944407679442954,-0.08816935589437597,-0.006934706183641956,0.06282298832579863,0.01927661732672921,-0.024850532258882008,0.04550091397527684,-0.09753063312727925,-0.04566359762242896,0.14480400288649314,-0.007521206624457516,-0.1682053321070373,-0.008452373174050848,0.09046782027284303,-0.021354320831103606,0.07637302531020387,0.006506812568541289,-0.24724056484148563,-0.09551778302931493,0.16878492951212862,0.34115894630273386,-0.11660616017097493,-0.4867904444564197,0.053538289401857925,-0.673819003477645,0.013788381225191423,-0.474599850483097,0.21964286323687213,0.23961006353661793,-1.0860108689082257,0.3368262380513378,0.09164068766666694,0.11920094594157092,0.512230369271399,-0.07757675955915688,0.37395311250979035,0.39015355798562373,0.13892429466156925,0.2263487466200242,0.31980553711849996,-0.03905036287453529,-0.012578456230097556,0.05437793691476769,0.02018924788031411,0.0352668957701972,-0.10558345389599531,-0.17513222165697423,-0.19032109635364158,0.2766068481211631,0.02045783032070897,-0.045972741808224055,-0.04622797617138562,-0.05341155035472293,0.029114154302118812,0.029856611500164148,0.046635371146616936,-0.17698409336429038,0.19368963285988558,0.174547014056941,-0.09287552645403242,0.29663354735102365,-0.1951913727317237,0.18320845212249434,0.07132513527433643,-0.06772636282151441,-0.016440699028361344,-0.0650120297440793,0.008632917544046888,0.15284403840696553,0.0030701873059453405,-0.03249501342901378,0.06674597608228981,-0.026549609706731734,-0.02489113713088998,-0.040670163305287436,-0.0126407139713694,-0.13389954880331723,0.05331009922758555,0.08056209079895293,0.06495563550534994,-0.09551699948916048,-0.01395661161236544,-0.33712485489575134,0.29899697034525335,-0.45903210282908147
91.46269989013672,0.9589004516601562,-0.46964377972102955,0.42707678251998393,0.32066447634316037,-0.17338316780213722,0.10461619570637912,-0.18057709326068164,-0.020916816090967814,0.07970335508044682,-0.02863688384072709,0.05226816060769099,0.016110348175016557,-0.16838507936618996,0.05564119218678982,0.16453716128374113,0.30484677453215364,0.05749971167744314,-0.26281301542927404,0.009151106109498937,-0.08585221980748904,0.0441837222429099,0.13873893228229625,0.4213724770429345,0.32940397372151414,-0.4670053569196205,-0.10061055693184724,0.08386359980303855,-0.19862585535933652,-0.010279788499360842,-0.049887398552504784,0.2647404917695875,-0.20069201652650895,1.0722249199493632,-0.46205324475086373,-0.5128275993006627,0.06872379972322046,1.9961288925845109,0.017039074466282833,-1.060587867384639,0.684963566690917,0.08167272558291222,0.1531242345210759,0.2601431808256254,0.8571967380318661,0.17457365772070718,0.5497915272893081,0.7498691570075999,0.5569013406786261,-0.09787695922816783,0.2672148030812185,0.1960842945522607,-0.31457964575160535,0.032766042750008315,-0.35939184068266505,-0.15168412715384813,-0.01797193231716003,-0.03141841433220936,-0.12861309524463616,0.029316450082649985,-0.09177654519015105,-0.2639517943742334,-0.06811896112933795,0.10831525434791489,0.007336438010394875,0.3816474237077492,-0.08316091872683493,-0.18319543785321604,-0.15430692474263305,0.035121899362378625,-0.09921697196689773,-0.07504631361757191,-0.0852053221438407,0.041158289453806694,0.19933049507337075,-0.03858885096393235,-0.10057770622388529,-0.0023065678361701173,0.0016744061295624682,0.07261270808489177,-0.12422942695592053,-0.06049017019919971,0.15626044997865546,-0.026393789657373865,-0.17972578881197024,-0.047784661748368186,-0.04762973688561508,0.01729120012272015,-0.02111418548630876,-0.13485887609012756,-0.05525746889083841,-0.2213190945110071,-0.057808103071969576,-0.1194015534819295,0.16596065797509524,-0.03735034721589728,0.09545029629401489,-0.42770470813287564,0.1208104296898325,0.051452637907977015,0.12612019427833634,-0.10678708857616855
92.42160034179688,0.9589004516601562,-0.11273776630946857,0.2791723280130079,-0.12370744067007747,-0.41055958435699214,0.14594226453146952,-0.02813069937775642,-0.3280654975606411,-0.321615311465317,-0.024182490429021562,0.23331483636498646,0.14262952336031487,0.16430515523786382,0.16109759929539078,-0.5250050716513743,-0.1554867104550737,-0.05890787716058309,-0.058583367046605855,0.2704892220266992,0.05077696862010386,0.1950828036562306,0.14250487756846097,0.016672129393376284,-0.01727163581311965,0.11724137863958917,-0.033583767734320875,0.09851522206858193,-0.025328399627947588,-0.11195706184433526,0.10895062561860726,-0.1848447968791124,-0.08396533920734486,0.16119729230961738,-0.022542373388393655,0.17686994182528876,0.4031239384866583,-0.26406160293262393,0.3243022245914353,-0.2992879372133208,-0.06934172190912542,-0.21338993519011812,0.2876106153557843,-0.15696722367213395,-0.14341442911667385,0.037818072123002255,-0.26448465636270513,3.236988883268885e-05,-0.01084310541126552,0.027206537557727013,0.03298951688954773,0.31436463023291217,-0.008776670529673207,-0.4197026730806071,0.19839396620202088,-0.03694879700442513,0.3837543836732659,0.26833364788893077,-0.004226687107294833,0.06639018904607863,0.021453292145986083,0.04056198895218451,-0.01346924067159487,0.05146274955982667,-0.06718840651882207,-0.00470305893336603,0.07501336996138341,-0.1716372271147164,0.2821216166372479,-0.1179329759434507,-0.07584171100655916,0.07937160079754205,-0.13559139579964313,0.06865938355509976,-0.0433838563563642,-0.37757537290666765,0.10837772646938396,-0.05054518052807773,-0.2876920192268306,-0.038373633616434887,0.08616847602135166,-0.02254909292863838,0.10035007654468694,0.0899143096762916,0.03918946270343027,0.12607740154813474,0.058859555485627296,0.017072813850238858,0.05602497215076345,-0.23063317768694164,0.17013832703595563,-0.034778818421954336,0.04507454284588602,-0.21169827576663355,0.04359456106926332,-0.02681294359994316,0.16211859750432162,-0.05023518610749522,-0.11725577819651846,0.1784389779542708,0.014416372078967902,-0.16051188860688675
96.36669921875,0.939300537109375,0.049184067761492534,0.1200209047975487,-0.5558571138590239,0.21089837961657512,-0.03319151039860549,0.16024947713597976,0.2614332635006448,-0.08813825485838347,-0.053798142690010875,-0.028041960818377627,-0.34372418017852374,-0.24548592652583207,0.22894642649680425,0.13825984695556176,0.017578750857657435,0.09079061768209509,0.06675046847246283,0.06049373028598868,0.1657618688070132,-0.5363081129989642,-0.08732325633094334,0.22072641349729363,0.17711934574139923,0.2893850185191587,-0.2879145433685224,0.06846799569359369,-0.017406632757039516,-0.022062116879511984,0.692330893997995,0.10635812484546946,0.40777325542887394,0.23686900233034927,-0.42435264418129687,0.8019993447258738,-0.49065803166064037,0.9981608263318251,1.5866539217871005,-0.22194755129752675,-0.37093447964524867,0.5040118972329284,-0.09895026002385698,-0.03809692910858181,-0.38601028266597515,0.2996598677410248,0.16925062058565374,0.31833983913488456,-0.40552846956938626,-0.8617953206306337,-0.06940954264985624,0.3334231732259171,0.12479940078029597,0.04065395010165217,0.057989323962222686,-0.05452968013429199,0.10579915085096545,0.06827219490536618,0.14890932842690366,0.0013821354924907167,0.030650410886151006,-0.2308501079138087,0.16684658430719812,-0.06534592210775084,-0.11673757959741206,-0.03581576911862188,-0.0775411171748089,0.1253623690597992,0.25361354852492857,0.035792246422262544,0.25758643749283755,0.0878867172312368,-0.07606106925497802,-0.030111995424220366,0.005645298236904125,-0.1141111999632509,-0.006567448559737387,-0.2656759016322779,0.14542809360926956,-0.0674422555617403,0.008278915352033494,0.16524053440443495,0.18312748968616085,-0.1562139112718426,0.08069543022976088,0.09613001683245213,0.021958479884419575,-0.15741396717486258,0.009054658009298278,0.10305079209879761,0.19151480014363748,0.07934564981037967,-0.003028677950258437,-0.28211417950591233,0.1808241988517474,0.09541917281444104,0.02060001834358105,0.13127376484071257,0.16780159310188741,0.21962712481505597,-0.5571728826935539,0.05820710761654417
