start,duration,0,1,2,3,4,5,6,7,8,9,10,11,12,13,14,15,16,17,18,19,20,21,22,23,24,25,26,27,28,29,30,31,32,33,34,35,36,37,38,39,40,41,42,43,44,45,46,47,48,49,50,51,52,53,54,55,56,57,58,59,60,61,62,63,64,65,66,67,68,69,70,71,72,73,74,75,76,77,78,79,80,81,82,83,84,85,86,87,88,89,90,91,92,93,94,95,96,97,98,99
9.3302001953125,0.9193992614746094,0.3478714367611877,-0.3113250225725484,-0.2893013885337439,-0.041593048570800255,-0.014275505522837725,-0.002162590148743218,-0.05901292475046148,-0.1303563577697897,-0.036476430287546525,-0.0435276780676822,-0.0016917493504214802,0.051564261099602104,0.035066470599712865,0.08773880240511599,0.03187964228407254,0.019359288174099293,-0.018114147933149225,0.04517406539897469,-0.02404152617930036,0.005412931605795653,0.004353300514380242,-0.048097458445947414,-0.08381306732972253,-0.001267630581098638,-0.1490942305524061,-0.07069388950003307,0.0036665259614768715,-0.053199616270096395,-0.02539480342902543,0.0447727284604624,-0.004584685302386506,0.04846319579273639,0.07647835580575008,0.021589014249414822,-0.026234366156980084,0.05621775830214603,0.06501185342814114,0.007046889293255733,-0.03173408278036993,-0.017212190369618147,0.02438711259542812,-0.007206415879099155,-0.0675335207034756,0.10822494581731544,-0.02773017384237358,0.046184381834536326,0.046924253336130636,0.02741981061850528,-0.020524691239871103,0.017157576917606217,-0.0661506401656792,0.03581085702457391,-0.03367039712772876,-0.05451490822108978,8.325372288728056e-06,-0.02872667925558883,0.03079838981010522,0.07259853252204734,-0.06224571233944575,0.04241464558813353,-0.022843073716590844,0.010359887050803512,-0.05056389713464195,-0.017423177895705893,-0.04652890489146082,-0.09037464188780962,-0.07422221464263017,-0.02577125069670036,-0.016541471643516756,0.035106690329473084,-0.0292774284317663,-0.005064480155892624,0.022388166127334158,0.03747666605065237,-0.016365959925160312,-0.0007349641052223071,0.030981031507524584,0.04603345199842508,-0.020919121304530015,-0.07268612435286813,0.03743432429823701,-0.011263210875064739,-0.08171401817475397,-0.17306431918525295,0.235556874445513,0.05983386983153846,0.2273832705706552,0.16175676716769777,-0.29827016669378764,-0.833541482450574,-0.4180215897245356,0.31487230600153804,-0.18424263806474428,-0.3144949250502509,-0.4104464498390392,-0.9612986150009221,0.4288603425143305,-0.06998372889721222,0.05193494359845253,-0.24509301065919475
10.24959945678711,0.9385004043579102,-0.38172037410459664,0.17442139162143266,0.07722002333974323,0.01306120907195081,0.016190159735427263,0.05530593285149313,0.07949654053448227,-0.048530182383644774,-0.05830543436939048,-0.019354524854954074,-0.03200319445491142,-0.1017887852471657,0.028366986700871406,-0.03782139914594645,-0.02308284170161521,-0.0016014877883139267,-0.0785466827326112,-0.008989745481570936,-0.008775213005846615,-0.012124559478581487,0.03579730551259947,-0.030689207307031854,-0.038880211613907756,-0.02035582443636294,-0.00991566820125963,-0.02941409862749108,-0.10322843883400486,0.09141134314500995,0.02395103110086767,-0.033166391079791635,-0.010676823736358,-0.10419495533718325,-0.0018809151515857617,-0.004097972786684126,-0.00850752157877958,-0.022516371752257416,0.0713997722156214,-0.03113662428731069,0.0847324512880897,-0.04179850214284857,0.01896846801661747,-0.02053027229129228,-0.0011403889729798798,0.028663244208236016,-0.05926393248137186,-0.030876041097475833,-0.002573946715472477,0.019220766434632688,-0.04515377893944897,-0.012052016161713164,-0.0334573283586172,-0.016443850323157816,-0.010191276879514984,0.04407851291937384,0.020006267945098657,-0.06306126471043513,-0.0051707151433880855,-0.04992946833000317,0.000659692689644803,0.026642916925609494,-0.09795378407247714,-0.055313455987298796,0.0148211530804329,0.07799969590400166,0.03774657244816296,0.04911775556270541,-0.007011308685646187,0.031147170130037923,-0.016016316189221343,0.012499522593367311,0.009697374640557135,-0.013429351494835885,-0.028153989050188632,0.008255226178582603,2.4691022005405315e-05,0.04236606108221182,0.06210103773494625,0.0066545698505869715,-0.016313212527686752,-0.06781092824610736,0.014781009899022793,-0.08251699096770557,-0.33886313311827426,-0.41276596193395976,0.3549300317295637,0.5493309820890365,-0.2260136088722449,-0.9319745051058999,-0.4920384684672969,0.28604419526863445,0.8590725907002628,0.4661473416420277,0.9952741629124885,-0.6702006583720237,0.7151112509126576,0.1271283837584952,0.2772633634706698,-0.23857426120347847,0.44914450407055595,-0.21077717718764521
11.18809986114502,0.8795995712280273,-0.22820978937076647,0.15314413195354726,-0.1315176524172812,0.20438070402226982,0.023578840062107545,-0.041764709031527444,0.07031145596257568,-0.0022956189986966177,0.04035651619593756,-0.06749352268544706,0.059803265229062486,-0.006357934805705068,-0.10774861119943892,-0.07433538319156965,0.05464088038274386,-0.06419556666077895,-0.010096770598372048,-0.02718625405943564,0.05257226043577996,0.015110689740263156,-0.04653206175217896,-0.05797721215633424,-0.03608947619323327,-0.001887592331323257,-0.02104170469549431,0.021725853674014334,-0.08094370703576428,-0.009392002888596067,-0.05096800730831358,0.028234096604072723,0.020502840132147815,-0.01662950944164656,0.009962058591392346,-0.11553577415792478,0.06823027746711822,-0.050702841385370186,-0.07225816760014922,0.01099431670646045,-0.022932604971083292,-0.050318850295741346,0.017208804846692377,-0.0021309383702713333,0.008287324398514252,-0.02087713534387897,-0.0048081410067310005,-0.022821488747709652,-0.10437645522100084,-0.05202339571358992,-0.030769586681414406,-0.01191957558629771,0.007421896814036329,-0.0004695803591620671,0.04341126524263339,-0.033025501637252576,0.0022464938330631814,0.04086450558223782,0.02538339124340392,0.010867006691024082,0.06694784902972213,0.027632545703099153,0.0025213643742896556,-0.09841103431349561,0.09779090324929958,-0.016518087022436824,0.07388602987091096,0.00830976994279295,-0.004069167283818582,0.011109698957140568,-0.012343896924342478,0.03682841919135431,-0.004054812117733415,0.049727998743789914,-0.027132277401498865,-0.0459804394831729,-0.004008163365467292,0.009191642951379857,0.0018119130260798584,0.003646851762266936,0.008272996800749938,-0.019282945490882077,0.27309942507807783,0.1671041633597043,-0.6447269545775004,0.20387413669727988,-0.21716348766944266,0.559709265238737,-0.09811146867243974,1.2296495387781907,0.46308335001453155,-0.2783756360585846,-0.7968715441930604,0.27462374646311183,-0.1582180642959145,-0.27632433364192693,-1.2801883580044393,-0.373405924220818,0.03507472831185071,0.8168524738243248,0.1908931627120423,-0.034524813178126154
15.133899688720703,0.8989009857177734,0.25231731032337207,-0.05119051001355811,0.09974784771844976,0.020731764092963276,0.06530321216820935,0.015446820929504827,-0.037136801469837936,0.15188989846646947,-0.06674774851787997,0.051173778781325334,-0.08202666840589137,-0.05061507501977207,0.028143883235128328,-0.054629674793893336,-0.10003523306750133,-0.003364887098368071,-0.010528833637904078,0.05572454958806016,-0.23172861940195807,0.321419379743929,0.008190713584687571,0.04685109520339055,0.004546351495328671,-0.12435840169508346,0.017222040261252364,-0.05394716619216818,0.037927813702269324,-0.01615354051800856,0.03815896183956873,0.021412844356839947,-0.019166087311415503,0.040667957149002364,0.05101365747448716,0.03714621713625094,0.01099598417465393,0.04415230494419838,0.01866520499100873,-0.06510278259527272,-0.060992594024429025,-0.01102847744805767,0.025183571603832732,-0.016132257707458436,0.01066228258551461,0.001223111766798006,0.018648428978002285,-0.0319588911962526,-0.0011474353102585988,-0.015164087090276827,0.020575274330832807,-0.05183726365404971,0.03076785741646397,-0.005338461542251439,-0.020418571375039177,-0.04476416662549172,0.08048747211772259,0.0210408194907221,-0.025804801062422125,-0.006570441156987936,-0.03502654982677994,0.060194564838613886,0.05683227405507684,-0.09846184706881306,-0.010493254845930087,-0.01412518547637772,0.04931441851918687,-0.04758264337150982,0.0010427136950914334,-0.03904277372681332,0.010855807298479996,-0.00383496755531981,0.020944825747540093,0.01512548878072362,0.018946632879181174,-0.004825100860837661,0.0002386389512199225,0.03152753320135052,0.0013550406983511313,-0.02662105784379601,-0.03287655005247439,-0.046424791582784314,0.05962293739563238,-0.11993397708701033,-0.1048127340790635,-0.05462257870083814,-0.2655145615488885,0.5134064831455112,0.6828309130235154,-1.190990517928764,0.2539084890989527,-0.672724601491414,0.668792641620821,2.769686873648181,-0.17325734179070107,0.7132894120895592,-0.4711803066965018,0.014130602020445174,-0.021883987277365506,-0.3721230879071692,-0.28774389206493356,-0.04448673962575417
16.032800674438477,0.9194984436035156,-0.03824722785298859,0.20021683179970146,0.03942455791187456,-0.13392996225861944,0.03697163393469234,0.008654041580841636,0.11225224149872318,-0.17832347923153524,0.08954664569877328,-0.012818551972836864,-0.004834062769843439,0.034018029967021635,-0.036087859772028566,-0.11484641020585869,-0.08192854271773115,0.048107944644065766,-0.014642317576120188,0.0694062062185609,0.02754109606555399,0.05549630888301865,-0.031927337086227026,-0.023848612720628538,-0.041420551048022294,0.049921082109916554,0.028889374062299453,0.013827150382267608,0.05567478070126088,-0.03883388241978712,0.004209407548756162,0.04055039628028654,0.018542511277342064,0.03074561996425658,0.008941772187828989,0.024617394687968117,0.0051369983574805315,-0.0260024509544083,-0.06109793213166324,0.1828375518424395,-0.07649979694832922,-0.020729567696963012,0.012659635828654855,-0.02512119591288854,-0.032981587142844646,-0.04377459417660617,-0.011460989541196065,-0.06361441493104127,0.06633125927825029,-0.03220378974559078,-0.016306728116270076,0.0011106504585536251,-0.020234599428544248,-0.01221401647475744,0.022179483093369083,0.053077547019858014,0.051094230789187824,0.023615913809120266,-0.02618707510530275,0.08175985264652125,-0.018492330785715678,0.0561435964130851,-0.11841151268082355,-0.007030917386705494,0.04444756679528726,0.0015231066230719844,-0.042090522212114984,-0.0194820070647193,-0.02798911872834038,-0.08816606814576894,-0.05704057170366719,-0.0036542811993153304,0.00867392843700533,-0.039712788537995154,-0.05307156298790536,-0.0539873299467879,0.004351594408345591,0.008865551325311792,-0.060262442449035114,0.015451821989879478,-0.10012934162090353,0.10972647350961583,-0.03238140752262108,0.14009441614860232,0.18709313213881273,0.5972366206123761,0.00704952584689237,-0.05635455561590946,-0.9975368368948017,0.43932153915786104,0.36725994714608107,-0.0715578392893743,-0.1318915124777345,-0.37897290859684873,0.4764245105641824,-0.39916534681402915,0.47675113863945984,-0.28748618367420675,-0.2510187758145015,-0.023030448574247096,0.3087756801577789,0.4076180518394494
16.952299118041992,0.9787998199462891,0.4179809061565123,-0.08596827568235352,0.03357613356547513,-0.025512101325147942,0.14294769543685643,0.03276164503005918,0.04275707091543977,0.024383040485549727,-0.024816162598315948,-0.0654488325724444,0.1278417634340971,0.12214157924116952,0.022304346424035344,0.03164690988755335,0.016732643574443,-0.06286452688052588,0.06486263902052467,-0.063358529548549,-0.02761447016791294,0.007466666387568172,0.00358530186104201,-0.023813325469818243,0.0777947722315227,-0.003752692963122407,0.006892416883578602,0.04829827677311333,0.0013704702794180429,0.04378101795541541,-0.012979326889602683,0.004588842352001273,-0.004987062785074274,-0.00666873832846507,0.004702614752799863,-0.0009659214786259206,-0.05847884172081981,-0.03868548677339727,0.15993266139684134,0.003574784646937496,-0.10369439487897078,0.03496595349972934,-0.015400339444873434,0.015756420987585604,-0.027259175319176116,-0.027321342930911513,-0.09701388418643643,0.09305857765114667,0.09897750031262195,-0.00686571008413904,-0.05688452202298032,-0.010206678650766961,-0.0013373429265585886,0.04685521926870599,-0.05592131446739661,0.025167151346525772,-0.0004412799167663843,0.05822860456521182,-0.058031364193726905,-0.02958581089574044,-0.030885540769757705,0.017015004973526468,-0.04189602469574846,0.021138209675786866,-0.012459391390764268,-0.028946780761888835,0.01898891149375354,0.06201656653064942,-0.02914610963976308,0.07204573132135864,-0.044431644032490926,0.060554127932187285,0.055815027408574115,-0.025731098089919514,-0.008892891226746972,-0.06209838673703647,-0.001779911905663505,-0.0520666055532199,0.009775434490336948,0.06285115455285567,-0.08711054622228333,-0.03750594818827191,-0.02773731220197829,0.15695816855251393,-0.1918406120853208,0.20377622880085164,-0.09362318089007021,0.3144014097637243,0.19639468130529206,-0.021809560728277097,-0.07543859380504167,0.3819726731564896,-0.10672281970071457,-0.2822566308689726,1.36591723684637,-0.2867130395298389,0.9034237584876993,-0.6694534786625995,-0.6115266472269953,0.47480837803200543,0.2282680161132542,-0.371436349471964
21.63680076599121,0.9089984893798828,-0.0728197060817424,-0.24018099059590847,0.4058458998071062,-0.037763708383241175,0.028573566035581102,0.08121170362593838,-0.08864417049727706,0.05958787478875543,-0.04786996902998446,-0.0377821380459002,-0.01972518335578774,-0.07208161215336792,-0.014486658571965703,-0.08134784606175752,0.08589762539979544,-0.09276878462928428,0.0916035740805956,-0.006292744045515872,-0.013420066299505075,-0.058690139731432896,-0.007915473999639974,-0.014659712271271198,-0.08175507711630893,0.047512987070696025,0.04485270863946794,-0.060533019596392346,0.04994298622528823,0.0951995985859427,0.0822136846993058,-0.0322160827236776,0.06174500154525902,-0.0036757179223865597,-0.06084109665333948,0.015908594807313128,-0.016366528004328768,0.004035686186453479,-0.10513918563586967,-0.0686956456742075,0.044762252668466444,0.018667800695746813,0.037548381381990126,0.015293357334992885,-0.04666361412760771,-0.03652896040994453,0.017116744830207947,0.02281258330903628,-0.024721248897406657,0.04769087468110775,0.014154711887296872,-0.017951546852001402,-0.027866833728159023,0.0387411955242081,0.006283960806398783,0.006768513870168948,0.0026917020741633393,0.005476792043744898,0.03054054832760636,0.012377664368894037,0.04439512412921448,-0.028704188559462968,0.07293329464020888,0.011445747477806207,-0.060294518310754615,-0.0442858822822051,-0.06005246185473462,-0.03531956222415797,0.002551607632451651,-0.030225340270067198,0.027419162174778508,-0.06284217430129786,-0.08426711720569428,0.06326284393614752,-0.008104256102204416,0.06405865315988804,0.007466478319212551,0.003666625311361417,0.003763776326652779,-0.0033318687506812997,0.019660312402689895,0.07162506794732225,0.03934979761680769,0.11666512893749431,-0.11687489908849,0.889872140412647,0.03313932200387629,0.15448849902003603,-0.1523747334784275,1.1256740614992624,0.19483465555588186,0.5441624799712211,0.7191031932562921,-0.23546533388949234,-0.08498224122990705,-0.48738549936032033,0.16332868689901014,-0.4704020650686854,-0.5206528298810765,0.13940538183429846,-0.3324347245672437,0.47403581725882993
22.545799255371094,0.9194011688232422,0.39746347349919686,-0.3509911907361869,0.055786690399236574,-0.05927660568591174,0.17460966149105117,-0.03769431627865171,-0.003433102527687068,0.037400609326639384,-0.00861941624703666,-0.013555499669771064,-0.05104604022383022,0.09924003662186405,-0.031297215578295595,-0.058174558696098486,0.06269365762491916,-0.04740855451416636,0.026554861111035125,0.07502029425784867,0.033507179871250174,0.040743140930834365,-0.056279825021536174,-0.06695339790241839,0.07455232112017565,-0.021520715066020733,-0.03889751555144516,-0.021195463328731515,0.01694292802617886,0.01675257425193403,0.04221820522675443,0.023664726506201307,-0.007745348260312577,-0.054452954345027775,-0.023309674694444362,-0.004182490454040748,-0.05958087692542241,-0.015464127534274986,-0.03779958967213028,0.028331562774919328,-0.03385388625196521,0.039890734746369,0.006406101134812622,0.01380322451609258,-0.095623441125518,0.08865805517865238,-0.029291409721245137,-0.04444649737144406,-0.03486663298867707,0.09978919368190795,0.04756067444682602,-0.018406143580996136,-0.011201954015646363,-0.04047287254755629,0.02206272974383477,-0.021225883468388704,0.013202522504036779,-0.012771701537128517,-0.023246371321540588,-0.0038813360669139475,0.0075296477514138795,0.005869802688793276,0.02239454332308316,0.07710903163254396,0.0030168217439588982,0.07082356715274966,-0.038990445307854435,-0.062415696631955765,0.022683193438569844,0.05884096562745331,0.09675228890994791,-0.024033548556381273,-0.05860003728220374,-0.07635527573250314,-0.008998258588840333,0.0034117657551630343,-0.04252672051326674,-0.019176819757397837,-0.0750597052374767,-0.01624542775852553,0.09887749895868049,0.0016467702642951113,-0.15221891794382006,0.11576882636997918,0.08705349211355724,-0.4867278590585366,0.4836854422527478,-0.40325933714861784,-0.41214585926859887,-0.26943664411931384,0.9987985793722465,-0.5262628170901357,0.026470356173953026,-1.177853264742398,0.5410725843924298,0.4012512984147601,0.5006181291240432,-0.18305708210371643,0.025245793155739625,0.03862092709645204,0.1799853246210277,-0.10306441099700273
23.465200424194336,0.9088993072509766,0.028158862717869118,-0.09651640973796492,0.04740080925899664,0.21194603576676058,-0.20610793321717516,0.1284663435531211,0.08190717650466675,0.04537551108200026,0.08422372993000532,0.10435615051303677,0.01617201365174452,-0.061952542579770134,0.11367145208046997,-0.018859021117052083,0.02207557091672751,0.018900541351443683,-0.005481556143069109,-0.013932768648965255,-0.0054916877732385395,0.02446526611320171,0.04217492146182986,0.0027661859168202794,-0.03406427725481086,0.05633896872911141,-0.04382439182598535,-0.028377535214154273,0.07408668008132702,0.021400469050837936,0.005099222132134401,-0.031195499666991575,0.009802448075981338,-0.04498558311986969,-0.012563010565412019,0.03591967354041757,-0.01944780934052549,-0.04281318194858573,-0.010529722162979684,0.02564599758185556,0.029434800764251555,-0.07594189093591978,-0.028879700446617924,0.06424716151112311,0.048660239075140735,0.04334759722924596,-0.03368769320346831,0.03620154019824343,-0.03560199645479638,-0.06950384188574317,0.04205422438998121,-0.06719425903810725,0.0834356995866994,-0.05346792482066707,0.020817650580571258,0.032336023291729056,0.10190685337886966,0.03525620741653893,-0.06718179480021043,0.03171247821160932,0.0488531296171102,-0.06390969570278754,-0.002669773609987769,0.026823620493983527,-0.015888178584653582,0.09612292060267018,0.06374225414022838,0.012118497090616636,0.0499284866477215,-0.019351084933497964,-0.040858193422229655,-0.012831140779475954,-0.03728354734466746,-0.0029406256159674043,-0.005185820043855453,0.0002795229720035054,0.0061714641993515845,0.0006401298836938366,0.008158410786249024,-0.0504319753856657,-0.08173308303480585,-0.05229969160162595,0.0763227689312749,0.05659587681451292,0.11143344641534131,1.1834902507695177,-0.24396503401798517,0.12903908239019762,-0.043520074251880335,-0.04511795989176609,-0.25208455548268477,0.5773418503403713,0.28225412060348554,0.30847311180615067,0.01620160306993995,0.023775362757090024,-0.25311135341068786,-0.2532976850648211,-0.05667051221403152,-0.008669267073759465,-0.24978714546044367,-0.2515599010627125
28.17009925842285,0.9085006713867188,-0.2734537403549112,0.513225787347238,-0.22991497678870912,-0.004127000288506058,0.014170264486554267,0.02000402934065627,0.06247789104301037,0.11053055739225634,0.03826793189251251,0.1702014335250202,0.05304896198272616,0.14344853691746762,0.02407537665660267,0.03998879750202318,-0.026323400961120465,-0.051202807417421725,0.05073909849538951,0.09572987647481958,0.08097664909972202,0.0434812140124085,-0.080417213787915,0.030163951637273673,0.0007398992124292795,0.0189386649096802,-0.01736904488724987,0.060305625243318506,-0.032825912007504954,0.09515420386007366,-0.02196723813461652,-0.03326080425164085,0.008746196691897122,0.04962593525411682,-0.03265257162862064,-0.026755608599662577,-0.006884345999571894,-0.13137524906893225,-0.07837437915380276,-0.06592563923453032,0.12177295839970105,0.013622230602587517,-0.13827721676855356,-0.027602554395602545,0.08163388471216235,-0.05488481889782669,0.007697742027355976,-0.11778606895807978,0.022072328201664035,-0.060409889664185895,0.05364713494264447,-0.014006939055256145,0.06094151936792506,0.031200409723121384,0.04633098643949411,0.09574193082737889,0.03581755150790557,-0.06264800548381272,0.0019959461028037258,-0.03269013337763157,-0.06168830693020762,0.06901958360370368,0.05640606910230813,0.031153498195687242,-0.03721891238287148,0.08170532610916537,-0.05063014632696765,-0.0807907575335596,-0.023013456764293276,-0.02599933708877123,0.04211676848125301,-0.04917168390401078,-0.03456172115019335,-0.032793250270198505,0.07538979845245788,-0.0029936412306401034,-0.00397403495211472,0.03348299160204443,-0.02727750125942334,-0.010244835520435145,0.07653529098731496,0.03317139548990464,-0.21427060491630068,0.26002410411832894,-0.22859504471854722,0.578891628878152,0.07445968491044018,0.5655092390103422,0.12134008237175486,0.30868829168732237,0.1496157980318496,1.0961013320226494,0.3829593422747227,0.4925851407189321,-0.8158164961943185,0.854534412824431,-0.40944670302773706,0.4137626477095089,0.10459246664337196,-0.23012549097408813,-0.19284587051327268,0.07642196728601502
29.07859992980957,0.9692001342773438,0.13343942500607664,0.14854722577882198,-0.07724866794732385,-0.022651430377369587,0.12540217708760107,0.015328949533818883,-0.11259908231397645,-0.08012136170987241,0.0902079264748447,-0.04766666052574152,0.05324281887833248,-0.01057242461587795,-0.10238472034311889,-0.0003024136396029761,-0.03737909966760594,-0.14118592434561464,0.01340914739729425,-0.04419770180050443,-0.008278911741162454,0.0868962998198642,0.024410974465601136,0.005767556402180929,-0.008403706196375779,0.05331930712472928,0.0007294844186997423,0.0843281005259879,0.053666151932906775,0.03286351806423887,-0.029827533820879378,0.05093513553667655,-0.0469799091145404,0.013261776115106483,-0.08632999828795954,0.056803570592028056,-0.0443456111570235,0.07010385149989312,0.03881138163056824,-0.039612497075156225,-0.06952863369581341,0.11961279857962656,0.0681746694542974,-0.018356692869528277,-0.008790182057808172,0.06194911165985062,0.03096656236718514,-0.05217015041821188,-0.039666999858613695,0.014265937477757708,-0.00324129756152218,0.06454283303365445,0.014605780969652732,-0.026297897133306415,0.03174823932122972,0.007647012235105399,0.036840911106754526,-0.003734617835137302,-0.02040824024786364,-0.012821412205966325,0.03242992849777928,0.032659949819479936,0.026763238126213753,0.0216011230681075,-0.03855693766683833,0.010160578022697986,-0.08275290074103653,-0.0039887317185682,-0.057352802270906715,0.038439397677274764,0.058205504202154375,-0.005269551022927851,-0.036188922093516956,0.012083921290207236,-0.011862240243584425,0.004024912277373877,-0.036397140592177565,0.007809920480674464,0.05190130173203387,-0.05149742371101407,-0.014092830564095155,-0.07003054094934265,-0.07111015507076214,-0.1640269362842481,0.09459100554857008,-0.25315703277184143,0.64782209787419,-0.31837007831609293,-0.41649945676643907,0.8748631316964289,0.4756351508266984,0.5756160094510789,0.6388932598041125,1.621351902692205,0.39247410437626357,-0.6757250987854091,0.36890538307812204,-0.4897678036496057,0.09636494572024201,-0.3256351993869984,-0.04485309552522286,-0.07434075409141092
30.047800064086914,1.9775981903076172,-0.08208776561566902,0.20254025420356303,0.06369385560751212,-0.013479539631411885,0.1712123003442438,0.027102994840079837,-0.05228340728712394,0.015930983805487763,0.07719280258454178,0.020638022412725537,0.04130244684438762,-0.08204206514049134,0.06242186097898921,-0.010707267761198087,-0.11211801488461014,0.010468042322898705,0.03592557580782568,-0.01477668960059604,0.08368091378390173,-0.0051742330152365216,-0.01101157907465164,0.03216474962317712,0.03786712086184178,-0.027144200921016323,0.0760670732692461,0.0190151217569361,-0.04796855104685855,0.026291166997720324,-0.033253382266175184,-0.042461534459111425,0.0389320707395667,-0.014622409834844703,-0.022183406442065227,0.1121365388004342,-0.028915727029467327,0.020961030300018346,-0.006378777884899923,-0.002509932305744372,0.02201124218224132,0.024177511141350274,0.04520442843256572,-0.08070713720712855,0.059109564665289174,-0.06872891374507271,-0.07602554826902361,0.023625980687175217,-0.015652729444419693,-0.06437331215452047,0.042199162060170464,-0.01509333956618063,0.009986359282558808,0.004362214829678912,-0.09580408018361576,-0.018613588150355992,0.030854882116351425,0.0018087160060754962,-0.041402604194400575,0.06581233365905198,-0.009044615022741282,-0.0030742974552740348,0.02086811021868536,0.0038789546970775146,-0.05924464044239174,-0.04044871829130259,-0.05852837886072647,-0.047418771157000564,0.021031578508487553,0.010349785691613125,0.04966521255255379,-0.00678403913696803,-0.04876916573686428,-0.0012455030752259952,-0.01205181265202799,-0.002613085479626671,-0.09039320705174472,-0.014660020796240902,0.054869494301323485,-0.037537563700098156,-0.010809253543804746,-0.01676429094129422,-0.02345553090524136,-0.014900188313486135,0.17656204203608383,-0.22781803871009695,0.06519315699457993,0.009604613821059121,0.459488291895005,-0.03639389941430676,-0.5097504824808949,-0.2189504811327208,-0.6345853065967806,0.18778797889057067,-0.22706444335103823,0.24385990658856366,-0.24823812222015995,-0.38354624844672636,0.06761605493137424,-0.39588518660937755,0.49927209575898457,0.4094894333297071
33.76359939575195,0.8689994812011719,-0.13646004708798154,0.15024734050379981,-0.0929194261811237,0.12145629369329627,-0.06592168760982488,-0.06558676919903907,0.16108462319164682,-0.024812563188133418,0.10680278483282708,-0.003100391128493158,0.004083243489483195,-0.06281828091909793,0.08169912451015042,-0.06947161731083559,-0.050605884141424425,0.013688947487221317,0.07256915094413609,0.006366751028466358,-0.031039111545487663,0.04646938285989244,0.04521091468601278,-0.04042431125409029,-0.006749940729243312,0.026012006699914984,0.01053015107689244,-0.05754981095662098,0.051025768961573535,-0.0300414288495338,-0.04249495792080282,-9.223610751295241e-05,-0.05737155843944114,-0.006626224472637041,0.028277419443451624,-0.03664082735891452,-0.06688446766099157,0.021632592616810192,-0.057236005471283484,0.09235492245057134,-0.051347940614350565,0.045249145417980946,-0.02592749194893516,-0.036766775927470415,0.057602902287174566,0.04470128996834211,0.08278263883025869,0.05244066394230155,-0.015243410338450017,0.12539747655493266,-0.08809563994443584,0.00014974574643866756,-0.007942113135189024,0.05730152209747236,-0.00313749117942906,0.006371056555125806,0.06574743485160484,0.014306380902643382,0.0939182079155736,-0.06007538875008205,0.07159007514753823,-0.04272782043201916,0.10940933254305019,0.0610674436707763,-0.03127315077255961,-0.008446514448175403,-0.09322883119776616,0.0072547899226810195,0.05920448801215414,0.07784238676113793,-0.010202638929870817,-0.054956902432996044,0.02231425064668799,0.05370787851254552,0.030730569345561905,-0.056611216818236554,-0.008326671698888621,-0.00568196327897773,0.0033671350253454144,0.049106110844686385,-0.13945343191087117,0.2562240414669519,-0.06210849143713003,0.5602613442760691,-0.690760929946444,0.9557661330762511,-0.04257046797804706,1.0229549870898107,-0.3606412234446475,0.8521289754654872,-1.6329865212685883,-0.5428985979458153,-0.6271969037852358,0.6507687615593385,-0.287034899252262,-0.5140707656831363,0.499609136970358,0.6561137540168178,-0.5446813102478842,0.39498902601315056,-0.9270192738835257,0.041724081873495356
34.632598876953125,0.9489021301269531,0.2637230011158418,-0.022393657365103282,0.15679103248052112,0.04975479946375086,0.005888809739282366,0.07834377060703133,-0.005769886649339716,-0.1010854471837482,-0.07314126466530695,0.029722299333094893,0.0035942914716113918,-0.2059377016026167,-0.3435100626043307,0.1875826920655628,0.006870260105755802,0.23664636562138167,0.017203667613781705,-0.04464912100964838,0.018565120778004016,-0.016091985520094845,0.04788582277301483,0.028630092855364112,-0.02287762554459617,-0.01081495882567236,0.009348697677562651,0.039652187809261406,0.018961817841870263,0.004804036942494712,0.046959283919229766,0.01990203698335661,-0.04829278117592867,0.05122893659189677,0.029317998684118718,-0.03564778173013862,0.056611687830791714,0.04778871700580341,-0.0432670600313401,-0.005077374947322695,-0.012019591998466264,-0.0009960696229595481,0.021984880837790162,0.05813503541973018,-0.07416566268549718,0.0312104236314976,-0.07221611921591016,0.002100184556074595,-0.11249599514895958,-0.008353551889603317,0.023333599982986883,-0.04466084406415336,0.04538892054077304,-0.019419595851222653,-0.003513180595557318,0.019534821595827558,-0.023262923185883497,0.0368493352287923,0.003154177314584725,0.04116485665121501,-0.001353750796217211,0.061999242463395596,0.04470726062003571,0.10695527646315814,-0.03586224667622155,-0.05358696153473462,-0.8963329430892865,0.12263535050086882,-0.046099534147396204,-0.08334941921245588,-0.004819533752447128,0.0009330888820435136,-0.048308585272291066,0.015074657336478668,-0.01767299135066829,0.024370840645674265,0.0018098833710175994,-0.07775497723912275,0.00831954694639106,-0.014186959669018529,0.013606412827742512,-0.021151217024494712,-0.032632974175905105,0.09929399735756288,-0.3526874755717038,0.2759203238518859,0.22175159594303812,-0.4738176918457236,-1.0334084930729215,-0.005239244995553598,-0.2016114963291424,0.4796120241762551,0.30250723615188485,-0.7464024276868907,1.0246665869940514,-0.18437916955358635,-0.17209139425415323,0.7704369112063052,-0.6701255234794449,-0.030902375694466473,-0.3196418043104628,0.5208151307530011
35.58150100708008,1.9085006713867188,0.6536469820590829,0.0423631374235567,-0.06785452845881396,-0.15498657285994316,0.015935384599209686,0.17873708257750895,0.13426362371916023,-0.08108053464620017,-0.011442809298424995,0.03256175227417088,-0.027781597778189136,0.02539564522782025,0.03274225166405861,0.05319301909259877,-0.05141353170275384,-0.052488014232419444,0.026566969573946626,-0.003203405133798713,0.010042172861304677,0.011729395220181897,0.028208786825982785,-0.05900013793591816,-0.00068837912726211,0.03703886194425882,-0.017296692813735456,-0.0014226207320826012,0.027444799210179806,-0.040605951131462675,-0.000232945444076057,-0.09640320158781872,0.013025357688782433,0.052810831462642115,-0.07003124236207994,-0.07189643188870626,0.04478674039042866,-0.015843889677198048,-0.008936862062773035,-0.018801611990993533,-0.01870588296122124,-0.014774990282985598,0.019987985047954054,-0.10919254676469732,0.1502649711872355,-0.07321072408295554,0.06212551155379633,-0.08025593192619818,0.0445096293001703,-0.04850180218600947,0.05600624803599244,-0.049484717388668886,0.04263258969173309,0.05247154187117489,-0.044267668313781164,0.0354326908434457,-0.015166404612936002,-0.040148643628801134,-0.05133899928077722,0.003382463365647119,-0.010181080951429958,0.049902881376153146,0.04023396128872452,0.0333397712420643,0.01912097092275587,0.007790764592476197,0.0023489687959551767,0.039157665045781775,0.018296085603144635,0.06999622604954558,-0.026236568248297475,0.03694562594943808,0.002771421845005868,-0.020499191231103702,0.026827078355171684,-0.0027483841429527343,0.0008642735449708927,-0.002840791282369427,-0.020557165122275442,-0.08385772662892012,-0.024006960307702108,-0.026287399976798013,-0.06710023242471903,0.08575911185219133,0.022195374723415567,-0.4737223602490189,-0.5919538374428945,-1.1354722866233673,0.30234966570720534,0.4486824846833397,0.3197570854740535,0.9840953614315622,-1.1670991158892516,0.6578815910825785,0.14324217206698897,-0.6295034166189986,0.23699912185640937,-0.2059855797601282,-0.3557373746561717,-0.1978326151065516,0.306789584678556,-0.31377370314875236
39.23740005493164,0.8791007995605469,-0.9548479706162469,0.5586544074641822,0.10665881161999143,-0.4939166478207913,-0.31118022005378676,-0.24695099813938462,0.3431570684264184,0.09505072648898621,-0.18229819748249435,-0.1669189032255251,-0.46325002035198315,0.6158174973639969,-0.06625937344628764,0.12408214885129594,-0.08490040443765394,0.1661851457037409,-0.3721269258983127,0.00010807377990710958,0.022292778207035176,-0.0003189303220541015,-0.0642034565812899,-0.03394404759916453,-0.009837956322486612,0.001855639978669013,0.041389481563128154,-0.06385713907335269,0.02485900294244668,-0.03432936137098838,0.03607358446878277,-0.007283609031440258,-0.017322823596628817,-0.03506513509729452,0.0016880601701790565,0.005263888634086381,0.030430391533114196,0.051467962178280806,-0.013318839150065731,0.0012536569734292388,0.025047954443407044,0.02823088805180701,-0.026278220292195842,-0.06440762006643601,-0.030894899429587452,0.015768835976660768,0.13251670760472833,-0.059042089883686866,0.017226553880057602,0.001390344934039077,0.07643873568115568,0.017723288637734494,0.031197995643222565,0.018667490292210966,-0.025253711380513105,0.05967651933852859,-0.05724822426353073,0.0743181842873124,0.03849612532961731,-0.01671608555455384,-0.01425190279187962,-0.03359970761390542,-0.0665882812083176,-0.015783973558346487,0.0029626332549256354,0.03893101386644324,-0.012891100065226532,0.0976659989292557,-0.00927393977398158,-0.08239696558366887,-0.01642200784448481,0.014358521720597234,-0.05198274029265167,-0.06748080638768203,0.018411155941774664,0.02888213160354429,-0.05664645793627294,0.02083027208365714,-0.068650272644432,0.006485006657867207,-0.041193035894148154,-0.027905310660268755,-0.13141907807700237,0.2724532315599848,0.5071058424698638,-0.30576243810561066,-1.4313204537120734,0.4702971852782994,0.3673891201358205,1.3560204824185504,0.05993714287236166,0.780247446395601,-0.8055398902702142,-1.0969676134095365,-0.4489499200193826,1.2316750456942909,0.17380801173945384,-0.011082718406378589,-0.33113851804237804,0.09913063524296174,-0.18496552174717007,0.11356546248780176
40.11650085449219,0.9091987609863281,0.2110756642509363,0.1779147611412633,0.07925942162470989,-0.058396013342775784,0.17942376410916847,-0.018043348049141233,-0.19906312507588786,0.06172415756185465,-0.1372412849420503,-0.06992897444582691,0.013018370246614487,-0.09567474068866444,0.04352271889879416,-0.04542526151537642,0.046026263728607936,-0.05831747567725557,-0.06009254966112078,-0.00039361254963733846,-0.05440724474866111,0.02150279371119944,-0.018297281501910224,0.06985752291878528,-0.04032323292271264,-0.003397423996478504,0.0294603408221092,-0.08940587783123818,0.06792050905479458,-0.03412258094201154,0.0886468861064855,-0.03129645020912885,0.11359407023631274,0.0072546297746153236,-0.026499135667775064,0.06264102375086367,-0.05185163398546194,0.03585968025986978,-0.04230279127665321,0.04314134383814783,0.004889455310163866,-0.014586198398600396,0.018972472147628556,-0.028531934947845602,0.02296420455992628,0.0007894686724219113,-0.005847793963509304,-0.04745098863963696,-0.005137870850422513,-0.1294919691178801,0.03316658330413616,0.06439765295073212,0.05012729639462451,-0.012280538156482203,0.06894010645800472,-0.08930243114973158,-0.021034090161196756,-0.06317891868647818,0.07245281283616052,0.008268483337080617,-0.009236617893584032,-0.023758305498926408,-0.023670744001673155,0.0021642257866820534,-0.026009150398629097,0.00855209179964567,0.031906289374488764,-0.022771002796272127,-0.0710153523347569,0.11756429293357734,-0.021663680942232793,0.0452413240024977,0.0004571066953601745,0.01289135518380552,0.003210762823388498,0.005112820155679959,-0.007283842910651666,-0.029609510650327495,-0.038234396967270184,0.017772202763432533,0.058475632978757144,0.07604847840244343,-0.2731646569672308,-0.2545783923139899,-0.2146836974836699,0.49585428448551844,-0.1098067466420116,1.003825106193839,-0.3769321127770323,1.545089514834869,0.027562529535698613,0.08295097661015272,-0.44581902793403827,-0.1254156802616051,-0.07919654492686845,-0.31609736297570995,0.16019409107075466,-0.08321656092895427,0.25143435550186766,0.856366356856795,0.7214572179253878,-0.12262541372939953
41.025699615478516,0.88909912109375,-0.1429161594953441,-0.28661708620207244,0.1914732516634482,-0.0946457480556313,0.19845536927660112,0.014935828361032626,0.04623544072565333,0.07667499807173199,-0.06720398643006636,0.11125022727291452,0.011953427831191398,-0.16017332639246287,-0.07136884023877968,-0.11273834693714228,-0.03825870309962356,0.05669551015148888,-0.06349144323059433,-0.058757343744085345,0.012050585498876679,0.014106548998094645,-0.11209690741248265,-0.031188300619261908,0.051816099791194156,-0.029702045578361418,0.013698169745624829,0.052334793590432055,0.03522515083297583,0.02745634554186551,-0.016534506668378864,0.0130663870088556,-0.07400443693951689,0.061139932173227815,-0.02743450791181876,-0.07010632726097218,-0.01444574857719828,0.006671151156854703,0.006594528994305883,-0.01677139938012825,0.010855057215717763,-0.021934268045721475,-0.023314569678607455,0.02657675630767453,0.009638184891132273,-0.004228970689395564,0.01735973919663731,-0.06812481214448876,-0.07000268778767336,0.07655812060862585,-0.038043162993254234,0.01620169605307007,0.08971831077906597,-0.06999775999832636,0.04615889299893394,-0.002427500261499457,-0.01942450699497083,0.03221468265368628,0.023775794669003432,-0.01710744810889859,0.04159154515373865,-0.0446021467227948,-0.05014681842054859,-0.010445364469443288,0.06136234996919855,-0.03743949473619797,0.027355880990871242,0.026428416326160248,-0.03424496661021541,0.031315633471743334,0.05063209869509398,-0.03856339632140533,0.03845115624197211,-0.03058740457908867,0.029618643213477867,0.014163892650242153,0.008285921082571505,-0.0038549398920840515,0.06792051076236222,0.010597190916170665,0.07464621447712916,0.07695693900344211,0.032114026417616515,-0.09862558685994129,-0.10249772715805278,0.0018396028351609526,0.14335104587443936,0.11011618038412936,-0.8643733195704831,-2.2451498733967337,-0.42627631324940657,1.0492005584049353,0.35213060264405865,0.017684282677362925,0.8044258103143899,0.18548621673805676,-0.41696415421539224,1.1967295049366093,-0.1837059821288099,-0.37253387787382286,-0.20388927028519038,0.5809686725059342
45.64030075073242,0.8992996215820312,0.7932386069157222,-1.09584094750758,0.5332497549006663,-0.4099399448312473,0.32729363791234467,0.006597738675885536,-0.0035835412143431656,-0.11476293931231554,0.10264189665947061,-0.18181859076321294,0.1281352951058813,-0.0882750409151778,0.015986772503111715,0.059202527349326045,-0.06811177809025443,0.08243763740546912,0.04145011496874498,0.021283475945515523,0.057121658782873355,-0.013257126829987047,-0.0659911760817106,-0.016135942978119648,-0.05512721939877185,0.04377788916877602,-0.018314724731599202,0.008347489142964662,0.0759687032969481,0.03879293801049337,0.05316244956226848,-0.07802354679083916,0.003344566616397539,-0.014127741749940739,-0.03664674856118712,-0.04373164005561777,-0.0064979792357827415,0.01900627219804151,-0.02552436137681272,0.007645743657084501,-0.07368810121091987,-0.013173258612961793,-0.01031646965211298,0.059180006472083095,-0.024231511839125773,-0.029040465522722825,0.041720434896764164,-0.05482962115571481,-0.059225050775683505,0.016965332884739545,0.06774081664692536,-0.03133936145194162,-0.04480922357706285,-0.055532430252286796,-0.022776201239533667,0.009781332371582737,0.013204180360267723,0.009624697815415204,-0.02930053989079224,-0.09148239379851206,0.07372387759653118,0.02664404909480291,-0.06735827450892012,-0.004280661604042617,-0.05734398649123025,0.11575453366764804,-0.18063475666755238,0.053666773422997784,-0.06849517773098576,-0.09005315188064897,-0.04117051342154962,-0.023401629787828948,-0.03304513098415745,-0.005248292592730015,0.001985449032964637,0.01243092459252399,-0.03030547972441283,0.02547590253123508,-0.023177544641840908,0.03404300741674538,-0.010169952419829853,0.23132435464677142,-0.06042216814293483,-0.09701141280694413,-0.05068777501711535,-0.3295647202039832,-0.65537057803582,-0.3044932723530873,0.5256109814005757,-0.2086490331094786,0.3917468962253527,-0.44499743237994177,-0.1648811039645336,0.5043114402605549,0.9787692252208418,-0.03236477363567425,-0.11244304916376674,0.37766434383688263,0.5995239925087258,0.30908229209759636,-0.7813160222431678,0.16776840860775422
46.53960037231445,0.8992996215820312,0.09995714928145794,-0.36776630942171956,0.39441233658217695,-0.28067833179276536,0.17482376473865038,-0.3278198574448813,0.06475945581851575,-0.04086321182528035,-0.0701836247312325,0.08607013205132424,-0.10147207488807362,-0.028634933729107595,-0.0052145548314386425,0.15090052040955831,-0.07804973066277236,0.14195272591722355,-0.009020613939250674,-0.029247189851749063,-0.031228205408013267,-0.01702073970222869,-0.09863694573584558,0.016547966548849248,0.036867142286369184,-0.01096007982254913,-0.04092024220613967,-0.06180834847956861,-0.006790727774540683,-0.024320726295440354,0.012792252361843216,-0.05240280694211607,-0.007472718602300132,-0.005034140255408639,0.009774786763813905,0.06468161881921478,0.0030769617499186728,-0.09286222290293067,0.04806133038639308,-0.10172184324066781,-0.013992761495935514,-0.02445314236754033,0.11279816144302685,-0.0005724958466771755,-0.007486215839659629,0.01581655897635406,0.018830210097688236,-0.03025723842393335,0.011468238716557555,0.014439183241419622,-0.04198780084472206,0.0683977247434771,0.033979810445177616,0.03911766459146174,-0.024763429086259572,-0.04568033404827764,-0.008141373551225628,-0.009680110999552946,0.04436037411956467,-0.037577293654697065,-0.015322595131231232,0.03179456547888257,0.015997946998173588,0.0974187295782448,-0.027875867736548682,-0.0534728722545273,0.030915367956835457,-0.028064261851686034,-0.10315517905578081,0.03197780271986693,-0.03974777845852726,-0.07911130350101378,-0.06145339074148145,-0.0015135864649305573,-0.0023012806866937238,0.007713348713279432,-0.06453154990026637,0.017410554789618685,-0.05702812680352299,0.011524690424267394,-0.04754757144435525,0.022542994585044454,0.05500476674171804,0.1129861106856714,0.4475642285482356,0.048189716877863144,-0.6065815309892891,0.19547310025321474,-0.36192082859569785,-0.3274312532526847,-0.15876445590567684,-0.7270743690551695,0.18573618504592804,-0.21025590620672976,-0.35861627014040404,-0.35792301624408174,0.7623446801149176,-0.2795476915137365,-0.36006030499264274,-0.11918436554494312,-0.3099439605465133,0.08133008137926993
50.285701751708984,0.8786964416503906,0.020693666765313923,-0.41067396567648823,0.303036978785923,-0.09035628160840276,-0.09103876535777994,-0.08825880414007566,-0.009423478221847262,0.05746035547819617,-0.05744396433098958,-0.02701084953435128,0.03575377096249524,0.11665157272289375,0.004471104187560498,0.0012271976275940455,-0.08886527127074585,-0.050481763099960886,-0.010591545414337487,-0.01188642297064929,0.024220352501308065,0.06238515446540758,0.04636126691079692,-0.026918566990829174,-0.07898249936770359,0.01699762971322221,-0.02730032833527253,-0.006388217727295212,-0.002634595310308647,-0.010916641437931774,0.11023080262567642,0.14193922735264303,-0.2487256428069732,-0.19498794983520384,0.03756201647391698,0.21109388109044333,-0.02568163853184849,-0.021048208541156258,-0.020658728021162996,-0.012450351415093765,0.003898370951940594,-0.020930517736984112,-0.02100574510301645,-0.024571977216136454,0.007803989442754795,-0.027944332156034042,-0.031014732433733642,-0.003946251135879805,0.014808058731996157,0.01596469727923818,-0.048670503187290916,-0.02699519669058435,0.0669907581028356,-0.016669279628872206,0.01725314032210399,-0.07746106684109327,0.016100970986486732,-0.05256105337056491,-0.005684325649237515,0.023242578106656635,-0.024927251580575766,0.00926380798111963,0.0012952647878231478,-0.07189401501450031,0.06336502858142518,-0.07446794074458422,-0.08046777005869596,-0.0042617022765165935,0.11084453008804175,0.002485100629840111,-0.004437161587801948,0.028909682828819706,-0.01250071834129467,0.07446112759589499,-0.07347475542854,-0.07586167914425092,0.001818834122826846,0.0038099228955097543,0.042146225992964775,0.023054390780495017,-0.0020218406435479393,0.043120086167038066,0.0032073790224080518,0.01345549992720133,-0.021905517121984644,0.25722626836868756,-0.3322415492053168,-0.12476853956324864,0.09376854594416795,0.7050124059051768,0.6167754194791134,-0.7185832218801227,-0.5044205091703515,0.018423633438469096,-0.3663125274631636,1.1583030859425398,0.6990768042952851,-0.062363903902090685,-0.43814616622996155,-0.36835412207312795,-0.9054507511543033,-0.11143832660913872
51.164398193359375,0.8790016174316406,-0.2313717929862352,0.18723606739127058,-0.31067960900305186,-0.18801314090511737,0.027645276394093893,0.09281014520914017,0.17207286189644638,-0.08887538274049278,0.13298459757567976,0.10320421160752127,0.09940934326600365,-0.0047944125458190354,-0.060524793907875685,0.1065285073347785,-0.004270271814673012,-0.060670110355482684,-0.07344411742522194,-0.022511123990908353,0.11054037983612741,-0.08820758287652015,-0.03554446790083211,-0.2466686429025149,0.4338618010280609,0.018004862652559406,-0.07059851667281616,0.03519447871335277,0.04862449034958502,0.056579780600002155,0.00923111278543187,0.00860515156291159,0.017645160104953744,-0.033661792483619675,0.016716913925657984,0.07787768612141141,0.00939777162744676,0.045460290023207534,0.01280800806575339,0.04745743382227201,-0.01744028080344262,0.08551405721248989,-0.0477505612605319,0.06572281563714187,-0.03501075073976912,-0.05849004354761722,0.054215126716817955,-0.001067171656461835,-0.08607213456265524,-0.11645813054784822,0.03419519167332376,0.04591203249273991,-0.01313536143139661,0.08191855568418507,-0.02993829455241935,-0.023793180746872936,0.043921730062765105,-0.02809606637631545,-0.011827167125261561,0.012400855820722537,-0.0748575979713774,0.008696262567673668,-0.06746630842402093,0.05214025242525804,0.010973600148489564,-0.0334117591961349,0.10925239792423716,-0.03670854346395301,-0.018457834519842932,0.018488997112662692,0.05358877607143152,-0.008221793851482584,-0.019428503380909033,-0.04016613664064317,0.05188435018968285,-0.00417600492600158,-0.04924576029425468,-0.014056728635445593,0.028324810473796928,0.07298546602872961,0.024176644662041547,0.020544661660843344,-0.09947450377926709,0.3187488676745625,-0.37868703905768547,-0.4372686556994138,0.443066526021117,0.5097194923148624,-0.2913103281487347,-0.6366795846270299,-0.19799241564116304,0.08926801706358918,-0.5474040805687073,0.27400320387198474,-2.0411249504683395,-0.2099927751205702,0.11662597920279658,-0.5298919728079771,0.5886341597585295,0.05283281554268815,0.3175074936009743,-0.4126648311692919
52.043399810791016,0.9295005798339844,-0.46116791337038887,-0.8275351427998126,0.6517468331016364,-0.42063997318897617,0.058336092632543635,0.004624573662704242,-0.12281913930692595,-0.0715858957930132,-0.06797840949089716,0.08369910925701934,0.010519765944545206,-0.011296789603669694,-0.03369473953804108,0.1650475904020915,-0.023200505726725985,0.05320422726282939,-0.028112682778776533,0.019541469894387604,-0.11626890401386755,0.17303598383615734,-0.10274668370362999,0.03661576394801787,-0.009897439048094016,-0.03369524136575489,0.04727788120287503,-0.03232451676517027,-0.013758274287828949,0.06787651504830836,0.025750420843920787,0.0029915636049842103,0.013031515236055613,0.03419929406064398,0.0009754203683701155,-0.029702709665622842,0.10105791519161819,-0.13951692070478613,0.16111421475702836,-0.024683068743936665,0.02246178740311641,-0.022581611933659863,0.041047082318846455,0.035714941641406296,-0.055174964361475794,0.05169358992201395,-0.24618839742729298,-0.026330814902513572,-0.016072586842056952,-0.005800471955994653,-0.04400657657269477,0.06170487620058748,0.0615710704518382,0.012212676478512848,-0.050060717912931735,0.07445987084072388,-0.0038455063772891707,0.015702173663356567,-0.019419792788353263,-0.03902121561086784,-0.05330385079526252,0.010851779369962332,-0.004938818870212707,-0.018692248871971143,-0.032047291098853854,-0.002554647253569676,-0.027975425980899964,-0.02211402345876625,0.04948402417824085,-0.04768070131471791,-0.007554076372111064,0.03315447301032742,-0.023299501735536084,0.028595873008607855,-0.020696518817648165,0.013738535875058381,-0.03648577544363108,0.005977844205925679,-0.0350628086862812,-0.0923573806554383,0.20777351505641364,0.049519867276980684,0.22687202353442928,-0.33702590967047175,0.19623831425937788,-0.11588096779830125,0.133839283586423,0.04360488277768713,-0.22169075071446268,0.2664718770412526,0.2287656249493477,-0.5767086623449712,-0.7400261124588875,-0.37454770762836387,-1.1413363633218563,-0.12406750095121077,0.5372534266352856,-0.5435656846210577,-0.21190387951731607,-0.07563947926127201,-0.0789171372298112,0.38098503006851403
55.86920166015625,0.8489990234375,-0.04724698235028413,-0.12662356948928172,0.308892055552681,-0.19932024337466137,0.0075754646517475896,-0.027563635033133742,-0.029421917702441753,0.0717670234782981,-0.13432509767294099,-0.0016225313063052624,-0.08133090103932698,-0.03356493526249527,0.06190146052847652,0.06521972140622231,-0.006967077817911973,0.011050693275164385,0.01961861811836968,-0.06982328533385262,0.040122558897342196,0.03912106324448856,-0.06481155662249552,0.01054222964857036,-0.009938793217772093,-0.027730939716186984,0.05515003423107936,-0.05990686558284219,0.037274749808158106,-0.0024379403679203795,-0.06904345686077909,-0.07852243891620969,-0.038232356502084744,-0.16099132931595772,0.20743318922759255,0.014183463854977211,-0.049595795366598354,0.10379254002454641,-0.027803982799545133,0.10179140400036947,0.01957682727246808,-0.012075203699531674,-0.02272423197204596,0.19072075263293,-0.08718541817016348,-0.028461457195405132,0.043129735034459896,-0.07148140135806993,-0.0417444130842513,0.05823498691951066,-0.005939256531162975,0.09033563795384461,-0.07529338654737582,0.023048387462584426,0.006087628782573178,0.043076328286852476,0.07043922859483956,0.027017983736083544,0.0692651581652049,0.0071604393648258885,-0.05638063693231746,0.11366363318132529,-0.0030831649830791344,0.07005459574299644,0.0044204175653902444,0.03352611800811031,0.02836097964972171,-0.05364037441790165,0.0018906344775806673,0.02829560297707463,0.006448620206591239,-0.035316859584405544,-0.014147038427580274,0.03888196585323941,0.02949070233573621,-0.006576290550311742,-0.06741954461339902,0.06532922494045135,-0.044056982549095604,0.04312331157486176,0.01880447709599764,0.08323131421574198,0.03375705455078437,-0.3027355919475224,0.8580270190198165,-0.12735916858124546,-0.4540831052224432,-0.08234942857271238,1.027203579663149,0.22665159244235875,-1.2666350715791928,0.3656134487117074,0.4716089357065155,1.2141423646992413,0.3288365964298484,-0.018689999489605924,-0.21591454262813548,-0.753842548798815,0.7031297087594188,-0.2895888020135771,-0.11957673195050905,-0.4072929228369239
56.71820068359375,0.869598388671875,-0.43845253835902326,-0.023129866998114566,-0.3446190346254236,0.07136154139413683,0.014838876008788169,0.0964781719554816,0.15565337575012442,0.06770248931307407,-0.0501161767747226,0.28415765235035306,-0.027033487347939048,0.06675070742509552,-0.26402362457883505,-0.05008216463504702,0.028279282589303144,-0.11132838827614291,0.08320574693754741,-0.01893006337742792,-0.02787408583998536,-0.032256170266175145,-0.041509563490232326,-0.034536426814376096,0.04403112256981828,0.004412512081322396,-0.009268370315977499,0.0012001384798034087,0.023963508067783534,0.0886877705563342,0.0584023495063313,-0.03398406853315958,0.06630037280389686,-0.055935690547372865,0.0017600316935895421,-0.007865799147066662,-0.020128542441292658,0.0068828420704539935,-0.027726150876221343,0.00760253256331847,-0.016444837405203777,0.04143925899785878,-0.022533404491494297,0.021347137114309328,-0.024530078890553697,-0.026597046851368707,0.03527342875214526,0.026352814019336153,0.00458815700178563,0.013391909368721939,0.007593278358548072,0.008698724441802128,0.046051624574240835,-0.014713403052805718,-0.009009202230422154,0.03713351476837363,-0.0015558261751153803,0.08452421099482277,-0.05861395100938743,0.06759594690998623,0.060037166307799344,0.039312700386353296,0.015211266936315823,-0.03731226207498903,0.016190140458562832,-0.07894632813983998,0.012018354121803462,0.07405908078391715,-0.050826780795120687,0.011640627029964825,-0.014050248157019642,-0.019422799273551065,0.02546327211368406,0.004060732206056256,-0.046512570722881105,-0.04265738874914256,0.019466751100393528,-0.05720930891319637,-0.003574630517665433,0.004626531591357714,-0.02524674539893444,0.0835109315280134,-0.12798657359999716,0.3217772824128975,0.5830448667719267,0.3340809777971257,0.47100457351088076,0.23017179469615054,0.0850956719221164,0.370469627812669,-0.3865184491172357,-0.7282680552736379,0.4063500334480069,1.1276201336928489,1.4038518226594818,0.3669636123853051,-0.6428650343081671,-0.7615565611253208,0.08518998843904285,0.15883763687365066,0.5329837320583197,-0.6642419934179574
57.587799072265625,0.8787002563476562,-0.46215959182583743,-0.23556655707076196,0.1582309292526291,-0.14963324806453923,-0.05140793894040145,0.10718092904625724,0.1201504597992723,0.10941887041201116,-0.16240515984632312,0.13795621480296408,-0.006131624916889998,0.03042827328274457,0.06282461581513565,0.056805037293235175,0.03039413116396862,0.004358867575036519,0.09933439992201408,-0.022832722524022818,-0.004231712410698453,-0.03374103023540257,0.0063315215824137835,0.07693414505361859,-0.005499907356448817,0.07693232982571913,0.014908845894900005,-0.05812159245130169,0.0515718307409232,-0.005426466287033335,0.03780124687733627,-0.005599480551451272,-0.018951030959199956,0.03538152479928134,-0.013288709126410437,0.017241838199203854,-0.0667130096542004,0.1004459733832058,-0.09408939226220202,0.03436697139433086,-0.08553203321629078,-0.02473633931169932,0.004558590040355241,0.03477462970245387,-0.06436150667698687,-0.017361150722979904,0.0833601642210493,-0.2126127904000899,0.2778322027769431,-0.22387553604037652,0.1854308286108859,-0.09623239614899196,0.04475267228146552,-0.04327980469854595,-0.053455973644441455,-0.005073289246922887,-0.0001345256833648863,-0.03025477299550566,-0.04632214547512829,-0.023081350386277538,0.009369490692111274,-0.03949243480554519,8.496553131838273e-05,-0.013661007633016734,0.04459883761753659,-0.04630619751174684,0.04439883347929991,-0.02591858151145535,0.05389676375646084,0.0020341441779745985,0.006454795754206044,0.017413014057962747,0.005010476473141351,0.018469851836001513,-0.004638556644064154,0.0012594671209069529,-0.006964007448838667,-0.07792817436590867,-0.009046391496568764,0.03624028992736967,0.0029252537424007017,-0.215964157888468,0.04442669413960388,-0.08342317847705048,-0.2359435622044609,0.05600756169852028,-0.41278443491296934,-1.109003505032701,-0.6802657439515293,1.1619057969628226,-0.16669582941388247,1.8244519682226616,-0.8241806460064273,-0.5007495100039235,-0.2188508979244173,-0.0334757470462699,0.19946630391077194,-0.3081223126795507,0.27336955226068865,-0.26755980068135304,-0.20693605258010112,0.12981830518093132
62.3026008605957,0.89849853515625,0.5317897131006082,0.0990759386181997,0.017719549550170313,-0.036681450890123,-0.16666731311218325,0.10783009663848708,0.15574060403296142,-0.11598204923221801,-0.049636012456464915,-0.048717885301600865,0.21473047092602582,-0.11417335257411124,0.19609289901062033,-0.10351862025277758,-0.014820089958567595,0.1367235621078297,-0.011626778773623891,0.008055640804563426,0.04128683228627045,-0.018919700934138917,-0.06434500570738749,0.07747316356763183,0.049528108920432204,0.02463636984906545,0.020879377706573776,-0.017323654973878617,0.03795965601445927,-0.00827210580396917,0.02436413646512519,-0.026504861821801007,0.05615873753223937,-0.001632347972544742,-0.021583609508129303,-0.046028144014141806,-0.00880391804687657,0.016186475767541963,-0.03971697018643447,-0.053232218758142755,0.03376464811764298,0.008472478887131835,0.0224928680128014,0.004470154752945042,0.02244532731881025,-0.04206267976302067,0.011608403041484583,-0.020758092155784516,0.22384162900653046,-0.03647343554525531,0.040974015780389714,-0.018882981815519215,0.10514497273957703,0.07138809686443753,0.10452866640308703,-0.025865685311779765,0.02015298336594057,0.03641076159777762,0.031943477774843076,0.02667813868453847,-0.023972736935426633,0.05123796391607252,0.014740440061356129,0.00930112431732369,0.04748837929587489,-0.052263294637115876,0.06409861383787248,-0.07941425175401462,0.06369023839324496,-0.0731423570499702,-0.0012813755928926668,-0.009174593669919951,-0.0377951933468573,-0.001080082205549445,-0.0007859546890106444,-0.0009848506946095934,-0.09730116976518183,0.014094256717620587,-0.0010151397659824537,0.08790673173732638,-0.05586995536601066,0.03238738634112746,0.08096662268812424,0.10842973943052306,0.28470688045745474,-0.4000785435989308,-0.2579730736223289,-1.5090477369185133,-0.3004919897986404,-0.13617397218557573,1.2298271273593961,1.4184241649576712,-0.36626835128190594,1.3415062433567093,-0.8142571708160065,-0.6375777267607884,0.41499551318118344,-0.02915946143494766,-0.6499759991871278,0.43023288767248796,0.3248868159898335,0.2661150436894923
63.20109939575195,0.9194984436035156,0.3239418021157322,-0.18355589676318443,0.2032258023344067,-0.13794191063759037,-0.06712994874129831,-0.09621369067777498,0.13309774514788095,0.04292468205093663,0.10404509826301364,0.07494612325674474,-0.019378039794052056,0.23186666235056014,-0.018786428090037367,0.028037076054704225,-0.14330953319033873,0.008846639069125946,-0.030541254767502614,-0.10119057431415836,-0.019526888450405216,-0.02395188053411929,-0.0004464778212909719,-0.007101389498854912,0.011004352973204248,0.01562378602585332,0.03566833112946366,-0.029199274264234056,0.0392733845932534,-0.11068000275443785,0.04109887240586737,-0.17048654589904683,-0.007058917174180182,0.05799691987422921,0.010362384259514716,-0.03055749602884541,-0.09034260516690204,0.010329656810411106,0.03206426665375918,0.04545904055160921,-0.10044701146752257,0.03447265513959072,0.08484346651944862,-0.08277385686619007,-0.06131424703349947,-0.03818300114670123,0.060962500835688355,0.04551289517705949,0.06069124421481806,-0.016171675294805697,-0.02775479084753238,-0.0622590935637429,0.014938237552483073,-0.008484647842645625,0.01535704817745459,-0.026682862376163522,0.03319361275159278,-0.05607996128194041,-0.0010999605500578297,-0.002767693384533641,-0.00343677815396657,0.03277176153132553,0.06072062862067762,0.011551724621233182,0.07114578002518587,0.022611026249465475,-0.04251112314203729,-0.044999072047057186,0.032898344967851066,-0.06509179014206284,0.0027144994769345357,0.0023037894349930274,-0.04169436823735515,0.07679220402804524,0.0019231317238702344,0.08397362498766597,-0.07776878326024053,0.009550841732592647,0.0740238861911571,-0.0034980638609479475,-0.11710927771702792,0.08222963031900832,0.1259156803578633,0.13639509462417315,-0.49737383428152215,0.7408588422324721,0.7531787225371682,-0.006822684550372438,-0.5696507976687748,1.085836835271376,-0.6368721553694967,0.8284865579537656,0.18372656996136136,-1.3931211177012994,1.5246617114819743,-0.09714346876869055,0.20422848876415156,-0.05246789801526484,0.14619488599992342,0.07619970423003689,0.27518614418710197,-0.32950933647438524
64.12059783935547,0.9188003540039062,-0.28957154246011885,0.029642153666417273,0.025220259032100217,0.09248891060740907,-0.1455290320824695,0.038636893731399787,0.09069813163753376,0.009125189382700974,0.0044648321801360885,0.03355894930896115,0.07630474162711987,0.07095023945317516,0.004179701546783251,0.07236938082876657,-0.1234144033195588,-0.01894695546239081,0.10571149197051041,0.003110474939434768,0.010475194380178042,-0.04464042713095773,-0.01892611295416061,0.004681476167058168,-0.043225408870240255,0.03673423071742443,-0.08932973963647166,0.009514479858362788,0.06874315517895338,0.06592265743509056,-0.02217533186958691,0.036541112619648465,0.0060366927175290325,0.019227396248568653,-0.032158236870847755,-0.02373062235248652,-0.03685134342245659,-0.11061054963033048,-0.0343305783430283,-0.09895939500499314,0.07863568546869576,-0.18178414987251074,0.18656126189149247,-0.11747453455951443,0.1421080288698423,0.03675271327431819,0.05490629014987131,-0.07334334581101824,0.0771044542929803,-0.008189171392396104,-0.027897888838253643,0.08373519844862165,0.01055273827840602,0.0015488516861596204,0.005162430224487348,0.011731564042608365,-0.046542058098028055,-0.0669134825958555,0.01973730541986795,0.016241093834570203,0.022867552176098475,-0.012914555140892892,0.011716067864189671,-0.015180278775761065,0.057605930013510165,0.24326126097414896,0.10336708546649725,0.07656706766008073,0.07325485712219162,0.06529462276369614,-0.009837488278850774,-0.025996403259401318,-0.024352703915234135,0.04453272186192013,0.0570343099958149,0.010482756075040133,0.022056737743222334,-0.02176047490996602,-0.12356284192420884,0.017634218401095636,0.17179399346119947,-0.11399922591409782,0.20498624175283486,-0.19847907517342195,-0.030095186584905065,-0.29097626352594186,-0.8241941241922566,0.5685254881595698,-0.3981971635667166,1.131126637167966,0.6868183488486626,0.05476362545027874,0.08078066482276672,-0.4091901826407393,-0.15701828162983197,-0.06756470138870097,-0.23379826447226723,-0.12394693042189797,-0.13078612989837984,0.03506073097392223,0.17507859741615403,0.3832651714379002
67.78600311279297,0.869598388671875,0.35429987682561564,0.195674242200672,-0.1123871388841493,-0.1806370969594912,0.051103650450826654,-0.06650423405016409,-0.05761286623463204,-0.0861344301583488,0.08143934945781298,0.22721440204946658,-0.16133803660254903,0.1121830993375371,-0.0900668265323804,-0.11390564605393746,-0.13957929120619064,0.016182611283266833,-0.0029685097058616966,0.06663782839472723,0.008611568009836517,0.00869435189652451,0.017338393494909305,0.09530504743324056,0.010936463705182382,0.024711224334972234,-0.08258503526550075,0.045226151952953306,-0.026746959047054448,-0.04341397599798043,-0.0050805587281453415,-0.01203488724380114,0.0004479097440130784,0.00896275098625068,0.01584329393518774,0.03422402785838423,-0.004427794831910074,-0.03360147814812441,0.06558199052056086,-0.08896761331153341,-0.1331654726390647,0.25838064792813703,-0.0038835046048121477,0.18322943527587748,-0.021752571023002876,-0.08159163502038368,-0.01743640571262172,0.03684383013454673,-0.11329793345884653,-0.0702633157010882,-0.004862967745272652,-0.021445852714854115,0.05428584808135511,0.08569741364071665,0.05783659781652373,-0.04490225650469465,0.010995706188044489,0.018318761023915373,0.022189117556637244,0.0002882052102890203,0.03249035712575243,0.01241029922743855,0.008310389906160794,-0.004824446889286568,0.056160255305126625,-0.04808464891354562,0.023607478265996417,0.04508141591722461,0.0592480924778772,0.021990028394695382,0.043393826519539457,0.013073544197175428,-0.0667071450231464,0.023810599737092677,0.08291838158597911,-0.06024590524401455,0.10119919725702388,0.04269224028888036,-0.04675802548212894,-0.05563533937202649,-0.054068556883410626,-0.06375846436990425,-0.0031308660799440474,-0.48790569660834954,-0.3084727820222044,-1.1287799068534219,-0.1531991494635706,-0.06226468157823769,0.11427075989953069,-0.01770511838265698,-0.27473341096307297,-1.721418842480176,-0.9730487677710968,-1.2183978882888773,-0.5513487070565473,-1.1527188031398754,-0.25822236975007085,-0.3997047449684753,0.42166946366347063,-0.35855866043744544,0.5953295647947389,-0.2023631471893913
68.65560150146484,0.8889999389648438,-0.2939662300113803,-0.32256159374663734,-0.13687553247122686,0.07158655705980199,-0.025673023384516894,-0.056526527475201746,0.38479149340778085,-0.31746996370232716,0.061634484978003466,0.024617242219795915,-0.10133771513248532,-0.1371232253165232,-0.1664766782543646,0.06111649095467833,-0.024092150680899507,0.01831810757085443,-0.12348517657595208,0.06355625294670492,0.015407829140294461,-0.10669682378064689,0.02447181309015265,-0.03440126499523012,0.011052363211066205,-0.026775509440897575,-0.06860973071270106,0.12790834997880343,-0.08477543754362307,0.03759964813664321,-0.05146725011892169,0.012232141594885643,0.02644523167118013,0.05474951522010589,0.03315698852698959,-0.002222432247391104,-0.025018307283560318,0.04018806584958432,-0.004374400343993371,0.08343388434637043,-0.03974609303482786,-0.03436466939566707,0.0033618424535843275,-0.02411094695176377,0.019879724569707876,0.021094890947876126,0.030860595394836512,-0.02990603716214047,-0.05450972945557611,-0.025062615596208225,0.073352261080786,-0.028474679614714657,-0.04477846854018987,0.02497662320866017,-0.0010490779076871327,0.02058569453526768,0.06459019473748283,0.014252242335707328,0.026013820331629557,-0.008909633417076117,0.06121543919983222,0.053968248060513924,-0.24986172166885326,0.020188206211996226,0.006087604438945324,-0.02103263326589732,-0.05091221685003257,-0.02361151944586058,0.019633847123823964,0.019817245040194845,0.04046338830583218,-0.005720804660709339,0.03110518346167466,0.00484947298376364,-0.007549769843539216,-0.004145651570337519,0.009072577651038171,0.031335344211661335,0.015457228712007947,-0.022199438486614067,0.001984466853331841,-0.041227047327880184,-0.17913707174364757,-0.0031371666462124866,-0.269164394851666,-0.34210324289854155,0.3810961320223971,-1.2726494298438769,1.6382046666207497,-0.11480478341614281,-0.2156925669492548,0.39697542556436616,-0.9399733982810379,-0.8206142669303789,0.026023531965201838,-0.5057326583163787,0.6535020975618769,-0.9951577841484817,-0.47816703121845106,-0.19231117161481975,0.09485278831071989,-0.9750151484980977
69.54460144042969,0.8790969848632812,-0.7945062141657913,0.06541845676609487,-0.2244351877302021,0.1327782745711519,-0.21243938181686617,0.12165164831078559,-0.11145772628065291,-0.11785366675313676,0.029404765589361507,-0.15601060100442135,0.10526190312059105,-0.021216335243046284,0.011414331650318504,-0.13901252719169924,0.1079496942935696,-0.00463060148141983,-0.02673186949502875,0.009517468588583088,-0.013849875011178391,0.04265408237048193,0.06143525276291885,-0.0068250254369314825,0.006192608034493108,-0.00025804406959886424,0.043725983851755586,-0.007163444867299947,-0.00033706275127544686,0.014744179550544346,-0.047500080138673254,0.027763208164668485,0.03319191003100841,0.03193915116223445,0.01695502053410207,-0.07729985826437245,0.09459959841126325,-0.08989334999865682,0.05201126427161622,-0.08290739591893294,-0.019099810976534803,-0.06916022698439588,-0.0020269452470662334,0.012930555048689639,-0.030990742806536475,-0.03168896575703788,-0.011663913113700172,0.06200505998801353,-0.02164473965866065,0.05633011791496981,-0.06195326938656023,0.024146258495261804,0.07647994342265746,0.051376591927528276,-0.009127928352151227,-0.004358426759968243,0.05180238878226155,-0.03556555661544661,-0.02929280676812283,0.03997277195684359,-0.052033856605283056,-0.051342742044308255,0.004095966912807716,0.030988990516874503,-0.03075711254121761,-0.048098391078118745,-0.014672997676018061,-0.026214706919895418,0.043731159970287536,-0.03934074942464603,0.002598099235306866,-0.02418622877914959,-0.09511953893411647,-0.0019081860533775674,0.01891868267140072,0.02486645573578735,-0.003324628521517898,0.0622267926444615,-0.03867828414328886,-0.02575827960233058,0.010690787681071352,0.02382285918210757,0.11518881112515554,0.07515020358053173,-0.8526090627793331,0.8622890754656776,-0.145718165883307,0.0560574113695082,0.901346611522436,-0.1851853966427755,-0.04715118006186503,0.009096279773414453,0.3693946736782279,-0.5101813025801348,0.9283892550781312,-0.5526875685044905,0.018244634495825196,0.4505773963895535,-0.29128571580540485,0.08561319632233808,0.0850562990066094,0.154882438512144
73.42040252685547,0.87860107421875,-0.2726563092821605,-0.1614575156673938,-0.18230183273775893,0.008130372617977971,0.07842202834985555,-0.008821132225455029,0.0404766889699378,0.10830133223866964,0.04013074599731737,-0.037873246341175885,0.1943839680561443,0.03615864815791342,-0.1098364839997361,0.18823387088893453,-0.007679501042715753,0.04186339878961572,-0.05094881793243257,-0.007044018903518329,0.08326715002801827,-0.006504293962515853,-0.030292302440215427,0.026652640759792224,0.05380858474377408,0.039239252153615546,0.03400613385285434,-0.022830427413543006,0.007663912928147213,0.055849796010199626,-0.041244437053307256,0.03595155591747122,0.05436931410476684,0.024322687967946937,0.044853332408848375,0.01948738352063905,0.02054744029247483,0.0009802581414934536,-0.023867566127447486,-0.043974618055091286,-0.09203015003120639,-0.003758174063089259,0.006188148515168615,-0.06567609169970491,-0.06118334945572248,0.030559236461820922,0.09854914469068135,-0.044391372942497696,-0.01986505879444212,0.021685279511438532,-0.003507858938446448,-0.08513922221882889,0.03890041554059767,-0.014849109485017178,-0.030000432705591572,0.007137833497038296,-0.021320781839984662,0.020976614248362335,0.06976198959708252,-0.058338490024246126,0.042426210977963834,0.02852133463990554,0.017676021186482066,-0.048373750097773956,0.049851941698237735,-0.017889141191444163,-0.010575496942807834,-0.004968096152448226,0.015224895282525925,0.060523133046940694,-0.005244009014373892,0.027283215951182688,-0.0033123068606265888,0.07439030113084633,0.002491156477670073,-0.004169160988833608,-0.0022312494780992774,0.034627434081402134,-0.032724836557146794,0.003993117433647789,0.06341182306204937,-0.051121145637267267,0.04699105051957636,-0.3060667092343312,0.06901017292481607,0.7826446105339008,0.23107408268862092,1.1051898113840881,0.3835436975398974,0.20212438205366237,-0.8723862873419905,-0.08578140298671601,-0.038557021214249344,-0.4796338685046836,0.8910840045291875,-0.9617650486168865,-1.3268271324340548,0.2692666381318243,-0.12905733647219514,-0.31156849483285554,0.3138946958497112,-0.7648616245219313
74.29900360107422,0.8990936279296875,-0.7167558423215052,0.2818813610687343,-0.19327471670063995,0.11685445711744387,0.07934407333149761,-0.19853365393256475,-0.1071061815692461,0.05756075700671844,-0.1049627984868175,-0.03482385938548431,-0.010876623935320476,0.12507093416439768,0.03485680113459311,-0.007905912345647427,0.003004254111777937,0.12411358113770676,-0.12980819821989484,-0.02529882142206084,0.0003498003992775023,0.008331232327858177,-0.03801841712653989,-0.024819460210267593,0.05523846777848512,0.014299033205542246,-0.022658268925812262,0.01546915275208645,0.07037598865506513,-0.024966245489507804,-0.033981660228655966,0.028796212874483404,-0.009842673132820293,-0.017666025752097837,0.04966584189117834,-0.04481832061167139,0.04530962076386692,-0.13687078733597507,0.10620700216777591,0.06632086511611128,0.01499971153628156,0.19971692561453794,-0.16798344915224048,-0.044902237505345305,0.057408639315898825,-0.002848487843017465,0.04689950047994192,-0.06826572501238079,0.042712663635989766,-0.06389411100174913,0.019024758442927323,-0.06279913870866333,0.016781165342889183,-0.0314625378446497,-0.0005366657484133786,0.05358515398975476,-0.0711911278554925,0.04562556888189198,-0.022827087312079164,0.01368932924666269,0.010081078443085558,0.0440719029469895,0.008325871754435773,0.010225936340985082,-0.01766458633185577,-0.0326916818569374,0.03782841852967399,-0.04443740416361913,-0.02346243448243116,-0.07313900661804369,-0.015851845502816535,0.0038757488619757686,-0.025399379996642775,0.054084167740952024,0.023466372672560035,0.03132096025006059,0.04760046323461105,-0.009930908789692397,-0.08682327807400406,0.031332921599945565,-0.02392071859493205,-0.005028141706072032,-0.09912955359559701,-0.5410182310395447,-1.0057553539957826,-0.8724419199878701,0.30241649695596484,-0.573758408027767,0.45916525422312954,0.38403006628657255,0.5520774931417015,0.5225617063952117,0.773874860543198,0.28601773281371096,-0.5334487123279579,-0.36832753663539775,0.5780663060032348,0.005282809109931671,0.026661774516264235,-0.24280398606325787,-0.19361278706687668,0.2005046209356656
75.1980972290039,0.9587020874023438,0.025017121730708858,-0.19233483111288238,0.28573562319658397,0.09134445500727684,-0.1300887735085668,-0.08261127316355646,0.0367767459900112,-0.08605603039392652,-0.07507651964929865,0.07530139737035521,-0.12946439018851263,0.16659983966479486,-0.2404918306963114,0.05492067617152138,-0.1260855094871554,-0.040564343843804015,-0.011410673989618739,0.010093752338918266,-0.06322961221988352,-0.054558238867786484,0.03951374865018771,0.0365724853627374,-0.002660697664725753,0.06461283248858563,0.003565393520704445,-0.0014549386464884424,-0.05531334013032201,0.06122827025423288,0.03504433767814389,0.05275137686341161,0.030351330118230792,-0.05193152906563193,-0.016966417542980294,-0.008019713663605252,0.04249738906514472,-0.05755294702787262,0.013786554372225448,-0.18904001952453495,0.17819255910639403,-0.6808257040418223,0.6903918394863711,-0.21982617778471875,0.1245690342221773,-0.0678134263695182,0.12089705284545324,0.0016925884050351392,0.04559344806942672,-0.07699493791111066,0.0028775489688311487,0.07843845376750551,-0.014594185450284904,0.02966350322707293,-0.015269598772249319,-0.04083588196339865,-0.020626359465188718,-0.06842755397736446,-0.03925469439279279,0.03576142040401803,-0.030624949529999525,-0.013947013005431948,-0.0014004165285541451,-0.029225130161329542,0.0027574109560441207,-0.046875978265483814,0.0788464191376244,-0.023483028996995232,-0.02557860949638988,0.024109728841031325,0.014484191258493246,-0.03093773868799842,0.03954716810706249,0.027529865107561054,0.05515717723071184,0.02521810322842265,-0.06437149143190382,0.0006218546696564881,-0.014040735804709582,0.024960922740663173,0.05492981318028202,0.05626674060598447,0.08083499988349725,0.059091651463526004,-0.45151666403800284,0.16662059040882798,-0.45865398556818215,-0.3811279439816509,0.038034583802249514,-0.6854913041203733,-0.2760105441312373,0.13936419423599195,-0.09151345309179987,-0.25396185235522145,0.3086016553421505,-0.5062363758919547,-0.5493059589957313,-0.5407956461676364,-0.23536241350498127,-0.06430419590485996,0.43454600249326764,-0.0890087097791935
76.15679931640625,1.8282012939453125,-0.0821181108656341,-0.39461212343537894,0.0624081604721175,-0.0704506571414146,-0.0758102008261957,-0.006891435140284277,-0.02292990023318234,-0.04072098682511362,-0.005706704623600151,-0.03195371452746828,0.06122433212506454,0.1290053239661958,0.21398872606884284,0.07780441264062532,0.096813012349,0.06201959719324773,0.0021316036254789682,-0.07656923380476521,-0.011103128167097725,-0.04938938791692179,0.061304953702393056,0.07350130112977679,-0.05467810985376254,-0.013890833399250076,-0.044372347843155586,0.015500731613782074,0.016001391535221118,-0.03926499664819838,0.05179391065871005,0.02915564400782583,0.005005507443056631,-0.037285489463108626,0.022994337788302576,-0.05031810216524575,-0.012488629971514413,-0.043954778587120595,-0.0009741841497646203,-0.033982860314213194,0.009644103302315726,-0.0433314097745055,-0.026153534567293354,0.033036263102607044,0.018904643486858972,-0.013644229491670094,0.0474844782534864,0.0298686627648278,-0.011622807061386978,0.001952395317365293,-0.02729194838801046,0.010266750866901278,-0.10104450632396336,0.08959973475893067,0.029065722131488878,0.05959771395500489,0.00945611952365534,-0.01952729793836277,0.003309751479369117,-0.07659774683724405,0.05009885102627958,-0.06646401470634632,0.0036781586457328708,-0.03113891792584722,0.0542435161197663,-0.01745486511999224,0.0012223867963325752,0.016492052363345902,0.014152206607508197,-0.061927191515867064,0.02407004785083918,0.010824450459287592,-0.005834850716630184,0.003405303896763397,-0.011574231452594647,0.04780155613611817,0.01969731549595069,0.04431866984877515,0.06246192541278423,-0.09969055332178285,-0.01899184143633087,-0.029946173814396064,0.009087595077991067,0.025007633205485685,0.2212076294794461,0.0520790056795866,0.0493003512290539,-0.37823752637703084,0.036430011022740565,0.24264605459853814,-0.01797877043665269,0.3613194198483471,-0.5513364108128617,-0.6051127692016491,1.211615518268587,0.055720683800998996,-1.193160720620139,-0.6038703063547775,0.1276448592082811,-0.03846655631271068,0.12494748308315767,-0.44303742890040265
80.63240051269531,0.868896484375,0.04801906337363637,0.037841698912646694,0.45136620053676846,-0.5216696357911348,0.2344085954620242,-0.20222929749858545,0.17481208349700075,0.008912558564344796,0.019491604382701658,0.010008250164372928,0.015666984105078996,-0.004854556474661653,0.07406009610847461,-0.010873950912120438,-0.04444979843306451,-0.0667987620469763,0.02033625184105547,-0.026839419506473297,0.048613947101600566,-0.06308547491199099,0.001927243342217408,-0.06752339745106192,-0.014872890383698769,-0.02398305368359133,0.011749976154568778,-0.0038009512795256378,0.0009008819659565842,0.004748495785430324,0.002651907622014612,0.003192237314330001,-0.04365959487656486,0.06143323505821294,-0.03467268505809265,0.008544554268007092,-0.33839575704367425,0.08548840101985751,0.07557846428786555,0.13944746849076778,0.15399115505958755,-0.03130038314522505,-0.009451911642054823,-0.1010391959633282,0.09069234741854691,-0.04801164620776122,0.06466503670903397,0.01391187294877003,0.02548417250871586,0.058232105731767916,-0.016308900313095696,0.02134166572003887,0.07445643405411012,0.07585962010988,-0.0638051539611862,0.06082769404510788,-0.0438655099432649,0.028653156624742177,-0.04924156096118302,0.03433764070161375,0.04321329631571784,-0.04675474086186213,0.07211668441783306,-0.12470722873681599,-0.03490492226622913,-0.012699295781181723,-0.06220649435952255,-0.00046187343015555507,-0.0024174444438413573,0.05794048450575581,0.028605417191959553,-0.15830947786300104,-0.09212745621961595,0.05566622841791595,-0.0043820189415403245,-0.0058447136554263665,-0.0022773073946029698,-0.018177999347569793,0.026112430153059536,0.04399175331792092,-0.04672109839631426,0.0064621057907971735,-0.4509699742743999,0.13900434957390606,-0.22880698935187185,0.6595239818182206,-0.6093368846254985,-0.31492337250652724,-0.0756907789668472,0.1159137383316986,0.13459860405289387,-0.5930409481438462,-1.1178586400501573,-0.8738267206340361,-1.43092415913338,-0.26275859459681317,-0.5218521006455922,-0.20975779584892223,-0.12179709636522541,-0.3700285836520016,0.7121208368312136,0.8949228020538689
81.50129699707031,0.8990020751953125,0.9806125372287333,0.1736886155772851,0.004530739321415064,0.06289786750478935,0.015081071348589336,-0.12820709264704058,0.023017760756741404,-0.0007525422025949574,-0.028386784869807516,-0.008507374216974915,-0.09355430355970262,-0.00769696791269215,0.05090657306764304,0.08900642710272876,-0.0033555769067663277,-0.12254693871927295,-0.07575336375497926,0.010259487992612613,0.013306776807090352,0.03137082464897955,0.06052367199653497,0.03868920465104674,-0.010826834037532585,-0.016186859693730803,-0.03635942516568486,-0.0037352362078601174,-0.02459600147652792,-0.07449029292829992,0.02675137265620262,-0.10172309779454683,-0.048395790907565135,-0.035142583280134726,-0.03646370403122261,-0.00843768590394391,0.024271241151535814,-0.05838742416035136,-0.03535393279192385,0.035767941800847754,0.05036209198865533,-0.2699679994344918,0.03238340808663298,0.0072120640876837325,0.05460387252698348,-0.021276299634148038,0.02063367453932175,0.06692962673214678,-0.01351594168933791,-0.059892571483766845,0.04820134243370147,-0.008378492928431576,-0.07724221531278473,-0.00974926257803354,0.05874629883822944,0.00043624523973600365,-0.03492194520547914,0.007399874387707686,0.015178069825599539,0.07973815653804173,-0.018859049795367032,0.019903245691009444,-0.0245070826374843,0.01819571500498655,0.014970601072791419,0.05303073265281063,0.036740087757072354,0.02859452597995074,0.027771411236435294,-0.00861390021011264,-0.007321579178882088,-0.025021577245644838,-0.04348805396203936,-0.039025486070108924,0.0068494879455303515,-0.017943955847876517,0.05626370637384069,0.055359151096887944,0.02361472582045191,0.07765422318129563,-0.056891792045946826,0.213983705325773,-0.41817554696614545,-0.1080557975417621,-0.32752029693828044,-0.13863361432966342,0.06938498828974399,0.62421276833348,0.48427949384082236,-0.08638629020808175,-0.40599769136527447,0.36779898257106275,-0.8592585790601354,-0.6446473292506336,-0.25974032593029905,-0.551024475716148,0.678023221970325,-0.42386750606167545,0.08266381632660742,-0.32853560692359873,-0.31034533767554967,-0.31170214525924944
82.40029907226562,1.9879989624023438,-0.30880510318583837,-0.020743136765307358,0.008755847616839441,-0.22517305797499934,0.10662777152422795,-0.17376569348648072,-0.03579323915965068,-0.12861178515768265,0.0626618463168482,0.13822633843412677,-0.07725923215068695,0.01662614992940719,0.10495902799715297,-0.07478037744386143,0.11965739361832926,0.008572882863212145,0.01734734722136261,0.003737995563513208,0.029489753879075858,0.005737440822280462,-0.05077183861649595,-0.03952117253731814,-0.017841850930888865,-0.0965404910817652,-0.011170682668673347,0.037770821596110504,-0.03142106054381354,0.03398802218057197,0.024700105888583027,0.06491399330511655,0.05219571645307878,0.03298625626238556,0.031816509545213416,0.04876754525539967,-0.09241026451150855,0.06817322282331277,0.08311651082038186,-0.039404326511485455,0.006901097383712404,-0.037867831455409326,0.021471819430697744,-0.015883960697736035,-0.07947539815381385,0.05410324823891279,0.025632579989707117,-0.0048789202644114555,-0.04685324440705498,-0.024936322415915563,0.032831993321111065,0.07456883918248461,0.024313687601893393,0.08367789853912548,-0.0030276798251583628,-0.0018384738397388247,0.049796493109873996,-0.04047434285304733,-0.044253587408763256,0.07402427105826641,-0.11265790991498431,0.06159258091266262,-0.03583164857122147,0.07613713638164321,0.04179704331547938,-0.00650996549311882,0.04111205556190363,0.016569958755765855,-0.013007963343197298,-0.009762555720932722,-0.07868281197701592,-0.08837933997427144,0.030935543816144176,-0.05289652867275495,-0.07351144849605176,0.036276082985967115,-0.009311745182376263,0.02282100391272063,0.010890505778006113,-0.007766162822709615,-0.10389690936857364,0.07243469454643307,-0.025968582719620534,-0.3182187189321917,0.5592862393888013,-0.30789716490944974,-0.0932243575132716,-0.26183857432082147,-0.20163720323377166,-0.6005795058834048,-0.6248495052683459,0.043787131084974625,-0.11331108810185585,-0.9788986574677014,-0.1758249780933655,-0.3835773879027017,-0.23639322767894733,0.0640454900596993,0.11223894113932618,-0.032616380630142036,0.07162217366400406,0.11360959970452891
86.23609924316406,0.9193038940429688,-0.08242922403840902,0.36799133137287565,-0.010810729589615639,0.1216394306638561,-0.012816965754423303,0.043359817049304514,-0.08332483255756629,0.05995369173241645,-0.14138083954796304,-0.07782087300203164,-0.0766113486722921,0.184957035896959,0.07897422276586558,0.002146488711249263,-0.15008170559088868,0.10366283938169929,-0.120126191350015,0.30914513309090513,-0.34301596818435987,0.18121276317160306,-0.05349409752676797,-0.006429784909551338,0.009537412338443248,-0.006633808702189052,-0.09601338019794366,-0.010664005503018218,0.0022588877606430522,0.03222766751874005,-0.0026778592347490165,-0.04349350831844939,-0.047202576591772585,0.025948294751601035,-0.05747584587765911,-0.09015606434296815,-0.01105156171266812,0.016533732132679856,0.0636692505559913,-0.04715518001500278,-0.024417019901620415,-0.005972521530654813,0.055387618991713274,0.03739067242730476,-0.05055772292372014,-0.016725272895082105,-0.048920104061598496,-0.0063380616965797235,0.08001332947891475,0.0037473505870551232,0.0245492684415224,0.07608449449737623,-0.03172975549682024,-0.03213755804008034,0.01096855891339097,0.03572254373933805,-0.04003332700143072,-0.027016506442788274,-0.0167637391698645,0.07012508359492489,0.07230117323982696,0.018108091456018313,0.05755705721696264,0.0004569017793064241,0.05060224283462233,-0.0927270683841466,0.023680639039043865,-0.007992394370703863,-0.0744016257415868,-0.02929196573416376,0.030932202142610374,0.06323235846212232,-0.03718797026968605,-0.004861626515553032,0.03402639463144873,-0.011566581294705515,-0.023987160588515688,-0.0453737879377139,-0.04208825240376549,0.03614533753928308,0.003916705596073832,0.06542964624871907,-0.08380802113875219,-0.022394161540068472,0.363669650789242,-0.4308293171093758,-0.3009807872017366,-1.5491795857343396,1.0493660051773854,0.22085560752183747,0.8920663486032023,-0.7786999351040682,1.1090707386952694,-1.275635276045768,-0.9465866581937111,0.9120177115966761,-0.18652900442639814,0.8692709328602934,0.3595414910151139,0.22979916736797967,-0.11781895645534951,-0.03503711067055931
87.15540313720703,0.9188003540039062,-0.015244934089304218,-0.009246370451102964,0.21628197533708515,-0.09347980185707064,0.18942277106118077,-0.15663911540444103,0.04816096871854435,-0.05553532359739978,-0.015656146999508732,-0.04666518137765369,0.06317916728601715,0.13148790697065757,0.09822276069281136,0.015497849233905157,0.06120439157792021,-0.020585571096238216,-0.0449270792820926,-0.04874985789480675,0.07724705323066594,-0.08263189599772404,0.028385138739147726,0.08172138755386496,-0.06043303168403634,0.035912649239431556,-0.04011202916424596,-0.014435665161182026,0.05848813933008663,-0.03445940495529379,0.00595060512354801,0.03826596206337007,0.014293723802938632,0.010639208172918075,-0.048093065666401306,-0.0031685667487521612,0.04011773773453344,0.04067209153526165,-0.006376153438832676,-0.021017180287278836,0.07308951485933635,-0.07631678658324562,-0.016090535625071727,0.01212420034622064,0.03830390331115846,-0.05609990383224556,0.0478088804639736,-0.04037787916563647,0.023093589581326828,-0.08031892580659214,0.03971437606208708,-0.03190569617218236,0.014543223377237893,-0.06193758573058246,0.033648027913983115,0.06371261290989863,-0.012088861794302515,0.01788026044480046,0.037447105443933634,-0.002796082128550592,0.015611168378343664,-0.11691671477640447,0.04104477202105994,0.19407676126760687,-0.22431115343598004,0.2468323778509835,0.20490948501233586,0.03387206420424928,-0.03025618367661937,-0.03861267840468004,-0.03172316126008663,-0.06595308974910649,0.04562890343542724,-0.005933093133844309,0.02894122932979555,0.024933865574898746,0.025244637507330806,0.013940883827930644,0.09663564405547961,-0.07191952475702902,-0.0998166457269922,0.0849547929291388,-0.37656309883556904,-0.30937287915396305,-0.04569437055538593,-0.11014639553045397,0.2793246338559072,-0.4911663058672035,0.11148601758640879,0.6412953892769278,0.3220657406173464,0.7560706761378463,0.0053661924806274325,0.6332228737432896,-0.41289957878175093,0.15977175674825972,0.8515859840836367,-0.4713479720934183,0.2123752072040162,-1.0917261311334778,0.05698273818135742,-0.41316659082983626
88.07420349121094,0.958892822265625,-0.32134668706173963,0.03110665346102644,-0.11165736693837001,0.06239031450144393,0.026509798210950335,0.07809412270650322,-0.0653542874071877,0.015496224266925818,-0.058265796320720736,0.037478573195515535,-0.11611857031357276,0.04507780206201918,0.2433201013311654,-0.15605883592192077,0.14329785777694362,-0.2265175488066686,-0.16895698799434228,0.5010158955015627,-0.3919117804167899,0.34803567342921415,-0.180861671084007,0.24188362582207767,-0.5258104262942851,0.2418716712383708,-0.08946656211363802,0.09973551757534381,-0.12818047364058474,0.056148119841090756,0.03332025978852131,-0.06578164947887333,-0.026254747977242688,0.03417260348060117,0.02944397714139261,0.0348732582644329,-0.0692206897240834,0.057863901893561,-0.031221923934855983,-0.013537370330970981,0.011359686739722125,-0.02654368616690969,-0.030436597445153556,-0.09120707755855019,0.038099408837108,-0.02677685048191998,0.02207954047077576,0.02348962244589307,-0.02455488131200332,-0.02964189447846395,0.04115553400277169,-0.03833002486108241,0.026776826585623803,-0.06728360081601814,0.0020423061929766293,-0.013315845090835504,0.0018880421581160267,0.09531839266940087,-0.04351215630347222,0.1295500206879555,0.018810803315009977,0.041689777193908796,-0.0279309296648854,0.02288673018484754,-0.06508847601708517,0.1072998514991163,0.09005203519710914,0.06606456706609552,-0.00887458176162394,0.06253196083806958,-0.022957706738875046,-0.05291684864132905,0.04629192792978274,-0.05873467157879943,0.05463130736548298,0.005622600856025476,0.007294356987547297,-0.006229405823777606,-0.021951919968676292,0.04694941461177017,0.04412560949828282,0.11742082044209694,0.10463891604955175,0.17860783977083863,-0.286331355879592,-0.4065691413542485,0.16976842102947742,0.9884821489950102,0.10415783956286664,-1.0005390943300476,-0.2588944790673063,1.3047870962746546,0.5939883115688874,-0.09679597405454526,-1.2215652187958002,0.06992385371651813,-0.22198983618061638,-0.3828957357363024,0.02349581088807713,-0.05298508535124374,-0.5466392128114823,-0.5658593817428238
89.03309631347656,1.8781051635742188,-0.4491152973670373,-0.05152917591858121,0.0534979131228515,0.025191893077441067,-0.044712975419402994,-0.0335730086391734,-0.054319412976725004,0.033916014318856255,-0.001081038505318357,0.03764380172541555,0.04136127821622103,-0.015221323580585129,0.12833802251456133,-0.20637720560121267,-0.03498849070251284,-0.003702167600595002,-0.027175619318908998,-0.007255048912607988,-0.02475483269637077,0.027722031651547532,0.022025774088306548,0.049306208048979144,0.04439222419245778,-0.00699863413260738,0.006646092073222578,-0.02298708196851544,-0.07361129302400175,0.026172183129525017,0.036270386930391404,0.06415110574320321,-0.07229195166418081,-0.02957123734167813,0.029590753565357203,-0.0216185811892078,0.03824276343779155,0.006262233991648268,-0.004454003173348271,0.018242731786421548,-0.05850354614038713,0.1208081782912466,-8.0815865680427e-05,0.014691021371249679,0.03640909141350748,0.03328150143955981,-0.025844491848855886,0.004848288460961067,0.014774423219331107,0.013751696660724958,0.02025695051261744,0.026980552796100614,0.08695027002991608,-0.015341691035046477,0.03402744965951931,0.04629147365415338,0.001238673430156878,0.002900717151214101,0.013451490888671924,0.05724096546597848,0.01929330602459435,-0.06373463065940398,0.019286001842765216,0.007141447174714925,-0.008830237540953249,-0.029823476756952766,-0.0520659438001582,0.02125080729659802,-0.017031143804843087,0.03982716768768677,0.0005693358011082672,0.06244390574872309,-0.07250540521152093,-0.011042432503460478,0.049440166824128315,-0.03524585522527096,-0.03685138553069874,-0.03546261955310695,0.05476337632525914,-0.006230807441731986,-0.056021675316151244,-0.005839031800046161,-0.09268708065788864,-0.05586030290472875,0.2024507844527495,0.032745787126394976,0.8846399248905601,0.13297045370007862,0.7816398906291213,0.36066581475041937,-0.11762384425239532,0.7563521190373225,-0.07921173500228382,0.6489320495333863,-0.2506208848427011,0.3428581304246077,-0.07043346886876839,-0.24464244291043946,-0.3380687333443421,0.09884756866837695,0.26456362277801715,0.08052270071686492
93.61820220947266,0.89849853515625,-0.24803402090264237,0.22046515347635956,0.13056694101856522,0.18084710212962068,-0.2938964690851832,0.22422865609399184,-0.2490812904598933,-0.06501021198887261,-0.15470575985066362,0.03087454368271725,-0.11329040299842993,-0.14836480429039495,0.20903951870834236,-0.17568946755558415,-0.1277787426408333,-0.05044272852398775,-0.01348154253195142,0.018184604761935143,-0.028401276166866222,0.07000224664837872,-0.053664380097383536,0.017953922472576666,0.07936248193009296,0.01943882121527057,0.012133147110856758,0.01851869961253927,-0.025819816309729238,0.05160925692841805,0.03530047859820677,0.022361556603724127,-0.04665394799878572,-0.034684703267967965,0.03587119479493501,-0.04135302666898472,0.008045005657637893,-0.07525134479504346,-0.07150893350041622,-0.014910773114160655,0.01395156753856244,0.047803099456800335,0.08577713273899455,-0.03901220661204571,-0.014211042729176945,-0.0020799565163914027,0.009627682910763116,0.036768159565637726,-0.051961004263642495,0.061668892411282136,0.027682340996134425,0.07301137671777468,0.0320284323836041,0.02264981578704716,-0.03676759032489206,-0.04997997260370972,-0.019100970589151254,0.013883805748546219,0.09375164945074996,0.02582333082169224,0.035635485078847506,0.029716854090598262,0.03505896625801483,0.009172390174151864,-0.04271084989811924,0.023520201468553242,0.03423222506151046,0.05949438984810612,-0.02430533842922327,-0.04645162632974126,-0.033427469482854535,0.03884506188082071,0.03290862504122368,-0.0001596346812924351,-0.012577734814157165,0.02160727098877928,-0.06629484415235622,0.062438192553751166,-0.04805226337467503,-0.05585546308092551,0.07687789542746236,-0.032461966664610674,0.2022038292238917,0.46237976634241035,0.18334112850245077,0.2735983382095839,-0.8501070787224076,-0.15294454898058368,-0.3180107278455481,1.1412487659674095,0.5175233481628763,-0.8309903496143042,-1.2954588003338243,0.7305285929230236,1.1164655821118856,0.7336554300666603,0.06246756018306253,0.2005050840147881,-0.024134953620037865,-0.7941944490792412,0.06960714195465095,-0.32004657111482837
94.5167007446289,0.9294967651367188,-0.2362183955017766,-0.20054145139907686,0.199724242719189,-0.19374013539732154,0.14798360328962964,-0.21734120414167601,0.08632151823063987,-0.12937401120295616,-0.002375381404117048,0.03406918801701555,-0.022300453536107486,-0.042752334088141296,-0.03899274974786078,0.2273541823438795,-0.1681297461697703,0.03307365628134036,-0.0025615872173287793,0.01099751685043996,-0.0230233403839684,-0.0002500987476455581,-0.035315009855874595,0.03880218664076371,0.053041174456788354,-0.05436166334239277,-0.028114242802310993,-0.08144114641370444,-0.035309439845385565,0.011576811341352685,-0.014686937759181777,0.04619870407891461,-0.12269701861592594,0.14876757776894034,0.10337048025244336,-0.019077593513113902,0.04278159025249338,0.06029509726442417,-0.0026951908368693447,0.0652851486633451,-0.07701383181997556,0.050119022213180695,0.006814850724943949,0.026756972276798206,-0.0755033352493413,-0.0008592898365907767,0.033471819295284325,-0.09009609350624245,0.12126763762798282,-0.05292838952417502,-0.010635603080132797,0.05146519256503624,-0.08998434988211393,-0.011861732020622445,0.06245945397848119,0.009325747732107509,-0.02913018978422549,0.07243863093177234,-0.03373775265779359,0.0028104419720334575,-0.11618715800113104,0.06848370760812647,-0.04769733567682306,0.020388430662307683,-0.03730372882047062,-0.04541851344591156,0.044321354208025986,-0.09509667997315058,0.05421656597003496,-0.011759644294025089,-0.0007373623862101681,-0.04107548054274636,0.06808014459272363,-0.06704190792543432,-0.004238389753400646,0.03570684216140188,0.06847500998249174,0.004225631515822473,0.07966312203718827,0.037461954126575374,-0.0006115893862810862,-0.08528722269391249,0.12650215399558457,-0.07536317455568631,0.23071438355190793,-0.10375791168002771,-0.08067146339755576,-1.0681781425310495,0.1688807428257062,0.008627777736201131,0.7013872358468509,-0.584458670692114,1.0306588740227542,-1.268056822037614,1.1332914287320586,-0.3718366771858209,-0.14339943835457009,0.026095893171956902,-0.13986142260183723,0.6551176166763859,0.0577201077522409,-0.09434911226242258
95.44619750976562,2.027099609375,-0.08811377982427422,-0.26861979912720796,0.2007339030882656,-0.23523120942077008,0.10577953907655634,-0.09535652719025821,-0.07630060226400509,-0.1384822713746765,0.10619717020339531,-0.18594721457096453,-0.11517154670248522,0.0871865170157849,-0.0016842961799884426,-0.0318426808466354,0.0834663047909042,0.007225297637039246,-0.03987600001435261,-0.007342732821902473,0.05691654147533594,0.012952958042354107,-0.023717017670871383,0.045111879400354625,0.005181038805030069,0.012865051157538537,-0.016462788276705703,0.1264023467978454,0.011928191098822247,0.0202410937009135,0.017240106279035085,-0.009491925033266423,-0.045329605185318124,0.000266749130444825,0.05568860627277364,-0.024989563731651235,0.01519812384274756,0.34504090886718286,0.07691028539354407,-0.07614150749900414,-0.16155251353823347,0.0007797980193604837,0.01573006333927978,-0.0792216377373791,-0.0230201543502144,0.014611675215908795,-0.04493875163716752,-0.08733827711965803,-0.027677324322715906,-0.07888980913617466,-0.010710696696881962,0.0010863622435128562,0.03888179480790889,0.006449639774878561,-0.001957750038287902,0.0016790432928277495,0.0009754155120367397,-0.002998652593832026,0.008852174337469258,-0.0016104596269014282,-0.005357925715766477,0.06708128479782104,-0.04484371000683589,-0.06623406662272165,-0.005719717364104343,0.04522035129793332,-0.037653645773155976,-0.04520060952703153,-0.053987237027962015,-0.005448113388487222,-0.0770371209481515,0.04509680877668272,0.03736536234592551,0.04664343399382931,-0.042241324384324694,0.006619726015453363,-0.05287849895002128,-0.01865376227418748,0.08224504080547532,-0.014449907958547503,0.04517836298739548,-0.005363277660141048,0.11132630365286764,-0.06624106889816939,0.34869847613508453,0.175601628497412,-0.4333256413654902,0.24539801788428242,0.5171477180106545,-0.2419218150993319,-0.17934398952478742,0.5891578155639854,0.3098772811017186,-0.8707234510832066,0.6709022456528242,-0.1916593810391476,-0.16787213383749827,-0.6433567057127879,0.18383282198305012,-0.39994202612439855,0.0837178071160184,-0.0838518977320952
99.3019027709961,0.9387969970703125,0.5090655900145031,-0.13572471261142086,0.2968761153863442,-0.30340292241286504,0.3174095664547141,0.3615740778592197,0.1463583658711524,0.32540032629186555,0.2099608900768722,0.009325522400863595,-0.11091382776694773,0.04596037762072175,-0.1200166509036836,-0.13144478136512816,-0.02536000649551406,-0.07229781074611517,-0.09377091586539978,0.03183316910224436,0.04027042464483447,0.00434490292108931,-0.04850155603600963,-0.03525089888907327,0.00479308691834595,0.024288189460545746,-0.06936487640724266,0.004613349714622181,-0.022785942116577404,-0.006320993811576074,-0.04632003152728381,-0.033940091751875026,0.05013554185900857,0.018831248020710106,0.01925074369127422,-0.022833327048069785,0.00505238727492361,-0.08241244074994125,-0.00047091725598394016,0.017947184811544406,0.0823872088319532,-0.02944024811725372,-0.006666614718290206,-0.021583726924651193,-0.031969829207412585,-0.09672584379929174,0.046459774586983915,-0.019892022901384684,-0.026269159439312604,-0.04526767707957942,0.015606265066418532,-0.02900911796223992,-0.03874412699874394,0.009513109058651586,-0.003511006056854818,-0.07729173638489291,-0.04523133138366328,-0.00013855083197198206,-0.04344501104580055,-0.07470350424012738,-0.052420927619077455,-0.060191342150241973,-0.07158355359192162,-0.019608310017583803,0.05309597467663381,0.004479434468794814,-0.05143295266936075,0.03421440524901604,-0.03706065782414039,-0.04067440092606085,-0.03412585918608219,0.07183108047320076,0.08334804228683242,-0.074402807165826,-0.026299784200206143,-0.0008164642337005203,0.016184173303953674,-0.0026323027529361574,0.03778732496888799,0.07060804619989124,-0.007503159013552444,-0.06675862456761994,-0.06236425678615976,-0.17808721185900359,-0.3032063767568294,0.7784383262778855,-0.0691472983057754,0.30210177022506457,-1.1304439705969846,-0.027014505682907673,-0.3594306294893652,-0.4775515492905439,-0.5186728294579556,-0.027702990478500864,-1.4142967310871946,0.2587702103125209,-0.6674148150440657,0.28950122595013383,0.20293912978887388,0.06781395739182931,-0.4754853412987266,-0.06757071835480243
100.2406997680664,0.919097900390625,0.04436038670484872,-0.15919141429139708,-0.0464541484937121,0.034573514033628655,-0.13201372475295722,0.05016305410624306,0.1314863682743835,-0.09657639589284621,-0.00980679170051717,-0.08084143192401913,-0.021370811448905198,0.025213041603849257,0.027753915889481052,0.011341270189504274,-0.04588016765141695,0.04287918379802712,0.05300787769340182,0.016642520067230066,0.05278912442115157,0.05309692984621898,0.010083720194764272,-0.05556595627616834,0.05573116710707734,0.07207124721286005,-0.04462688771161421,0.0042142546317285035,5.6864378073593486e-06,-0.0018314928183862213,0.033126047463870614,-0.02319527474093557,-0.06908939691713711,-0.030540637325747053,0.010496367382683832,-0.029171195627297697,0.0062884670955991855,-0.013949328045656429,0.0020437032546247735,0.004342480996107444,0.04964555845030068,0.017867329955054218,-0.10140685128146296,0.014505311125114259,0.012568066447465071,-0.00025726745320949623,0.0483498310192087,-0.04973942440572294,0.038178685626916724,0.03699861203151252,0.030930332529354378,-0.08195225455791678,0.003685042767144805,-0.002065066336040717,-0.00691443443696017,-0.04133007715482084,0.0070785287178030815,0.030488305452297176,0.022277424949086567,-0.035191929126766774,0.011131614823070549,0.013518465572073347,-0.009421232628471193,-0.011078518422121268,-0.03952088266737425,-0.01830714748109058,-0.028282366603657835,0.005332362837516168,0.008950143797648743,0.0338891450691851,0.028412436567839684,0.05331401619495246,-0.009532308717977526,0.03674416837540896,-0.02964986161160811,0.018937411362926322,0.02330321911665416,0.0003980632918656451,0.046682067807049366,-0.06046709362426559,0.011946147839161095,-0.032636505843289636,-0.01753810970827797,0.18036400825589602,0.22075286270135397,-0.5200157815896246,-0.26210368565122,0.02639748346561055,0.49391840486016353,0.4373257635433563,1.0681897797961053,0.6902395666876495,0.2956607093893634,-0.7051617543073054,-0.016356469172949088,-1.6138331934185748,0.40739079825981844,0.03373524864307038,-1.0667037090739682,1.097055633572574,-0.7406046339879021,-0.16009807365517031
101.15979766845703,0.949005126953125,-0.21243137359216677,0.043656585996697486,-0.04982654893493595,0.25320579533431564,-0.4135616299479846,0.17525293331778435,-0.02807791383916681,0.2198237176725446,-0.1281082733969635,0.09734467823779755,-0.012981740737339688,0.04346501035892705,0.10546126824867454,-0.06832397957897897,0.0016757490721424555,-0.012442408592531958,0.05584010670170532,-0.005747460945728364,-0.022371195296702857,-0.014738642843370483,0.08920271833791,-0.04536258446983005,0.015050536541732232,0.013675210818777782,-0.004932676812054203,0.008540631217601471,0.0006643790821221445,0.029002876288875733,0.013299146437130972,0.07776357428224129,0.0368544249324423,0.04649346146273134,-0.09218333084410368,0.06915865239316436,0.054337347568171976,-0.025933817863083367,0.00798087020635681,0.04635145530563991,0.06847667047070122,-0.04635196880643651,-0.003087667968976811,0.00252702206934078,0.02791359113893247,-0.03806175024214964,0.10781017692399751,0.011077383897548872,0.05773990573640092,-0.0031981710109274114,0.014925630866446158,0.026008649787531007,-0.018381061193189854,-0.05930080628521202,-0.018913008749431533,-0.0015809610375506905,-0.00953294836936805,-0.05220564515375802,0.026967592093062962,-0.022305836727356747,0.021398534397973044,0.014665291432099489,-0.041810740291254034,0.006499664594298524,0.04945573721577398,0.059400495375930173,-0.03397714682143505,0.011095106448147493,-0.03238777721739149,-0.09313957121085437,0.055299090028967955,-0.01896853528934871,0.014468052968979846,-0.0219936208377327,0.08420210448501389,-0.005228958302838793,0.04088725580483343,-0.060315213841036344,0.04843896058992156,0.029916999629478337,0.0371623476730375,0.053403840733502767,0.07241972442654011,0.15671952050384982,-0.19880871900050195,-0.3716804558620257,-0.6684393006406779,0.6732492479194581,-0.29679780395411215,0.7307918229632832,-0.00478867477396858,0.6689574686317965,-0.028851857842495,-1.3118796703993143,-1.8460179703367388,-0.15013602739095627,-0.5866962607039281,-0.4867215080086678,-0.17718932534398968,-0.27045430817240534,0.42031508382590943,-0.1617726672481969
102.10880279541016,0.8986968994140625,-0.21422365518752845,0.10717745016745193,-0.04413149647977356,-0.16078080866008754,-0.20102181020852133,0.016075808589828745,-0.1859608721194751,-0.11076985715404312,0.02720446365876724,-0.11635240396801486,0.13122884220636202,0.11491061711541284,0.05344899932066001,-0.08567621884871927,0.0311450473065699,-0.06458497916039015,0.07167556069057648,0.0010711349132728996,-0.009032883145345928,-0.05088195182564824,0.0660632510178401,0.04075217737278837,0.0328217314864803,-0.021759716704536462,0.0005936847759435874,-0.03286215218850139,0.017904760286710494,-0.03420163843701471,0.005163146660977964,0.053393538223301173,-0.00664533516636675,0.06317426346005008,0.03462624279289227,0.0419278558487822,0.060932174315144,-0.0759687440857787,-0.03854964433334381,-0.11986100256654833,-0.008117767456506938,0.059004248378194346,0.02464873452750293,-0.02663525183619951,-0.08645167187428815,0.004225966308124093,0.011436284704484413,-0.04812488449089296,0.014374448978242232,0.02804329633602204,0.015702016195976234,-0.043316115720426644,0.07360837150492686,0.0651606051196674,-0.04638794688864713,0.06793398629940633,0.018417230046718507,-0.007753211270478112,0.02553832086106714,0.00231003151995602,0.04628617125115861,-0.010895642978419617,-0.05244943120807605,0.05391016819658062,-0.08099914492405366,0.035777440246588334,0.07746785218633094,-0.03707085808480144,-0.026396314102445112,0.01284281856302305,0.0534960761127918,0.05027113735133451,-0.04015739547988982,0.0009542563923720174,-0.01197244169420067,-0.05391526697504463,-5.927381799575022e-05,0.02138919176509428,0.017487601395765457,0.01992913537605031,0.03457921840235984,0.027082805987432304,0.003198057447276609,-0.1515758502821597,0.3345492819209358,-0.07451907967440721,-0.31397688705827215,-0.046895444021880714,0.654722785713094,0.17310102196705507,-0.9800121063759428,0.7835122578542981,0.2003006151884969,0.40645982804151776,0.03826152837385441,-0.501496196674003,-0.07247570636907119,-0.5116842552242201,0.010537163480377587,-0.3511491114513016,0.14639985101844427,-0.21698419049000606
106.96330261230469,0.9189987182617188,0.17833183158761046,-0.011802410942393583,0.023476564597067432,0.027910381745366884,-0.0037261451831722414,0.07323216881187716,0.024499695347413312,0.02143481836513496,0.12145521006384306,0.0318688282728692,-0.03563244727479449,-0.02925507130880045,0.02498767933463623,0.07104031651494802,-0.07749543585567795,-0.033710544987744534,0.0030869250496613704,0.0052907709144022555,0.051701894019617466,-0.0007964022649021591,-0.006045709623619375,0.000601720305694279,0.013508696425860507,-0.07269638905001863,-0.13198786402719928,-0.11204394923315816,-0.06424619963267438,0.010765615289971508,-0.05204053786630207,0.03593071992133892,-0.024408369177901106,0.024470855167190622,-0.06553628419761558,0.06211631012190218,0.01020587222138769,-0.03661592731509535,-0.034115685773521566,-0.041788487594514284,-0.03600943520287389,-0.025116008821358247,-0.07076767921616667,-0.0258160947136481,-0.02180853470288621,0.019668906556128317,-0.00891958751356519,-0.10367891792130465,0.07223387690755524,-0.04773339245487279,-0.0052444358621371,0.013529755654862786,-0.016261654799982272,0.0006655120787036018,0.037450000203714556,-0.015535140051101681,0.04242261594785561,-0.054320482406224294,-0.012983816266922625,-0.013456907221557676,0.09515351602494737,-0.05498689770411627,-0.024932400153145816,-0.027231675998804855,0.05312570593520548,0.028797525805592403,-0.10055899300105953,-0.07449843083008206,-0.07651484773646511,-0.047844241388306535,-0.06676683082463804,0.06846766308519961,-0.017881830669711694,-0.07525785013048904,0.11343419344686127,0.004504093158521705,-0.009771160125368269,0.016845542536873842,0.02460488088483943,-0.030657933690484335,0.07690143401913496,0.04498852383029564,0.1518221684166286,0.21945968072816835,-0.15035819164937198,0.14128642728774404,-0.2594250243823712,0.5166566427762656,-0.5340625616681738,0.24261460900112453,0.9622206775423076,-1.3843566679508723,0.40549735861768055,0.326341957367307,-0.7334882952558602,-0.13090746942412287,-0.47622495099191176,-0.6976381477078089,0.5994541632474301,0.3001291471323943,-0.30107585253380165,-0.27022789259227403
107.8823013305664,0.948699951171875,-0.2754082695104769,0.11874346147880396,-0.08002825724432752,0.0008143917040217439,0.013326505545187373,0.18531540374824643,-0.1373422290502283,-0.02620310298327866,0.004503517751043998,-0.05755880341690657,-0.07670804836891167,-0.12883700260932737,-0.18172451525303504,-0.12295124570646239,0.08413904921630645,-0.03167953413930261,0.00906132178990952,-0.007614283818268944,0.037262962116531184,0.02969646973837151,-0.029771579760516677,-0.03467795219667934,-0.04512751630062459,0.07575254826708493,-0.07293863376993359,0.03424993599775336,0.03634822307698859,0.04010214704865239,-0.0051348973512238515,0.05549767121649371,-0.06025041617956831,-0.02663693242752424,0.007065070982106049,0.05999233368558231,0.06478126442502498,0.057097936906338416,-0.020721858226093952,0.027944273222114815,0.0774727040944104,0.00015639825833981685,0.018179221458330688,0.04555030248253844,0.02580711629176488,0.03341425397492324,0.053816940100029825,-0.02393558716444583,-0.009307229851490465,-0.028325795300177814,-0.03282035231882161,-0.01778022396343299,-0.01389225096462394,-0.022398764870859844,0.020083099617781642,-0.03549986140490496,-0.012724930483395616,-0.062344426341047865,0.009340880820257786,-0.0472065041841623,-0.07071690955385476,-0.0887736375663439,-0.030471084100698348,-0.048798565676619526,0.029317648334456357,0.03618312128088304,0.001609120493544322,0.05782086581213499,-0.007163001757076237,-0.006810547321266323,0.038395735352379834,0.06506058287324636,0.0195348529828947,-0.00856061696852871,-0.011924872019718551,-0.011103128861850456,-0.01566934790122367,-0.06880946587907319,-0.0152742774889075,-0.08888087221960499,-0.0234698527304006,-0.026455590263942317,-0.003751911853133172,-0.06371930442034962,0.03510109955976409,0.17767615569921055,0.22177804581590446,0.23495572075016155,-0.8773246336871736,-0.9278063952249118,0.9392179152664002,-0.3763817719689962,-0.23469619510062867,-0.40517970703737277,0.4752935946938284,0.5221112270402373,0.6817477908552341,-0.09831729120972814,0.19238572338696638,0.1332745889120781,-0.04294075366297622,-0.23382285932966232
108.83100128173828,0.9292984008789062,-0.28933057901325576,0.43527844374170704,-0.03763533543632045,-0.02016473746918081,-0.07853954162007239,0.03781388164882061,0.17825567965282987,-0.12863872205924137,0.021718600648263267,0.02788577857523085,-0.0266500735831129,-0.01679158565983968,-0.03256218715477163,0.01540373514203255,-0.1586938651339363,-0.09707592956479437,0.003990615330540764,-0.006597504947933222,-0.025935547502790396,0.051166743484195996,0.04741952090481291,-0.01674394529769008,0.023682545101514914,0.002662577201012941,0.017655225073957462,-0.056718567246324285,-0.058054520315786645,-0.019572617270798506,0.0764425391091573,-0.0375693720505796,0.06804525562431164,-0.07778130178153868,-0.0015570243963525174,-0.0051968806776335474,-0.025494959312552537,-0.012687357428742496,0.04526626381778043,0.004363731245485279,0.0614033457512765,0.009951933473045665,0.08507288733346628,0.0450355482230272,0.024349925244944753,-0.000967488507981222,-0.001257960727887996,-0.00955901716941444,-0.0009223994313159595,0.03165055598098522,-0.07921112528797251,0.03573485693071067,0.016811757193633096,-0.033743856161374444,-0.04650681883847989,0.051868870009376664,-0.002025863304144726,0.0028826063018869974,0.01154603188256191,-0.034547912386994,-0.029100728078746627,-0.05764798971320072,0.023334817042737755,0.044022000738120015,-0.011601152540217617,0.002717213792245694,-0.008199627991214611,0.06054100779899751,-0.012914582319446748,0.029450380845379157,0.007915293902162057,0.023214078717001034,0.05789283945863995,0.004795700535120956,-0.002100157870501635,0.007638144968777873,0.07063084759744635,-0.04146583780627819,-0.03939183430927372,-0.05940680872291825,0.11468477710990257,0.02895081862343392,-0.21578366399429474,0.24088514060697566,-0.0665617568436088,-0.4936481093340049,-0.42725926600995306,0.552232670544278,0.13683341271265967,-1.3450558107760813,-0.08545733662118075,-1.1719483065201628,0.47548846540424033,-0.24128325614730975,-0.4601249587425966,0.028024841371114127,0.10034804467226072,0.018179336718536304,0.06570711492580518,0.09441606652707152,0.1346901585058573,0.1805767575415272
112.78700256347656,0.9385986328125,-0.21918309804036828,0.09488964140303321,-0.061993919827608414,0.05899065593989637,0.00834130542026244,0.15502891936354934,0.07465527870952965,0.03991662366331889,-0.041857789181597674,-0.013559358924294959,-0.01233425296409467,-0.03167309951028266,0.1337168865177043,-0.00709434234696388,0.022034436443357588,0.11291204933704083,0.028063449001446916,0.0005221019748978331,-0.019085498676783982,-0.012638280787788078,-0.0011627059630512533,0.03974799642806373,-0.039466134770752406,0.009726886030395555,0.03710375093641002,0.004132768789700427,-0.04560115556361196,-0.0225018381542992,0.009948542813379148,-0.06031265614274001,0.006482621806819255,-0.004812140370742726,0.015808553065752972,-0.020554382799226386,0.05414574911388134,0.005108532674339103,0.001280394977596135,-0.05428235503035459,0.05599206233576423,0.06955693273996502,-0.015927178857519243,0.057291059637540345,-0.040261852882935295,-0.014543895550582525,-0.0020525450899209347,0.014140021768000565,-0.008469140455773225,-0.01297386237118808,0.052100334852124106,0.03384054707533686,-0.0743563568248264,-0.027499006336676,0.0016070501327391795,0.012224830364741594,-0.13618205691274635,0.07758328693824862,-0.01511599751633206,0.016999836132797323,0.0861208742514174,0.07266095274497693,0.08096577527340018,-0.009714423459327333,0.0023711997165423715,-0.0033696695802212535,-0.05692957665640239,0.022065780911718354,0.030319698430253464,-0.012593160281591735,0.08861447221772793,-0.040335155762652675,-0.041450251957702106,0.00036500944022742603,0.0018445296489601635,-0.03210307380610346,0.007799762982113221,-0.0061121130615057855,0.0691688871055526,0.04308084914130927,0.04849987526393074,-0.06635698371498709,0.016546443789764775,-0.06437573975262835,0.12489252172365506,-0.020332029810275515,0.4982233250549242,0.2987559343549762,-0.2942764677854778,0.29941576010746335,0.729491620392444,-0.31151644939353085,-1.4092983183926584,-0.476102253501149,-0.08404278686725015,-0.9516356818591799,-0.40405174549237177,-0.815405046025058,-0.22596340136823295,0.6020425541187233,1.4119168976443288,0.1548591876693555
113.72560119628906,0.9388961791992188,0.033825646126381004,-0.02625905023673615,0.028694642471352602,0.014585869129939033,-0.12168098507784107,0.0499034488298611,-0.12965552503648942,0.03500541546961239,-0.022433407389820813,-0.09242351697492168,-0.08074082779060968,-0.012015269446699181,0.18123307196082872,0.00228850191957429,0.06974784593500945,0.03066464558261226,-0.0081033001690424,0.020297294408895723,-0.04360287495406498,0.014127370547407939,-0.044489387161305585,-4.387152737360053e-05,-0.030770597050036066,-0.021622135245915133,0.030468281635936095,0.0534566351139882,-0.029481728096061928,-0.02433255072335668,-0.05095235694640169,0.018709737721805758,-0.060915966608644075,-0.038278543051963196,0.017101457852380795,-0.04689266401443132,0.015599038787956876,0.05349197758746434,-0.01622213255223845,-0.08184727011013782,0.008252154316402673,-0.04651582407385708,-0.022178926855129576,0.023336837297102828,-0.003813515447165662,0.07025858482990932,0.03624477871315071,-0.0912850245123721,0.11885041141847712,-0.3083390315050678,-0.2799712923704449,0.08272032875803201,0.07191663374243613,-0.020164864902736918,0.11538817428735179,-0.0005429544091031802,-0.031806106941429345,0.022372128917091408,-0.059404973714475395,-0.023524785696973187,0.02065467325223449,-0.026183827930351494,-0.03414531535610971,-0.016651655582926514,-0.048836567825036314,-0.011578167270249478,0.01664469406915479,-0.0145025094827409,-0.023300295845391325,-0.03182387969364839,0.08923554724967868,-0.026849186070198254,-0.02194747410429905,0.0665302593678409,-0.005288066178265573,0.012935113953013376,0.009710991305396967,-0.01635295967040693,-0.014299175738394022,0.004306057810758004,-0.013593696301145063,-0.07908339338251552,0.08771523428097143,-0.00661826715978843,0.04201667350722736,-0.4503966313417661,0.2789780728147844,-0.49774948694911453,-0.14208401397590076,0.8523512836521564,0.6166703309473891,0.7601373413806977,-0.08627788198981529,0.12757993296380188,1.8857471249861404,-0.012454922684495011,0.18687568632778156,0.08536541171548903,0.31264259623632756,-0.13100810308523353,-0.022598795960469605,-0.5196473470735538
114.66449737548828,0.9690017700195312,-0.24648120035321874,0.05225248938126609,0.015547383586374704,0.079963618296002,-0.15958832678865723,0.09954254593647699,0.06908755008208997,-0.08337185556896075,0.022811478504375118,0.01656150103993258,0.0272440460406639,-0.03999516580465448,-0.005679250676501941,0.053231426589489796,0.09261855152792532,-0.03083414148760015,0.009869074931545187,0.039996500023302586,0.020497252859807,-0.0102282005460393,0.11699212890997449,0.013391146376245059,0.03557842110956049,0.040480605504360986,0.040958104547560326,-0.017824334870921096,-0.050384689039283705,0.03493643613278337,-0.011314376732333308,-0.03264383984045442,-0.05676478974015714,-0.01831034201519598,0.0037042847554680193,0.01904376379395619,-0.004617272949648671,0.06137555549021037,0.1285831381895702,-0.15599383493960833,-0.02089670526344401,0.04809492181135824,0.0005562528161838567,0.006610951043392377,-0.013113169118991942,-0.07479837466739489,-0.015074890631789645,-0.036389520872018175,-0.04486481717681891,-0.02204176435743104,0.028552437260575766,0.08390897499539673,-0.04927433746418484,-0.029180270419817134,-0.025581393189952777,-0.027260117734819744,-0.0002304265163343682,-0.029072288776924415,0.0006479457093258659,-0.0048182109030784764,-0.027079190173906337,-0.010760288040677652,0.10536617633238794,-0.028644254311426358,0.0004497764947301863,-0.02663342908839953,0.039719120122551854,0.09038129233089717,0.016964160547881545,0.030229526657254435,0.054819748219448516,-0.010220567757787699,0.06871670320721085,0.03510993862631435,-0.032061850795662775,0.01208620844024372,-0.07623605881615804,-0.022059500876962186,0.013760853481313194,0.03210358214033051,-0.1061470119323718,-0.009433280143568182,0.04001696272331629,0.03179567497274651,0.16350640560649163,0.34707519579559604,0.026064131913803922,-0.43449979156920027,-0.6983011561248162,-0.3656350452415373,0.34458575591867036,0.20819625438929393,0.3587277839940466,-1.6454616185251387,-0.27510342210604927,-0.5655248747605085,-0.1333220932601233,-0.5935626858933309,0.3777522949845787,-0.21612725668524183,-0.7461982720911543,0.27484342819043206
