start,duration,0,1,2,3,4,5,6,7,8,9,10,11,12,13,14,15,16,17,18,19,20,21,22,23,24,25,26,27,28,29,30,31,32,33,34,35,36,37,38,39,40,41,42,43,44,45,46,47,48,49,50,51,52,53,54,55,56,57,58,59,60,61,62,63,64,65,66,67,68,69,70,71,72,73,74,75,76,77,78,79,80,81,82,83,84,85,86,87,88,89,90,91,92,93,94,95,96,97,98,99
28.33315086364746,0.930999755859375,0.1237489425356143,-0.09908383968367125,-0.07695160882974003,0.04231855334060999,-0.15279288443379654,0.3306525892708802,-0.24333740246369953,0.39630474415963324,-0.04954695680268396,0.022362377545483633,-0.5916602442442748,-0.08821298636190546,-0.19265242335550486,0.1514470832697976,-0.20831960709202435,-0.024780350737910663,0.028074456725931313,0.053633134433670474,0.04662576505721859,0.031622514957313407,-0.017307383479131595,-0.1976076700184298,-0.19745218257787733,-0.407801997574558,0.23582892627457938,0.004766383496612513,0.024734076101698876,-0.09164192922069528,0.13826491404805283,0.0050940811110489264,0.05378337593420039,0.3575459059984141,0.10220823892699814,-0.2097176046623186,0.08219324682696132,0.4660364906186612,-0.30028123537434015,-1.356801543043467,0.040352974683184065,0.006456142058627892,-0.6529191479011152,-0.2627651229818052,0.5538833736793356,1.008334743638075,0.02225607425267856,-0.501649474732766,0.6882526664473045,0.041013342456249255,-0.7365128781410767,0.15098715715652455,-0.13676646993710082,-0.566878419333679,0.20485900139125343,-0.08881314893773996,-0.08547728411491701,-0.008543864504004614,-0.07946422218221631,0.012395338862112725,0.08606896529111592,0.002128150392312511,0.038176794185843556,0.019232989628777085,0.0014430210803294333,-0.19876172277527676,-0.29310826713493093,-0.05859577062393982,-0.21450715046281232,0.20285709789882667,0.4684747777710485,-0.015525769914765196,0.09869958808757234,-0.10019477518755207,0.11544458465015794,-0.09902244727577778,-0.12650878380095965,-0.37354841728038096,-0.23628901770722305,-0.04467809629719933,0.20978860542150726,0.10297969249574568,0.09030542245622344,0.21924898820298716,-0.04326816736996597,0.04572183284148701,-0.30614678863949063,0.31162185142712934,0.11816276883677189,-0.19355890105309415,0.1488102777333901,-0.006227180667948245,-0.10298458606035965,0.1403770817461822,0.21194612656933087,-0.14492451920664648,0.3664393561955274,0.1522860441800351,-0.15074455410403528,0.09440847644275584,-0.009056003259949354,0.19948739353671718
29.264150619506836,0.9004001617431641,0.21073831710911273,-0.10247072954165001,-0.17812046550584942,0.14951878749268568,0.4219818306547295,0.21661799075761248,-0.058850538011905804,0.21848413554624035,-0.015661503248013225,0.08251362869608889,-0.13691963934549642,0.21496922328736578,-0.2779533797518622,-0.3423740574433747,-0.6669634884615288,-0.11282321623063607,-0.04400288228635972,-0.04331227426957167,-0.08020303774476092,0.10308833398964216,-0.05768266969412404,0.3025712282260904,-0.4395722298034396,0.057581768297677034,-0.0637281168553478,0.1415585572722549,0.16072329960954007,0.048388059214449594,-0.33848718218291335,0.4347861798310281,0.03303445543346922,-0.22400532416338187,0.41748134243859003,1.0173926978820702,-0.10574653924239337,-0.043455280324238094,-0.24158865647974115,0.002198525955915582,0.1429821781811152,0.25646519656669586,0.37477725491003794,0.1283527696768518,-0.28535368170936753,-1.1993259024825595,0.2883958634675179,0.05520574802577169,-0.4004739313531966,1.6089726303482048,0.492303668892008,-0.28059825664650284,-0.4206385806525264,0.09025337997083074,0.08383013257829879,0.10663392094873125,0.026696711125893228,-0.09352836727145514,0.05590963656380055,-0.029771423961714123,0.08324134963941819,-0.11243368307526039,0.15878110788175587,-0.5471104336188588,0.3659810469975918,-0.3324231733900808,-0.6347011384301784,0.15852674180250678,0.20510496921586457,0.4484176470565235,0.31359193385944084,0.2818845010359686,-0.16525572628538243,0.34433639485821116,0.07928099549203822,-0.14059408316847635,0.0633984080174066,0.066648178651592,-0.0680373924854594,-0.20216949742030088,-0.01387720439397718,-0.0947760000702724,0.2309834696902259,0.018966620366663606,-0.06606445658860377,0.052275582022662026,0.243677901274735,0.0017531685503153344,0.14069745053670604,0.040155898568816156,0.08999496664349026,-0.09130314444306652,0.015850885262592332,0.08552960129385402,0.05898836297403902,-0.05250781700645076,-0.03711383181809391,0.025089936373404897,0.0520811959514188,-0.20941977239897133,0.08134573457464171,0.14233812875301466
30.16455078125,0.9006996154785156,0.17779576990407028,-0.48905387487127605,-0.10892544732802517,0.14601872828193563,0.3319851851675537,0.3814071520499972,0.2496472003411961,-0.6146209247518853,-0.018068140441078476,0.4221955367004264,0.6121952812923157,0.09969523510854306,0.319849667588608,-0.14146038066450567,0.026249746189095233,-0.005736417548750597,-0.09384985534760863,-0.47922181084659804,0.18706409994477877,0.2808646684253985,0.053395824128745016,0.1179403831527958,-0.02208280505777773,-0.24816769605915695,-0.006572210764920091,-0.23166204417023709,0.2569946778349185,0.008362694057075477,-0.06133446580744886,0.13077057219041177,-0.07863995235954652,0.11178224012490076,-0.7689943227132325,0.1663182028403075,-1.3910548056937453,1.0784491300993164,-0.7512739125659231,0.40930068798923436,-0.02343021056444225,1.0339825423201054,0.21294198783714194,-0.2880530525138416,-0.9376525258891334,-0.29271379474234466,0.03537298322576097,0.06828148705449799,-0.21891497624513984,-0.11923806810883625,-0.16400888896062207,-0.3676475052030718,-0.3311819485824733,0.3587832437255735,-0.06474038295866989,0.06077278315145537,0.03923486433017502,-0.1010002032030076,0.099963920118623,-0.15283069830652107,0.2887780381904589,-0.07224318392322533,-0.024006225517616563,0.04606678499451709,-0.33093358496683406,0.19251215163815436,0.29632119223399667,0.033102880378741026,0.4074033825012795,-0.17887106488677645,-0.14445189020331395,0.0550823140586843,-0.4421723998721023,0.047613902689704474,0.3541519858452608,-0.10364490169570181,-0.10045879092918027,0.03925308705988725,-0.32764876329814197,-0.06499113583293585,0.04175576424254536,0.12089772317251826,0.06569693006529312,0.06713361616433128,-0.009189308069550402,0.07482098407892249,-0.02629288158063972,-0.219760017562011,-0.07570993028398422,-0.05754229612589951,-0.3450001733265249,0.13190654526153295,-0.07652485314595917,0.1767121647407933,-0.05832635584464066,0.13238652837015344,-0.18528976986717643,0.2388181082659802,-0.06550779930741026,-0.0859155435134286,0.595613727456852,-0.3840424206738836
31.065250396728516,0.9004993438720703,-0.26987906833803454,0.15514611189207575,0.11476493826295524,-0.4445124153520589,-0.20356767333942588,-0.15470619891209803,1.018472197657416,0.1395462341409045,0.289154577979951,-0.7882579633143372,0.3274237011234626,-0.3950474429832373,0.2826924131119163,0.30228857920052765,-0.25774952271122925,0.07379839250384543,-0.6519405213954783,0.29988608098250363,-0.028762691862512582,-0.09473337782443554,-0.216994573846421,0.06005213964843809,0.23906231827719643,-0.06950458013029104,0.026610256325825477,-0.37834073699439696,0.35316233573567346,-0.1533351278761862,0.11573984027581057,0.10908818684122666,-0.09221374781766252,0.12045664599035692,-0.15275299348440688,0.21575245075536953,0.016875136076727623,0.9815148217696827,-0.6986175835609416,0.22055982410132605,-0.5359594751541237,0.4178099171099792,-0.17692407643969424,-0.6722932244496471,-0.13111061786658285,0.4234108361464605,0.2395849452412367,-0.7642500289600788,0.6537843407664929,-0.002264216185255411,0.5861376112847083,0.028878848216754016,-0.06578450501169594,-0.06352572707228418,-0.00699106953128416,-0.027436325293409253,0.03420915318958303,0.04275514352644227,-0.09783316072135859,0.3723755510482022,-0.31627831981863513,0.007294926851956457,0.03743782561355924,-0.5314019719094212,0.18960400012473178,-0.6236903702327936,-0.07241487849800562,-0.07950090500926789,0.008031080988318104,0.23289644033362605,-0.485957820525731,-0.40776398409224107,0.009022426173871043,0.4955159218611899,-0.2414253558111548,0.19291368432836742,-0.23647558749464187,0.21469130630744596,0.24379533764732148,-0.18421177042903364,0.006651390354104244,0.04732817231907388,0.033483901639879354,-0.254326084954211,0.008209488464613956,0.16253838466058707,0.07662651363915945,-0.010676094100776683,0.15816776453525544,-0.11070757060057071,0.11586128482612656,0.05899176448701222,-0.1725200988053945,-0.02526085220682044,0.10520919113861171,-0.05544646341998644,-0.013147289533261119,-0.03930446799464708,0.1881129497309081,0.04418519838135681,0.044031809594864066,0.2539302143834527
35.6380500793457,0.95050048828125,0.27860315990271234,-0.19863224998360246,-0.32246853817707033,0.07773083797790178,-0.7325190217623329,-0.3351499982735653,0.12359196881839561,-0.3606961445844209,-0.8315398313737818,0.2436911274164521,0.2831969979442581,-0.15310273579061542,-0.08354572478314323,0.16297845084778617,0.3608028386627828,-0.10347979917245581,-0.17657443526137834,0.052732547260729165,0.3975176196436653,-0.2363455374227114,-0.6499009528574649,-0.08112770438997825,-0.15313263643890912,-0.0075049262309750085,1.6737473122980182,1.0027620997731015,0.5724952620746144,-0.16180986333325856,0.08023148784070558,0.3618040592121874,-0.10108526616833069,0.2776703188792034,0.3957232792976752,-0.16826145080090132,-0.06409921265650874,-0.02484456703683907,-0.23610573827349862,0.20559890347998738,0.7340000253603336,-0.016169622581132276,-0.1705895550823437,-0.215379042390913,-0.44241590497150796,0.2307883503582954,-0.000364181084647891,0.029671363895564518,-0.16717807067518664,0.17486026476625555,-0.21615680612695568,0.17940813788011095,0.1389615988795973,0.03578402156692698,-0.0034653482593078474,0.08887423459097704,-0.0023994136657919853,0.26989149656521716,-0.2921518972714792,0.07450161226542693,-0.2521733099832892,0.31018526773461474,0.4012717915357432,-0.2862351147515184,-0.11363031124975648,0.3569724065599377,-0.3380696592149398,0.29949579810301025,-0.5409271239069373,0.39996474647213975,-0.07256163949679813,-0.2502024339437769,-0.29774798179201306,0.11057174680634602,0.0035786702766336387,-0.10605488723345019,0.010885504172856693,0.043152181715214864,0.14399255768515395,0.34197605125762065,0.37128659366819833,-0.10744191410059081,0.05147434601875066,0.17781266554281394,0.1327200084077933,-0.05011247145045819,0.09587173522972092,-0.005711210889956208,0.22223672401151454,0.09353210227839777,0.01828847752929639,-0.16280626545832205,0.07263457982036926,-0.03852010889954094,-0.08869127678210378,0.009327195126321082,0.06629569063317636,-0.07626124210073675,-0.28746129810133947,0.0474590042374581,-0.046302529586999146,0.20784727440709966
36.58855056762695,0.9501991271972656,0.2244324300374266,-0.10599080542180325,0.456671112931863,0.47096871393389794,0.31151338136199086,-0.1847124783013949,-0.12698411639703455,0.2016236879902925,0.25501623213259883,0.2312153830998699,-0.036771616742226634,-0.1297937120442164,-0.052738734337827775,0.037786202527932355,-0.01899475067017161,-0.13629862313799584,0.3448237127783077,0.6005092294180258,0.19824461406697275,0.08476587502668556,0.03709996230719024,0.13054188708285397,-0.43786200851588114,-0.10852630029697713,-0.09885127957807449,-0.07143262597335372,-0.02016318402861604,0.10894760420956572,-0.09564720536298955,0.3365968099363335,0.5123868764899128,0.1659015218835517,0.12977505947255377,-0.10182638548473402,0.08932841208576962,-0.22393130495910962,0.021588777335178583,-0.47166696693711935,-0.477569718429437,0.11128361511863831,-0.16951147321713017,0.14158294735781535,0.17557346574866303,-0.03925682209661983,-0.1881921410143214,-0.12172528879673845,-0.1527838377598526,0.0035808335651671963,0.21592658869851936,-0.203525619534425,0.048639420628045875,-0.017511224173091845,-0.03597414933173079,0.06995179413416887,0.0077727046317708215,-0.02001085666094478,0.11240821019465318,-0.19663637056562303,0.04778276099964431,0.22265635442443332,-0.4196872959734857,0.03346029374720289,0.05443836698702717,-0.19127184781231477,-0.21688339965994088,0.24297231833145394,-0.2339777260152051,0.33111685918046135,-0.07802556269647476,-0.155580229597942,-0.09778708474808787,-0.1674809592669158,-0.12681427896612318,-0.11411725324926274,-0.035890279342228354,0.2014211128195169,-0.10650446414569702,-0.11492592534004267,0.07188462953572904,0.21955032071775896,0.33482426536519067,0.15808763772220677,-0.1619809971631666,-0.09321294298934299,0.12556267342811808,-0.011603294723461072,-0.2767507373886004,-0.0009127215946072654,0.09455567255898059,0.007257545830055923,-0.004862153683107595,-0.0485959597526634,-0.13669271512878375,0.2346871808804512,0.15340612751607086,-0.024863919585925792,-0.2602060439502565,0.2120490159544027,0.07478640908575589,-0.009244589886637226
37.53874969482422,0.9706993103027344,-0.007864184292157739,0.042766921248789565,-0.11853236826610328,-0.0669759956966649,0.10201159459867934,-0.0925199517088997,0.16527007228423826,0.005649479511457913,0.035814726352608225,0.4450357725816226,-0.09056537749986673,-0.336812671708373,-0.19943041533416953,-0.46633660758394613,0.14309483049003285,-0.21514633893507956,0.542070629400983,-0.33160656300755026,0.10574729843846886,0.12916029575584342,-0.6433455720214291,-0.2571467262816667,0.18581137967920455,0.03411959750064775,-0.09459338660459914,0.10694090527501199,-0.08241966410648821,-0.1304421503018685,0.26369704138132555,-0.4219480407324733,0.41643897065322844,0.36092321946176864,-0.1195925501096633,-0.309907327424036,-0.44622306721042454,-0.47406538590641806,-0.5993197894178541,-2.147464385718332,1.6097388060481712,0.1653181158906486,0.08686463531532582,-0.4248519609922328,-0.21774595958412196,0.21506270975774566,-0.3531084617851369,0.20607174690484076,-0.05836082356909597,-0.3160629819091625,0.210681615145447,-0.4697804509270334,0.05664041353708055,0.09507597275067006,0.10639987093713921,-0.050052199924478284,0.033307299976394124,0.1776126737426197,-0.06336655042363823,0.31744424104595664,-0.03644035721076892,0.2523230228662052,0.20446216302544495,0.12151343236718361,0.20607149658848944,-0.04690945436770026,0.12704862532078218,-0.3602189645284607,0.37730451536582915,-0.10853488246977472,0.3449242787776182,0.16453824637376763,-0.007198405941533467,-0.1127642708363714,-0.24714367280195754,0.2728829793316619,-0.03732899849178576,0.14239916482460796,-0.044141486456569734,-0.07549300004104474,-0.002911063302076209,-0.04921057472748883,0.009359028604973852,-0.015649538470261445,0.008634300425908917,-0.03221254144719622,0.0007398337714728783,0.03534239980112061,0.02104683696679194,0.05328220789253408,0.04079823585851097,0.06432541316087305,0.009159475795788087,-0.030922052587645264,0.02046309572520654,-0.023284359472958385,0.017867355924554018,-0.0014477854279818514,-0.037364684356702496,0.11326179071895852,0.2702668911820374,0.05146955448000082
38.50944900512695,0.9210014343261719,0.07268931108216647,0.15180163284605547,0.7567690255237014,0.3225311270471587,0.28575533151489874,-0.7145513112774704,-0.17013532545770482,0.6578964354412243,-0.4340178671911287,0.3222619817992208,0.03330429087256928,0.006211850630711524,-0.20215151003396162,-0.15792586226050706,-0.15211821350575808,0.043473951115382777,0.1124916453967757,0.011475991835835177,-0.2667796215676477,-0.35863148879358453,0.31705452627027464,-0.17399088935107768,-0.012124245232892628,-0.377438502801063,-0.152868376320994,0.23072879233397886,-0.042605391568741706,-0.44925151607867525,0.23193047765423472,0.18430048789465062,-0.40944007744908395,-0.6523249780423162,0.12084039766543722,0.21269988292855727,0.21593022094508457,0.4564769587407228,-0.2902209460973723,0.017198371310747754,-0.06452757269285002,0.25402043173149175,-0.48914142467239763,0.4011862751582189,-0.10566166818981683,0.20890453441905554,-0.02946944370002802,-0.12008332178438157,-0.5726833563372012,-0.8842230006443402,-0.1908504955197769,-0.47401377027375635,-0.01783165087939422,0.018139045884397187,-0.052305654905886706,-0.23388436782835081,-0.03923771341096422,0.011148043309878968,-0.030928748825739396,-0.026911040104419415,0.04433170116304916,-0.07018324606178285,-0.0584781874792433,-0.08396607515478165,0.4254307602127107,0.25835914546161015,0.050766304110654734,-0.16153129056419868,0.1267707129928581,0.3968397576759778,0.021545386927539878,-0.12594016293087215,0.056374786006363004,-0.002660196702043761,-0.0030318022955115285,0.11409979151374207,-0.24135501792301678,-0.2822971587947693,-0.1294605269580939,0.23334722938154376,-0.14811583639005838,-0.04604085501069385,-0.1286655278618175,-0.017518055634217586,0.04826437110819947,-0.02871069701791519,-0.020672229418948987,0.049949095163956125,-0.12797246882635874,0.08069059867971036,0.15439152938226328,-0.08522948777677021,-0.07466958593322845,0.009511009578740093,-0.03192619098504973,0.0577207437278113,-0.021738634750592387,-0.11936693469631598,0.027844994734077085,0.05582209983157642,-0.0937849561258166,-0.035957493514541874
43.2723503112793,0.9709014892578125,-0.35328500026640575,-0.15267786657957527,-0.05627054953750965,-0.2799662515857919,-0.3219937463998464,0.06320691643394748,0.3009798896253645,-0.20564250114458707,0.11461076453513047,0.11504871288179917,-0.103030510649671,0.054730087352689236,0.0027761248887358224,0.03068427718329398,-0.45506413185943484,-0.003218461094393048,0.1239075465007061,0.1655002238904126,-0.05182403630529158,0.11707223969350555,0.02538711705839071,0.0540985807171484,-0.03659141475845563,0.007478524586269422,0.14419000563901901,-0.05453930315004155,0.02102223598880481,-0.07375103840339783,-0.5431514148660924,0.23123324033845483,0.852944749203059,-0.285343551768516,-0.039142729142026156,-0.490926893892601,0.055134457341281785,0.5527534329737965,-0.32618159865686375,-0.23750830135685946,-1.2068891928630585,0.9141637458926891,1.0943805637569117,0.26749346684321607,-0.3953701714770153,0.09347119444717594,0.035859561814443386,0.1382267387132952,0.2496674360851389,-0.18900376091636809,-0.6704464322292607,-0.5082212819398514,0.05458412183033412,0.19035647028258015,-0.187478154864315,0.2089278000978069,0.0472492870588905,-0.12739523098211425,0.029401427223211166,-0.08239213889450556,0.04305034593407284,0.10211568616351402,-0.4697891524980432,0.2256221586266617,-0.2234471983600912,-0.11971322672967223,0.09703798240393878,-0.08088031100633061,0.17942066986927718,-0.051226401067993796,-0.191547627383056,-0.254590448226963,0.19418178999399155,0.1006850300293884,0.28681161540702305,-0.32729382948027164,-0.01536572886929477,-0.0686489853562535,0.0691613998927421,0.00361640667253961,-0.6445409137976171,0.1444334585950684,-0.13648040646510637,0.08034829597081682,-0.2087450566370652,-0.006182532946195252,0.0389111711456837,0.058504874466068724,-0.02864193476799805,-0.10031984255884141,-0.05765993533211453,-0.06960997133610665,-0.10617452078824237,-0.10728581043492207,0.04231317867590475,-0.08221557866939455,-0.11715356719939402,0.025076089951307667,0.013293739829370183,-0.3297268840497553,-0.30432874953622974,0.3306622370392396
44.24325180053711,0.9706993103027344,0.20870302182094763,0.0811542474441999,-0.1731870438723798,0.31671619711826104,-0.6169668260173802,0.1928206730406816,0.23084128928498604,0.6383263491808221,-0.4086056012089892,-0.7323488876896788,-0.052940636194864485,0.04033196913245552,-0.19299208804180842,0.05385116095385539,-0.17637645845012553,0.036442721025219255,0.5206001027030405,-0.39381031155531177,-0.04480876385080297,-0.1414279105662622,-0.0880915991385198,0.24742518793704754,-0.1500081553894794,-0.39526188292857245,0.0504213933725511,0.031263462060596145,0.4347329283066104,1.0586243394353219,0.09264705474799807,-0.07123594899379178,-0.2878318432252829,-0.23549866948906817,-0.04460816240164851,-0.14534883477609256,-0.031971895691619706,-0.540523238396115,-0.5296746794998084,0.9828988700301097,0.6544337226743548,-0.5000012443127497,-0.5499636527352796,1.3896868319998157,-0.1733154296154454,-0.23473732550508103,0.14976641878285613,-0.2659697082285058,0.1934541067105634,-0.7794429011397541,0.9027239055886425,0.5677430136711981,-0.23933727893007428,-0.26007094044833745,0.08231338335302762,-0.20669698205454534,0.11270345142838753,0.08045008981456667,-0.11287255028973782,-0.007857056372146034,0.033714595699428,0.03477452097413235,-0.08990563054118755,0.23244254913111903,-0.14627183804738994,-0.1142648156109579,-0.129585521602464,0.32682121057875757,0.10205398594140891,-0.5082486257964978,0.33842886392116645,-0.21078222741579808,0.028570367329567282,-0.3138987546601319,-0.07743003588499639,0.28835986388854407,0.11952681109997378,-0.016720186866639813,0.015442523797444735,0.0795827652753674,0.2374932883895683,-0.08565539496200089,0.09351497247434906,0.12424797642365695,-0.0037763903113778446,0.019234175427008983,0.07923802683384241,0.07192629380240334,-0.05833394497492519,0.00990927000529868,0.14988291010675373,0.006313942171749844,0.1408136259377426,0.1193616076623821,-0.054194830345649786,0.04527564741667151,-0.01588934479884437,0.051768399496073966,-0.05514812901797595,0.05648630103643649,-0.22975746100508365,-0.11899811002982454
45.213951110839844,1.0006980895996094,-0.25135334511196883,0.46658645243955565,-0.0026244983462537924,-0.6277202655954052,-0.14569594757897325,-0.1476062335755463,-0.07014233906199394,0.09162397033571691,0.02136384517076756,-0.2176149820922829,0.046129046165444554,-0.08156027645685224,-0.10766366462066163,0.1636864903352401,0.21931979634754048,0.6463578304634021,-0.33090223312403827,-0.007371869597495362,0.17262039137428817,-0.028012061799369076,0.020117492291468406,-0.09824368925525134,-0.06638831926231412,0.1932893625096244,0.4874133499221188,-0.29432225055967715,-0.4104389486788544,0.42760953511442285,0.23530005729857084,0.04432748882385292,0.014204887982209174,0.1260591173647635,0.4474485409079713,0.009857581450493591,0.23090178911349635,-0.41387243722745826,-0.369786319348225,-0.024746741359441642,0.013191881153103468,-0.10432312051686896,0.8774944521356258,0.9927010509945255,0.06622325196862922,0.5696932235288192,-0.16486157494835507,0.4291883894565478,0.044693630279074026,-0.3907000309583828,0.11407534102766573,-0.16171973295066935,0.08573059550269388,0.028525654243295312,0.2740419105416113,0.05882996561170836,0.025918257801270397,-0.6144616572250851,-0.27918683648391374,-0.005498405735018773,-0.060166666362642195,0.06314676533915053,-0.03856914308089912,0.15780578275771637,0.05342243021427256,0.07526383161419617,0.4074407038238579,0.02208568285320689,0.12538275509317043,-0.0344830785358341,9.261834838057703e-05,0.1744643081583077,-0.2644621304044388,-0.14677493919215018,0.32016957932416124,0.002936126803075141,0.10277071096814155,0.13737540350828045,-0.17467274999964674,-0.06047372751517208,-0.027957203790899613,0.16665962879549986,-0.0360475020050999,0.07748672572990369,-0.1194107995570493,0.013089199638501874,-0.05086757902181602,0.22778502336645476,0.09768552396353533,0.08163906008825582,-0.056925789086580345,-0.19344033074204275,0.066380809399418,-0.049196096293594456,0.02211675084706228,-0.12072419013997394,0.11827314753042757,0.13617021212214203,0.2248751867630816,-0.046596624798779615,-0.17501595721559274,0.13559627508405087
46.21464920043945,2.2514991760253906,0.14663143032395376,0.013834531755287087,-0.22611594600485,0.14396236551565103,0.002939155828211207,0.35895443362236445,-0.09431799118908052,0.3177652282812224,1.0255721978165449,-0.2334992157976588,0.0047929789672410406,-0.011155149613790605,-0.06686270855967348,-0.025726920601938912,0.011442194677647032,0.26135055478537206,0.02383552124964377,-0.021112661811633435,-0.06026343194359711,-0.0036604255232283176,0.1693967361087811,0.049983737437103555,0.0027656466669164076,0.09740853788587063,-0.0334073937081747,-0.10172937986527363,0.11678567966984833,0.022409488761393204,0.20597257663085333,0.15226796491572936,-0.06131742141936326,0.03683650056290912,0.1545827257767361,-0.03584223575078464,0.5742270239842239,0.7342586018542245,-0.6917328906440036,0.03876529960895932,0.15377479639898986,0.08214548334801784,0.0401967810896568,1.273746460480844,-0.43780824507785276,0.23828811848596465,0.04393590218491631,0.0795938681622306,0.04846654654078997,-0.24817011346656795,-0.3872220221360111,0.13337904027841355,0.09818893955638341,0.08645247635237535,0.024069085509993454,0.14672435453562105,0.01999003002606958,-0.0607571332375542,0.174078007042826,0.06317578671107689,0.03290460753977868,-0.1531775360101063,0.1514134778139155,-0.15114536189801642,0.1961435444943412,0.32224856354239595,-0.04177577569428223,0.04601394442292648,0.156438212396314,0.1242205341224431,-0.12558747101613918,-0.2415019561167837,0.18187481336442582,-0.05851278525479897,0.11277172069599918,-0.2178138899427273,0.07133514487933582,0.0663002696225882,-0.1269661961437616,-0.2720225473494754,0.061445550319208904,-0.047853239445682594,0.05672351058021359,0.06073950524061912,0.01976203490090679,-0.027480429114371697,-0.03270034931087611,-0.07209564090769441,-0.059702819981640544,0.08080070079694741,0.09643217241444957,-0.055425739336869735,0.1838676924428076,0.006705616381226701,0.06196090992566014,-0.11167996598213979,0.008406549482404635,-0.0345882946667111,0.13742855354942707,-0.0983541666138062,-0.3034936693700132,0.07520911076435256
50.53725051879883,0.9902992248535156,0.3468147715726954,-0.12249377558175066,0.4474684966236925,0.28561190074681975,-0.34573787437443576,-0.2603536373128197,0.0203037837626543,0.12233814458687524,-0.5927856777788206,0.006624572952672044,-0.026128448286459396,-0.14131878441180484,0.11344392384694375,-0.17305926863947008,0.2120936612879344,-0.2116351393710319,0.34817585969636405,0.14676572659940085,0.26835646142413555,-0.027003666755394264,0.05527337705952812,0.011543214537754818,-0.06591434774977506,0.15083216337657235,-0.16111383501232812,0.009618086853962822,0.25823583285459906,0.16361664723472497,-0.0824695130814302,0.07358639948797291,0.2986931931175771,-0.1076965330594915,0.38415696789907205,0.34415029039311995,-0.4371189385324497,-0.1219705067953391,0.3717264828077157,0.09269835305133906,-0.08166509918326363,-0.28395270300718833,-0.4132027490204018,0.05294009921987845,0.37355091624913794,0.6267381699779024,0.3402615637003017,-1.1910003609015976,-0.13776152616655135,0.6004942418990864,-0.3576188772410502,-0.3148512269843979,0.399392000993527,-0.7593022907211615,0.20899268267737742,-0.1323541807211574,0.037974148546902356,-0.004055108791825193,-0.02686751957481072,0.016264874136045507,-0.12581290522047756,-0.10280202513097852,0.132689807327151,-0.5208277395556088,-0.33855558017764237,0.37738609003635504,0.2691994970597343,-0.05045950365539164,0.10444552740530551,-0.5089360587616526,0.10024986604795516,-0.1449127294141332,-0.07079334276486823,-0.10768854690336968,0.04360064763486149,-0.2212241098856073,-0.03332109209758169,0.07505835903840874,0.14024177478408503,0.054711451405118613,-0.15630126798763466,-0.03522206980007005,0.06885761897914167,0.13975325883656622,0.0262958176172486,-0.037617146013893855,-0.036897217799175916,0.13104088100093358,0.10042412942181198,0.03150915224225958,0.08342756103256735,0.004535781076715603,0.0018294787831592274,-0.14462866771271085,-0.0031027633011985007,0.06068608843553231,0.039570469385168804,-0.015231421171684353,0.003207409991954374,0.013644887073555129,0.027710623563122733,-0.4402828434453756
51.527549743652344,0.9911003112792969,-0.444150045816903,0.28943169245640477,0.29986209446023054,-0.281917300759437,-0.11805861186871297,0.13009204772256466,0.9574745316097263,0.15623554492335034,0.16190261667488579,0.18324866072577856,0.21051233261192204,0.7882353302544153,0.04470736420162463,-0.28672754466413475,-0.07666733556567262,-0.08116532115473243,-0.08561827396407623,-0.11751685026572573,-0.03756708358579772,0.20533845849640975,-0.15876616486135875,-0.001880045559480047,-0.2542976962053755,-0.11646584605299981,0.2528151953112929,0.537484573717503,-0.6070337137514208,0.07361527244383728,0.16376953580340425,-0.05297892089644931,-0.3772892509482856,0.5677528496244211,0.6136145269705497,0.36512611877058154,0.16783521090408918,-0.14060106218084598,0.2567444991199467,0.1588116196061897,-0.480823230875927,0.6242633379456206,1.329646663455988,-0.8336796670935018,1.5930875104630666,0.5271100281223065,-0.07445621533524462,0.596367991071654,-1.1856586931782445,0.3781530420068217,1.2585037306194304,-0.46091644234934026,-0.3638636283633031,-0.09848380316530636,-0.04420729210727526,0.023723193151839822,-0.03185180575892546,0.05665117051590539,0.011439331476007258,0.005436330541002621,0.07001897465444955,-0.15795074390997352,-0.06713054673020968,0.02677197204238531,-0.307666043897839,0.0487447198085661,-0.5076800764597111,0.3450890941583966,-0.3792846507883413,0.3434888490097022,-0.25471448264718455,-0.2697334246115717,0.3395598027123209,0.030786718700707056,-0.13238482056229142,-0.05559026162134139,0.12731056186469777,-0.06163643703815666,0.03446704164299127,0.11881792152148882,0.09918933946508274,-0.12770742235125493,-0.016371197158957598,-0.12210688283444149,-0.03974883687800112,0.10542856421577892,-0.10302720408083016,-0.03567939377917092,-0.10881942881008812,0.025715111516410104,0.17566971711821114,-0.11627145129361992,-0.026944889601494958,-0.05679489369770747,-0.1944273717788792,0.01834492466060619,0.03108206636851975,0.020548047065055655,-0.0610631714908234,0.026141904424657154,0.03075902922341444,-0.1082292040973056
52.51865005493164,0.9905014038085938,-0.22245948808606988,0.2292898619066314,-0.2825877065139134,0.3537681646005338,0.2529495172620791,0.0007140204854579058,-0.22013723906631275,-0.07371249681927233,0.3284780691513726,0.24485554707252158,-0.0929507529750763,0.44528571563541675,-0.03409001948553758,-0.16735889148545044,0.8601442927205798,0.03726535420515435,-0.5180824940092146,-0.07758880179368585,0.00839669559769585,0.030857193724902948,0.01343793250344498,-0.29552856249310205,-0.2148310266549732,0.016312410024480584,0.08051584746343193,0.0059279793996468945,-0.2076021662803036,0.2471499954766917,-0.128090623646609,-0.08559958036107457,0.10101469710331028,-0.03646485962215168,-0.030159675549424586,-0.5388356698566423,-0.0408834549989991,-0.005163395209905636,-0.026947160486615253,0.2787336980182792,-0.17365160698839638,-0.18136269967265625,0.947346599899741,-0.56382867295999,0.06149470104261706,0.17281446804532444,-0.667358562219013,-0.4072142630374491,0.3147815555839499,-0.2408149622249616,-0.5857120456040475,-0.17347348383130073,-0.19469714943769398,-0.10373678559909193,-0.0287118712139893,0.059248611976163934,-0.1773792058965937,0.2256560162626372,0.11838985913439143,-0.16383301606867534,0.09384360402162704,-0.05250781625153268,0.26309437240899236,-0.27162081263878457,-0.11901363177684102,-0.10626648468614971,0.30940192579995435,-0.3559554943225584,0.0788016485198326,-0.1326046104321914,-0.12599583402773257,0.2521943542125292,0.20652676513550988,-0.1026944138459132,0.12342217085161229,-0.48623808307605587,-0.2317430442557821,-0.1657169290646269,-0.07659222577666536,0.142437411488,-0.18811620263609885,-0.1820115876640453,0.03008283929658919,0.05044326918230551,0.028130866053040243,0.013733790226979946,-0.1704584790173504,0.11252437733032662,-0.17953371921633854,-0.07608330547747112,-0.08385904442388317,0.01295894790564911,0.03352324680468511,0.08389056691771649,0.1367598303174596,0.02281796079143697,-0.07168873840956322,0.10363785344588385,0.042116053091515816,-0.004418582878748313,0.017655876759492876,0.15945457594356718
53.509151458740234,2.0811996459960938,0.16709944576448477,0.10733528368752979,-0.3420002147933662,-0.13758192683150955,0.19840282126606015,-0.09457661093693007,-0.012219254962823611,0.5675817840058566,-0.7164349562156082,-0.525516437332894,0.3607041504716133,0.4492386052905817,0.23158357495558365,0.15034373960569586,0.028255924483522023,0.0023669350352979015,-0.3005994669375603,-0.26530197506716524,0.19705433756751828,0.2007540495732343,-0.48605283528250864,0.38652472755259,-0.07087050462780731,-0.135924755208788,0.057347030193274834,-0.025217089706724746,-0.35864513647317064,0.20276181195035725,0.22142274418643146,0.0016857832871373536,0.5384202657391494,0.1959289861272516,-0.18281001422832857,0.06634413367861122,0.04534662010766827,0.06107858696722793,-0.0014099772826174817,0.4434109784711175,0.28162360435156286,0.007279803866376722,-0.02547599261575064,0.8441299622602729,0.1912599581632748,0.19971898658704088,0.23282785781756804,0.7340766171178452,-0.4271506179911385,-0.3153543608317875,-0.0057809467067424306,-0.387269016132889,0.6073817982298901,0.8793621973657471,-0.0630881369762464,-0.1030835641521631,0.03612033960597771,-0.07587715248049463,-0.027878402577563716,0.20705647086934842,0.11306421325090145,-0.13901581148869172,-0.04000647410591204,0.19497770886220037,0.1818739653001006,-0.188137791808779,0.13805632719596397,-0.5928098210459775,0.3181258216567292,0.37425101870850275,-0.1608603249440177,-0.07210885522304492,-0.10632596632110988,0.15334103882337197,-0.10216048181936992,-0.6735631119952638,0.01113465723730299,0.12617096554674212,-0.22261788955481654,0.2319098099753869,-0.05983271543077208,0.10922754748453276,-0.14713989079779724,0.05587156379930459,-0.5410005057180002,0.08594776786361817,0.20420622391074833,-0.09735341803701182,0.007925223834662848,0.10782353715462915,0.0906856876841744,-0.01072981959720469,0.26158749174091467,-0.0870679943373111,0.0028632198824065733,-0.061871672262978725,-0.03147846057901551,0.026075779466943554,0.10026937376288031,-0.5326639240237317,-0.20417762778380438,0.113806260745395
57.521751403808594,0.9605979919433594,-0.33257395753442176,0.47753256282937395,0.01542542952704036,0.5393413724065763,0.3448899510651358,0.3284023440542776,-0.416488550035372,0.1257225460105102,-0.2222022049955076,-0.005188117913538473,0.07156075864321824,-0.02659838548967837,0.023777021007096923,-0.3654956287223661,-1.2395442206596414,0.770472576973528,0.43491660335315124,-0.018963616540370862,0.026616658388404036,-0.14560197892172774,-0.04265804456306102,-0.12868525433581982,0.32915238719556406,-0.09200188914230543,-0.15586789897853448,0.2017161646741305,-0.1081913600722934,0.021134684247923315,0.1654974040879459,0.019740275212437278,-0.13114913482976237,0.29610048244895026,-0.0254931360000218,0.05492517741156956,0.0832140983793468,-0.03826247921156925,0.47677467610855795,-0.5080624022685104,0.2214828099570611,0.4591568731060598,0.3121110798087449,-0.6543703898392981,0.7561009314568691,0.4383755619563535,0.40758348262140875,-0.8747285510613957,-0.18463791700871052,-0.0840943806645342,-0.0823852868305042,-0.16481697012533436,-0.07453675812212766,0.2511050043572542,0.17383399007540234,-0.03755075076107767,0.013974881301094276,-0.026799078190999602,-0.007278511216246347,-0.10917115236876107,0.1682699717553198,-0.2893859156670855,-0.08912397799163108,-0.10293886707215444,0.32305024271500643,0.01979772433048338,-0.3126409946106517,0.0731596816796187,0.2960611494448722,-0.18168035152574938,0.21069139439773935,0.012408956790280095,-0.3422283764844556,0.20599097583161058,0.035569483234760196,-0.2943644150484946,0.16180502861431176,-0.17334120535721437,0.009116433105487796,-0.15118883553804577,-0.04593833529777275,-0.03181446320114163,0.009021772206044332,0.12677048690432255,-0.0695446092944056,0.05036434570936214,0.2338702021431619,-0.08944616727283024,0.01952387420286271,0.015121761386614604,0.03500038002419823,-0.0639201827446259,0.004707978748999829,-0.1775162481227436,-0.03069402538320077,0.08243354054988085,0.12959716191826942,0.09398362252187717,-0.1988487450250372,0.08852251047918258,0.3635028684584938,-0.7433415003370719
58.48234939575195,0.9701995849609375,-0.5936201118391254,-0.09758920991542108,0.11663435000724741,-0.6583601913364838,-0.10971330886119299,0.2413977275779657,-1.5960585528131566,0.46331752234073353,0.5284778682285569,-0.29389817601659285,-0.05765358096534867,-0.3399305450181582,-0.021064058778696097,-0.40338158833018994,0.11233895382258881,-0.08360888702438682,-0.661871380320891,0.14432219194176332,-0.2281760360161313,0.22774353942961872,0.21574614386678148,0.3699018314904584,-0.19632760627559462,0.41858681360232286,-0.033701131714324165,0.5106665863909333,0.07185429035967007,-0.08854437531277573,0.07007030187507199,-0.18801438407986137,0.11353651102823137,-0.03496792684218904,-1.069054890519482,-0.08948610398731079,-0.011380274612106916,-0.18209733412050122,-0.38584825390643795,-0.7194762699416891,0.027275295338733796,0.09301587723120358,0.4207832039528127,-1.3958381701148261,0.10986700867189073,-0.576985721896881,0.19296918267734106,0.9077377144972958,0.4827293979433682,0.2617952912403265,0.12499594443644435,-0.2916864205451082,-0.1772288329724443,0.055852402542056916,-0.13073233282159125,-0.026483666137515988,-0.10415896714316619,0.17389359781310412,-0.01294297823026298,-0.07482966399643588,0.10544363285542821,0.2719532665237513,-0.5381374520216891,0.12447956421320598,-0.3729055417657246,0.19714787654898758,-0.32360257363444433,0.4189044379785051,-0.16645789994272145,0.012476749439665716,0.11013277827152707,-0.15128560331875637,0.13230584689116712,0.08541175428702688,-0.5918546620056363,0.03691457556028675,-0.2915071072507815,0.0008184662242977907,-0.0005700090000246303,-0.0036807229898572214,0.042189161784566415,0.2997199098611402,0.23580856637447517,0.1414129302846941,-0.03792919875190369,0.08048821599667477,0.0988935184522345,0.044869830761175726,-0.08231798597772148,0.034945359712953386,-0.020464165279748512,0.017511487089025057,0.09663165682781102,-0.14271133345556788,0.039240220988638295,-0.022278255040210797,-0.1506995686987067,0.24206456598368548,0.10145676152055466,-0.2105360878892685,0.11277956806563305,0.006733464391466659
59.45254898071289,0.9906005859375,0.040301337755447,-0.33586711657457236,-0.6953813140139473,-0.052996392401759684,0.48059018462107383,-0.7624996609888945,0.40061649910541197,-0.5315867830446285,0.15655713773376598,0.23198026236105984,0.05759161288020446,-0.060987681251347514,-0.05177636370426644,-0.0026410548695387356,-0.0027292164429100207,-0.28305116886765685,0.10755523209232902,0.07384245700492595,-0.22782353211105422,-0.16481621391826629,-0.22577304716601077,-0.11387727616530817,0.10718833960068552,0.16533051987202288,0.04350282375309848,0.08646342958696103,0.11173833880314162,0.1565830279943655,0.11895233241422859,-0.14705037152499986,-0.1073798450946364,-0.03468198361755417,-0.060653795090672626,0.2843404647423946,0.33359473937751405,-0.36279725262376683,-0.5454566154251477,-1.1794906758478731,0.4818494373854332,0.5568451222497846,-0.23982663910531585,0.6462250635729593,-0.9033182599720784,0.06834637011351616,0.17519752733446772,-0.19936148292732936,-0.6507425847817014,-0.2911028485815202,0.46100722339672956,0.03717989521955693,0.056527349885811935,-0.037712615527869066,-0.012594983691743045,-0.010412378873968849,0.01902583925590385,0.04252931071744262,-0.04684234965835823,-0.025113309985490335,0.06037190494101978,-0.14371858713402982,-0.26313113375556546,0.3308952671900094,0.191010105060068,-0.7004623854272294,0.3644275515264714,-0.3773155228614703,-0.4084003695794878,0.17905156319925397,0.12569171598631898,-0.005248731739925773,-0.09669699516345151,-0.022879435318516432,-0.10630352597619706,0.11710949777694667,-0.08644965342285754,-0.09835996511644639,-0.026054825474404183,-0.11537804919031978,-0.2560521862801032,0.197848014848304,0.1667236525978666,0.2116944093799526,0.08800250668740874,0.004400984174626957,0.02193725924921306,-0.04248043799397676,0.1139531730982492,0.007946827884217146,-0.061921596294420074,-0.014120391032041851,0.058879571912660085,0.013872819633450315,-0.07461479661968266,-0.022800981233028424,-0.01677954734114496,-0.23514682044427243,0.10161784593636188,-0.08110566078436805,0.07356423459009725,0.2001261617529077
60.44314956665039,1.0712013244628906,0.1796203087457106,-0.048637686358219856,-0.3552255632082587,-0.3920830608387067,0.2219747476267875,-0.030229471132418667,-0.057273715846240844,0.015828083317484073,0.33161202442445914,-0.15005511755048961,-0.7430544121969013,0.17795954755042048,-0.17683350591367603,-0.05305768354690683,0.025279478021957857,0.049620176192724214,0.12538860063249357,0.06639663182708624,0.261755448093022,-0.12102578858121354,-0.4066001861494395,0.0003547692532191661,0.107851292820029,0.05583295664393072,0.27909952201031507,-0.068265336652969,0.024964604967550652,-0.03443858229828376,0.01864588631407728,-0.06083642349826059,-0.07267744409734977,-0.03744142533263204,-0.13551893967283696,-0.013635618146710703,0.022427783484066308,-0.1883388746970164,0.5714761917544076,0.034304804139780924,0.33466833654175887,-0.3416126594915379,0.8254121987899778,-0.6180597201478256,-0.38714914620472574,-0.3807861001231509,0.19123479023210757,0.12467365608382239,0.16922532860073913,-0.5318543287342691,0.18493749915856658,-0.5070720867155781,0.12389627179292477,-0.02749189071561707,0.029474403277125104,0.4301832873724431,-0.018707887892713312,0.05545843928471089,-0.08625127982001721,0.1248348254376632,0.07168607733951732,-0.09186087941868623,-0.1335018780042681,-0.24283227346347042,0.20688681032095826,0.16915814826929423,-0.18460532997035273,-0.07676696867500536,-0.3063663062503523,-0.23152300738240397,-0.06942231492434384,0.007584419258223514,-0.31698042250333636,-0.007422528344036054,-0.4533300149005733,0.09035287496842981,-0.2921666706453047,-0.00771836734329099,0.0893527238939392,0.2587349710829098,-0.12625498513200506,-0.08816203668179523,-0.2792256801618653,-0.159991927924719,0.019822118712010256,0.008010815109365507,-0.025857543641996116,-0.09501545245608242,-0.11275525810195063,-0.09155660425125567,0.39975489356369376,-0.032823146438514327,0.05586196674881158,0.09900484582612971,0.22068085271092905,-0.005523908288291558,0.15699090369640123,-0.06056334917450476,-0.15841316701788988,0.3906269016231179,-0.09807093789588253,-0.2037118784245069
64.46595001220703,1.0207977294921875,-0.028502348766703378,-0.11916691843793406,-0.04149071259955192,-0.0705639053095305,0.46087716245591903,-0.6767966401256382,0.06658278611775442,0.03324939769619786,-0.3146740933886869,0.14009416430477978,0.12012125891832302,-0.09918824854948621,-0.0062213254222447684,-0.08003272548251308,0.24919222486627998,0.24318846765807023,0.20022549959870062,-0.10866960258506084,0.08874214384772902,-0.11073197708280204,0.19583943571502255,-0.12027187869851075,-0.2062937292138577,-0.0879444133975566,0.025184823939778642,0.18658008918255864,0.19588985229671851,-0.2883539119764469,0.011729736955471609,-0.11100142118172282,-0.9388541719570112,0.5026785931902428,-0.4023230165802363,0.1504974909994391,-0.5307400664740022,-0.28608577601934737,-0.5992709400776959,-1.6764961665770426,1.339881176424583,0.728265543348687,0.2265355998881237,1.2096814857241207,-0.18742001052987484,0.9763455427628515,-0.26324534878676886,-0.08887338263026015,0.8142362035778709,0.18437495903897128,0.6314687355786102,0.3519763196858572,-0.1636281289649012,0.13825703126601177,0.07076111635450782,-0.014363046358707287,-0.12874522177462716,0.39530962719060914,-0.21651849848631008,0.10928538465835794,0.21008911712078415,0.008251734928035076,0.22766000525101363,0.13389816253325376,-0.3631454909844932,0.22643256074878518,0.189565946118825,-0.21737346693986423,-0.10288232616870485,0.15497691916744283,0.3178886757420669,-0.2885500062555601,-0.04757007262474314,-0.5053211964213316,0.018155430751206823,0.23225883098940295,0.12479828194900272,-0.15464177742041288,-0.06700391032977998,-0.03548580820285599,-0.17271745528280835,0.12817790988893693,0.028012296537110595,0.010970621773641158,0.00027158191766177764,-0.018825634815594072,0.047530633341787004,0.10169420059730816,-0.1998153515588533,0.12097837703514426,0.08855049300518127,0.03332201060605724,0.2243548795329552,-0.09226315384382226,0.03657079888311878,-0.1381642600730702,0.33237024863010417,-0.06798830229697389,0.26635167209075206,0.03874259371977161,-0.16088698368388404,-0.06755453069848733
65.48674774169922,0.9906005859375,0.0849936636241713,0.03962251705940924,-0.007251760604587654,0.37593695308334946,0.1501766814742439,-0.6727879498154593,-0.5864988097419935,-0.34272832998779956,-0.047747116592653745,-0.5738102000213873,-0.012681813442851159,-0.5633409459085302,0.15365319636400487,-0.06968210904666433,-0.1885686803486504,0.4963145459093946,0.04384330874035942,0.10709675098883233,0.08470968151083969,-0.25917706013890324,-0.47801963005479237,0.09032345657134663,0.04039171221386136,-0.20407655459783008,0.06758989197108844,0.2912194757853868,0.017308420267146518,-0.32607992126905766,-0.21855275177896916,0.3688366979882196,0.3375404952325498,0.33485113473409633,-0.1184817933838833,0.07122578626516166,-0.3083231707059703,0.054353600609741946,-0.1117014236999157,0.0432662900854532,0.0804585852615566,0.0396245548893899,0.914974880455155,-0.47684241413718687,-0.7662629063564635,0.44118407790372904,0.4884387026731157,-0.15311505789700522,0.24698192885521247,-0.11072563754335576,0.2778910449818567,-0.12448771001252083,0.06575782472484229,-0.014687533814261994,0.217212777154237,-0.003165346414133031,0.12643270994883773,0.0015095046451866143,0.032082448860708636,-0.09714956276992333,0.18589283990532182,0.09430570430332305,-0.02804386955733437,-0.20042994863347963,-0.11725604438345534,0.13916474691817635,-0.10904316180388839,-0.14794799789170784,-0.12603907294287098,-0.04127339043977269,0.19176989045894532,-0.16836306027872144,0.07974131719650071,0.12660225895458435,0.43255216624321025,-0.15601920774269185,0.22079712373920785,0.0007226967702898908,-0.4007916618100129,0.2171775280475288,-0.03893004206442325,0.2052889983805749,-0.1940139569932729,-0.15398777885024095,0.003355593338675477,0.032879644990937755,-0.07781846641904107,-0.07830397576769813,0.14384603404638518,-0.12185494849777846,0.0027422384036118047,0.010244399713114003,-0.014047832122640672,0.04109233485620741,-0.07394627670193611,-0.040488335615312745,-0.052021202710010914,-0.056651758189563896,0.16673699755922086,-0.03720090668457654,-0.015676435963834206,-0.1314725860730473
66.47734832763672,0.9506988525390625,-0.13107233929216425,0.008540734076591505,-0.07094489293088155,0.3064132631425355,-0.1641848803772002,-0.36418015082130917,-0.711160573777603,0.15048273329961015,-0.16962985990379528,0.056504259749598815,0.09211430081162092,0.30564280737952093,0.5415984675062977,-0.22594831531735188,0.07190789647701626,-0.028088580204127352,-0.026395697936132376,0.024787119253861126,-0.13948356935585396,0.0803652560652271,0.0849296485983879,-0.03405521385255277,-0.13078773193825557,0.03959749056715849,0.2307490175761805,-0.5258519656671982,0.2745951513535266,0.03810812681115877,0.0795052161658992,-0.14064469868886706,-0.15755981065813357,0.1319191415107662,0.11661274526391271,0.06375921550394967,0.16026496776622065,0.0417683482285869,-0.01646066093560672,0.12714591495327246,0.7058831701743751,0.31283091144236963,-0.148932428776372,-1.378315085492553,-0.504626289474442,0.22873250430917377,0.6908440749833338,0.7678240829616777,0.11551949719659152,0.8164706518534759,0.016375286116534202,0.19273833712073374,0.5394449332922321,-0.28659614753810414,-0.07489439397528583,-0.5405870394200478,0.07516905413196975,-0.025764927832294136,-0.0635797311273038,0.03174526945442027,0.015387260758880692,-0.04570707443326983,0.0719494919619289,-0.03720087204741661,0.0021567561908707594,0.23967207216019437,-0.13233678081141165,0.15754213363866842,-0.25351221697712856,0.00034491306685247546,-0.08215953657524189,0.26898692749030195,0.12772199598864825,0.047517964489274395,0.27590596488311964,0.04430439624639769,0.14176457353112373,-0.26445593430765346,-0.06085268817645323,-0.04708181139503257,-0.13659091918581862,-0.17186049000218315,0.0657442395542844,0.14986344445319996,-0.13301652486443458,0.028976067357855635,0.024669687311402143,0.005352885810850184,-0.10003176716246198,-0.049127829435481725,-0.07945738113248287,-0.023651702035955697,0.019324239246022716,0.08466139573355966,-0.0002788863987741373,0.05589447099923374,0.006789012797101087,0.106942054713736,-0.09726322908525199,0.3794446817838076,0.07556430760430764,-0.0558659603721785
71.24044799804688,0.9706039428710938,-0.01956885574512443,0.2320509968151006,0.17389224627049432,0.04431495142501249,-0.3920375916479991,0.4821253321666824,-0.0635439637072139,-0.9792727531017564,0.5736138865338837,0.04857932606962108,-0.03613980078238234,0.059250370263614294,-0.17791182091011754,0.11168140531925545,0.4539136085451078,0.22603039187488072,0.12523564607823837,-0.22760514485645744,0.15525084763720617,-0.035076782581613244,-0.0668822886942735,0.058772070693348846,0.02331405836015361,0.22520909702798095,0.4446825734368404,0.5687852837337041,-0.06192798695510284,0.028322646092799685,0.7096892127882887,0.3994410516017528,-0.9193757268644909,0.07268952259818595,0.12882667529812772,0.04166323084107283,0.08739788604815538,-0.21103223546917232,0.34944569997412644,-0.18015541245740305,-0.17098386838490512,-0.06959285033794879,0.1943484752030218,0.7033222971635178,-0.8981252230918502,0.8373831955756839,-0.2689987690670299,-0.1777668870814362,0.1605404225888199,-0.07163869457561255,0.4425480831464697,0.33010322241457524,-0.27064022690992795,-0.8471873939233534,-0.020197708937765964,-0.12128599745381727,0.21000301537882646,-0.031817985856891426,-0.11912647257931264,0.044495645123747554,-0.202758832999458,-0.09424082334687349,0.04944913413067023,0.06753321188121544,-0.028550069793217732,0.22106440970143065,-0.4978322954629521,-0.19991080514187584,-0.33746624949768866,0.24380934348847555,0.30236450817086047,-0.31082015393215934,0.2515675375202606,0.20109372620419189,0.13706917904844695,0.07707115698014613,-0.21121696060026615,0.0372386713733433,0.38372068355318384,0.13515973444455498,-0.18266773290562044,0.2152847681319333,0.11016897490201111,0.01151584078756701,-0.1500236739423965,0.10105344291835974,-0.08590866723270102,0.023325343620636693,0.0439527415883328,0.028195089910588736,0.10528576637849178,-0.07738215772223703,0.04862298373099252,-0.10590161844890705,0.0696187438737701,0.08263354154996501,-0.06467121800281542,0.07236904065533564,0.10193109790978033,-0.026330941819827706,0.0822630555859971,0.02661980165220021
72.21105194091797,0.940399169921875,0.050054940506758266,-0.047519015103626425,0.09458341508267683,-0.14693905344143482,-0.12609560116090987,-0.2579917628828259,0.42565502152445567,-0.16522231279767668,0.08109527279603189,0.6643153480180491,0.29118242329741767,-0.028341115981608597,0.07577727772688873,0.18802191074788602,-0.1198408514184805,-0.28894146658722303,0.3741566604027678,0.5004754571224889,0.5524208421082665,-0.028269445434085837,0.0590397340196838,0.3773186107690334,-0.02602082245153152,-0.023936094060535262,-0.1514326386979613,-0.17009128921022934,0.05463850764836153,0.03543515875772982,-0.10366159990262366,0.024910490445145584,0.1949333712147115,0.018475235795247152,0.045520468137439624,0.509025194973736,-0.08382484782657171,0.19684269780780705,0.08368120667014883,0.15552975314631887,0.880995977006351,0.6509677373827841,-0.7944219477060956,0.9382770782548201,-0.3201148324507237,0.1352239650856214,0.8432281736393977,0.7111290400927621,-0.07505006803071528,0.0033732075034137547,-0.06090676456570071,-0.29955595534761154,-0.025493887315817282,0.16133313132369803,-0.028156650767230274,-0.04383600330638461,-0.019086792187840484,0.02653550344169616,0.043211217518332054,-0.015120396601016776,0.06002022050401673,-0.03478269385749703,0.3155853110733008,0.5843105360341276,-0.9482745007295034,0.4852270749518047,0.25004301461499895,-0.1510897716035106,-0.20223601668695462,0.13794696412052987,0.11258982602776342,0.3570247572647323,-0.06118470982002535,-0.09277341934560007,-0.2508508391180467,0.07515977824233161,0.20025469954870298,-0.19728813096460812,-0.08940328125826862,0.2099847545329267,0.1019469162792959,-0.04913911069263975,-0.14656142099704983,0.12105586877096992,-0.05104272309562507,0.004770376414266158,0.045437043942957715,0.05689305700027231,0.15008459011573944,0.10152605944708595,-0.01928868153713852,-0.01040442941748604,-0.11572370133749538,0.00403261721062303,0.057141266008831834,-0.0009224079014761044,-0.023577373421351324,0.049166410936919674,-0.01412175219514663,-0.1553280581446055,-0.24199378736086904,-0.23826896000543019
73.15145111083984,0.9804000854492188,-0.36737505731547987,0.12484087613971964,0.02396771688419219,0.1122428755716823,0.07588300818278196,-0.6293973154665945,-0.6067110385065764,-0.5301452364657093,0.46462944102936904,0.07801495924682672,-0.03285325202011019,0.08357588373540539,-0.11469119896751512,0.05372743146969476,-0.024534660409487572,-0.019727486983950833,-0.008289398844081024,0.08332938433927886,0.06996431472510616,0.01864441321272321,-0.15021393579341125,-0.1422518840787902,0.15666400635569805,-0.3930224189657325,0.23346962796999673,-0.06118104722588831,0.06827553157180452,0.08099328338092199,-0.05164038717116164,0.1450919463333949,0.0273357413201715,0.1281116713526977,0.09464233857128931,-0.23507343051455332,-0.22386089720813335,0.04119166738480467,-0.3509722140577451,0.25003993999049884,-0.12139625570743326,-0.9553939284191021,0.16349527962457974,0.13013368028969538,-0.37864997253211624,0.5492743202117458,-0.18561585841987938,-0.010791685770271071,-0.12041845556324626,-0.19487365434351184,0.9662953184719268,-0.0446040921444525,0.25537708148014443,0.14273303864918718,0.14521915618806996,-0.030212675392663188,0.15900470824406182,0.30164596936421084,-0.0770757835976841,0.04292212141649363,-0.047453806235917786,-0.023754577616221538,-0.09265715628471388,0.09567315861186756,-0.4289860443206312,-0.1545835573554614,-0.19501271066629716,0.05640447249979584,0.35431938556826115,-0.1261628877671338,0.26226880488212495,-0.43300781170367225,0.03291438563459375,0.47624602798981197,0.14477658546221628,0.08260472279995612,0.1259471491080673,-0.13241592390481088,0.07282977157752718,-0.06424549139708333,0.03477975722440835,-0.0865535770581177,-0.04897862003926368,-0.0480097367862412,-0.025302032726634126,-0.005493213910317776,-0.05652379738800217,0.10833430514867869,-0.12601050617337842,-0.004200645992547414,0.06601052737103302,-0.04165920461913567,0.11048939097877654,0.0794215314174791,-0.025075893283135572,0.16085065499716336,0.08861349400428813,-0.22023484813800745,0.15164287517283437,-0.013407847025474236,0.21643622162109935,0.19960060855346173
78.1146469116211,0.9605026245117188,-0.1836556854537487,0.10741530284680657,-0.6422021369189911,0.4584692325747163,-0.6240238260006976,0.5792839526045883,-0.039660154109890294,0.23981348535539992,0.5496279625296178,0.14631424960553635,0.034948778102341385,-0.14649010628243794,-0.08436261110150071,-0.34735103735965495,-0.4909499972043622,-0.252467040930271,0.12342459828996333,-0.2570198627990486,0.10731020498612398,0.010029142065250948,-0.11780911240162613,-0.08087388147288437,0.2540767588542426,0.06217584896853895,-0.011579894516123275,-0.14246562284003997,-0.2287484046189765,0.041053635416017725,-0.3094245012688146,0.0758704117546044,0.016868196734275864,-0.014587575496885115,0.07456264343558841,-0.04449527415948194,-0.1990814317340657,-0.43388810395635063,0.09195787106020223,0.05369337609851734,-0.7472407956247594,0.33916001158142695,-0.3853816688696663,-0.01910430324107279,0.4207284600584206,0.3773661921711709,-0.49971690997410956,0.13655949694617509,0.5895891542589484,0.15353323551780407,-0.5952519097397263,-0.051388744516960634,-0.08714377838921171,0.08788737856807274,-0.1133203597102578,0.05163637384670481,0.06792925882364301,-0.060503607908487494,0.01865371059010912,-0.06103845957715403,0.24847966549585948,-0.482092792150272,0.6842475536338669,-0.3075706050243014,0.05898322076935341,0.017781355017441804,-0.16437135872184602,0.14891677300830566,0.16085234087015313,0.17333924941652404,0.2937733722975923,0.10730810778582786,0.013917272589965113,0.04083579647682997,0.11900074452014756,0.007669810757775871,0.09721853435151366,-0.1164981461247396,-0.05795488355218717,-0.03002598361457054,-0.04924146142455278,0.03018577372497855,0.0218672089553498,0.07514968172136242,0.12491576281032149,0.04771547058710458,0.021147314404202394,0.04535473745404099,-0.0023479395350082463,-0.1210587745734735,0.008208865602280208,0.03252614626754949,-0.07482076050749885,0.040398733368039,-0.09712710330233626,0.04518509524183281,-0.026950744192498457,-0.0034778698635641097,-0.042627720847531525,0.06876278913354221,0.13651868568157965,-0.295604633617447
79.07514953613281,0.9607009887695312,-0.17579026999863598,-0.4248110108720048,0.11551361929376851,0.13152348309105422,0.21055645251350974,-0.059888027591410736,-0.1946610314864785,0.13661876249130595,0.38727379286791136,0.16862210809288336,-0.02568865294424958,0.07558857177593581,-0.20657556418682038,0.04961844407519335,0.3889760198994466,-0.21338965628594414,0.43804627150150766,-0.07344799205153836,-0.15936505073713034,-0.022156654495496454,0.19492319892494006,-0.12616285718206927,0.16595038556596747,-0.11138652121811382,0.11960739797541386,0.07375931153612647,-0.012858985094496164,0.22955053760984476,0.23677499185293902,0.2916784150690146,-0.2890908011753007,-0.5926598331044,0.048141168602725715,-0.17393781478496537,-0.4900608763828621,0.3224958232512159,-1.0359412145120144,-0.4806513488985198,0.32988927265638013,-0.1807165572345449,-0.2130087184348695,0.3511563193331879,0.06838756785645174,0.2913631352846236,0.8885118853858439,-0.030150636856199967,-0.14026884835655445,-0.14483630505392325,-0.06735763791523582,-0.4584643691393338,0.8433351979512936,0.10564816044073816,-0.23398298729742076,0.04356788654858888,-0.0203015161531488,-0.03149990564584121,-0.12744333264301938,0.06439128471978549,-0.10973047589104919,-0.0949029514148928,0.22424460923827366,-0.1007414722564893,-0.07875243413021298,0.001818815063522744,-0.20626591771249508,0.11990961556189621,-0.3068738112556219,0.1851718711433343,-0.23669817651794517,0.19487808591660116,0.237553149466657,-0.36561946965950176,-0.007305257575239522,0.017743265849384113,0.2313038511031391,-0.10507540242031485,0.054753155982364604,0.11654785092997808,-0.10480038359976562,0.09309074461522811,0.11152511678687227,-0.09191985344479382,0.0666926030774527,0.037520303260222765,-0.011989055780880442,-0.05828739375567922,0.005299439753881408,0.12276248856712489,-0.12053422136603514,0.017791047000762294,0.03958242483557183,0.06065547623543831,0.06770994798369065,0.0021953064058852596,0.07915032809455777,-0.025105010344371535,-0.03945500401789222,0.040212279128945934,-0.32349679376957385,0.05747955568949803
80.03585052490234,1.010101318359375,-0.17124817929645444,0.29674934503198386,0.2385958290545546,0.5955980894101672,0.6633882525404811,-0.21163116077130564,0.22721208428435427,0.15756452980541416,0.26211648288675476,0.1321871365398743,0.05666417007103532,-0.08542831236371776,-0.16224793805389703,-0.6153164371900858,-0.01963526830388602,0.2833271804757775,-0.022925333512415408,0.1745030450573589,0.10924888188184656,0.27652574781892536,-0.0028415140164030003,0.04286375963892957,0.1864027938965849,0.037002880543270784,-0.047492716842501406,-0.07729638433902158,-0.044249868957280884,-0.17141862809596212,0.07751683233218984,-0.18470445078547754,0.06195646541848316,0.007335277923467601,-0.06626013252011549,0.2905905462422007,0.30479177648304134,0.11159490995528457,0.7516413431593366,-0.39294567130915414,0.16119582715328215,-0.4198319503457495,-0.32535193647258914,-0.23159806829799334,0.4511939233556146,0.584888573816065,-0.11873222007840167,0.3402558194084884,0.9506746754974337,-0.12164381310070262,-0.05747394258434363,0.04988611925182334,0.13499048257632731,-0.04538343111559061,-0.012677659471627162,0.22805400834170056,-0.03308825855620802,-0.10236717863511154,0.05562675257032857,0.23982401726734692,0.04806142703639355,-0.022988474777843833,0.09534191909823372,0.19591880146394755,-0.5273263966283586,0.09220544615641159,0.1282526842911144,-0.18140321007588664,0.4356593806191604,-0.01961338863432107,0.014081832313319137,0.15880457840557605,-0.027264323136025913,0.15470069306934986,-0.3591563904761979,-0.17388149104157952,-0.11305174944627415,0.14699699049697687,0.08670353046370911,-0.31946694267373676,0.21673371944932673,0.15352339719233093,-0.017434615649368112,0.04033244976709443,-0.09466480146058745,0.0011093808213608752,-0.007809406876241504,0.0012222697421696927,-0.026966930666243588,0.13321167282989144,-0.06970956618058957,-0.05224236433542178,0.09162045363198734,0.09021664834126526,0.022945504872372388,-0.04130293013835782,0.1597420703436941,0.06257207364108258,-0.0552835462938955,-0.17761206069958857,-0.02960625869384771,0.08455065153208903
85.04865264892578,0.9603958129882812,-0.06019293613334076,-0.296052241836143,-0.3149203287490596,0.47044333582110504,0.10803768929238403,-0.3893894326305597,0.060663490525817564,-0.5562077336647921,0.2741353019719233,0.2989451797203969,-0.24011495134203714,-0.05541217960663662,-0.06247822709134199,0.153529388733894,-0.018280089123632146,-0.10500435920944294,0.16853452387944637,0.0881602598207251,0.12912915918206325,-0.07703503469170649,-0.1562690052253182,0.3624171301926737,-0.18777938533531696,0.20113748382994057,-0.29894199514803477,-0.01438716517546941,0.02951461247044387,-0.2273008003384804,0.16643713539830407,0.26608539786493124,0.07422646104080075,-0.14371021915994556,-0.14126282923733674,0.0031814452527686443,-0.1282716455324166,0.19889526241316802,0.2752245150717434,0.05572547087705376,-0.1266889183236512,0.867841795534415,0.5131963745851195,-0.2667249467110131,-0.39973685654549407,1.0074451582307686,-0.3744746157861025,0.05778880288333293,0.395872027740026,-0.0757566981658624,0.8900911031793418,-0.1535205651971241,-0.3265004672270264,-0.5231814644974931,0.07254656278037794,0.48703784473704,-0.1603401611073955,0.029194517804238665,0.020018095660289375,0.12407597851702672,0.07273085427024993,-0.03268219569632638,-0.11203566287690644,-0.28495461324101995,-0.09346895822709642,0.2504567570873464,0.13557109720162533,0.04110807495112894,-0.11251489216994633,0.25252507051569045,-0.16986708827802194,0.025402553038256857,-0.3233562965088172,0.3003266481188159,0.2043181213874859,0.06661314540187585,0.030553580676435554,0.0063943930675098536,-0.23442409816673437,-0.2091766904206287,-0.008831847717601066,-0.2483542072888167,0.180409222592641,-0.012642279904487509,0.10475567630745697,0.0008282486421875186,0.04209579208086803,0.039067415966761214,-0.10383987056319835,0.034629458169976195,-0.0003977701850333762,-0.15875254224255453,0.04425188025955074,0.007418338852703715,0.07625491725493419,0.04797239316598572,0.05017035820736694,0.049880730312711875,0.16274869995099067,-0.04746071936292547,-0.039680824116113206,-0.07420602922886127
86.00904846191406,0.93060302734375,-0.21306104587172278,0.20122957240807207,0.31184907269473394,-0.24695368535865123,-0.7179431649109349,0.022408751756033476,-0.08507357824550096,0.416803480265419,0.06779593449109791,0.11352021612250932,-0.12403783942713123,0.16238248641220973,0.18228851813357355,-0.037955218224809184,0.04647254457669525,0.003929539461548226,0.02102615519892212,0.18454697159101932,0.08121406624831647,0.08778296463882834,0.07327560387900814,0.15370318710497138,0.12784526851094236,-0.40250460600510396,-0.03569760077629955,0.14695737266328138,-0.11531113640406201,-0.1597006608283687,-0.04121653144594911,-0.004602384310658084,-0.020595633084684435,0.09832236097426987,-0.08447071529597763,-0.6342727292100524,0.07293394368178079,-0.0102729332744773,-0.26949812620297364,0.24756244210209682,-0.16060268409739945,0.15982373655604562,0.13709577659280062,-0.44823176240525225,-0.8367958453847486,0.7687759471065873,0.18946849086666673,-0.43290286853302784,0.9474284840900551,-0.1623399379756167,0.5537030625350636,-0.10180392807115259,-0.14373813658590312,-0.3352418266816134,0.10926197144866914,0.04122924188499719,-0.11923065276626223,0.01877722053231823,-0.04355263421349641,0.1120316197627387,-0.19395290435388943,-0.006816658387747813,0.11067973281731291,-0.08957852569024906,-0.10797279415403253,0.35963061717027345,-0.17340734385540507,0.05413753643821034,0.08350967799771981,0.02489046518226696,0.05752652376794688,-0.005678836501350419,0.0996898047452592,-0.05251639541337247,0.1646369730029848,-0.17131438378401673,0.05822059042448155,0.3167128587399578,-0.07198675512127778,0.019794004924706537,-0.0599624429363974,0.007370843305247784,0.10415930398397713,0.04883510446818179,0.027358790221319085,-0.07046951456812778,-0.046528526370055945,0.014177788928535634,0.022440384061888002,-0.17522142233235283,0.03952102542360862,0.15581319278296765,-0.06540760259112426,0.1431917528974083,-0.024263227628989484,-0.08311547640122284,-0.1554886667834871,-0.04233262571766903,-0.035907035131883355,-0.02880182036546486,0.10334980472537365,0.11015224426233078
86.93965148925781,0.98089599609375,0.2743254108392435,0.16384593174800846,-0.56060582240602,0.31474800753567095,0.022111531579996384,0.1586140764732782,-0.12588575847966985,0.0678137874562738,0.2104253488323204,0.40789262766112433,-0.02953690605753578,0.10805829478931378,0.007160102364109725,-0.18139462831619235,-0.39209147063095406,0.24559686819020948,-0.1839949944348407,-0.07120699059073934,-0.10563584931372702,0.1734543586320038,-0.0917365505800811,0.14939532887621385,-0.16333840199993707,-0.017245247663228644,0.5876314784400135,-0.050571360050089664,0.0009219885047933463,-0.07635709566363856,0.1389812501911364,0.05344959562891656,-0.020211261101363506,-0.008065003502504359,-0.15315570583902716,-0.01318931806102867,-0.2707896205350478,-1.1166811688266083,0.2670401832701112,-0.1621233476962859,-0.020024674877865578,-1.4116874965875943,0.3364062635121656,0.27786450001905805,-0.5903832100911702,-0.12337074282914638,-0.06537496679849181,-0.10473666970514219,0.43862338319112976,0.14229090881399362,0.22201225276873834,0.33799410330979174,-0.2923684302559775,-0.5281271303835445,0.2868488100780111,-0.1140776336342531,0.4041471602722944,-0.23852637101625496,-0.0018939352085040788,0.08310762450821377,-0.05563821026428462,0.03860989143006344,0.3020358378867155,-0.20818176069021183,-0.9624580126693736,0.050954101261053486,0.43255887676725896,-0.025865303076270073,0.058972746120190836,0.09775988085718457,-0.27563217622862124,-0.05945427525542436,0.22872254319997368,0.3365237737895047,-0.08344280950638246,0.03340965218746022,0.118498233199156,0.033054513878534336,0.09887318182464812,0.21963740230557946,-0.3392990064823832,0.0025466951565045193,0.07661409303316569,0.07938530795263968,0.13270220897840207,0.06278761597335247,-0.10182340684900543,-0.07314528055907725,-0.021273540280208027,0.014873222421982246,0.028755905180554632,0.144183391177629,-0.15137186601075384,0.06236993216110363,0.036512359805664446,0.04404515673071549,0.07144187493137778,0.15117289871458223,-0.047929286307188596,0.0665652773996669,-0.1194081283914653,0.034311862765819545
87.92054748535156,2.0512008666992188,0.07918339650275358,0.10905895949951236,0.12068245011704784,-0.0958776855612436,0.20329070858260823,-0.7606861223213709,-0.11341639318591562,0.07412371823114576,-0.861703867347747,0.41776153769450086,-0.09197977944729863,-0.07130326829810393,0.009946838167156951,0.015481050541372936,-0.38400274134671003,-0.14095961721284236,0.11473001196438246,-0.027079817348684122,0.09937372194943518,0.13556702818198801,-0.3151537786844555,0.034580962330452915,-0.1745804946615722,-0.20412575303328212,0.05244440674219599,-0.14920816627456956,0.11219308052038923,0.22860991087429122,-0.028730810788950976,-0.017012809451855758,-0.12621832457455445,0.011816062072284621,0.2013225638923486,-0.028216203048099672,-0.04888903444396536,0.3386782857574483,0.07597950013197036,-0.47424645367674173,0.03777769577643875,0.3522372122907296,-0.08851675694572224,0.42390538965333413,0.5554238361898849,0.514239481755768,-0.49516803433597434,-0.3932130961825099,0.2528210729772814,-0.12181975061514135,-0.15131263707775272,-0.013937678929455808,-2.462951193182676e-05,0.1454761175506837,0.2092184833868158,0.12753993641148056,-0.0452676932588023,0.03951173082326051,-0.08996660927923307,0.0023080970485486983,0.04091338065570174,-0.039964139480139715,-0.12867128274313908,0.5220139805952718,0.03705064221902449,-0.47874257547220245,0.46332460957103827,-0.07771529356939302,-0.3138325695284542,-0.03134613385247474,0.2004913370806033,-0.13450733484423985,0.11003721819893288,0.45179954560765956,-0.38555675955571334,-0.08725188709597867,0.020738189249297163,-0.14022007581507134,0.019764649519423697,-0.10229741199820576,-0.10590827039822356,0.04171255069567782,-0.17745349573586208,0.041686008607780906,-0.0917968487470466,0.026492612094155966,0.06372126095944819,0.011242140932499749,0.04777827213223326,0.014574363541272515,-0.12756576525201202,-0.044420914026000374,0.06777067314782713,0.09332575470098342,-0.061779273714424515,-0.09226753744722392,-0.02099461406477264,0.04376613831500006,-0.01990190000690667,0.14718247938800533,-0.04988993291010886,0.1968076551955461
91.89285278320312,0.9608993530273438,-0.15879599304587966,0.11409504782900856,0.138339867640186,0.116690795482497,0.27832262281364717,0.0296100419841768,-0.6788769449437444,0.23669170871735623,0.391030373485425,-0.1339735965217092,0.09652864647456785,0.05102011041025232,-0.20166925645014264,0.029243111219109847,0.011181768164719635,0.37261556828784154,-0.044620625221464,0.3641171212295242,-0.13158987643437922,0.11761183238454413,-0.07226676577786695,-0.3563661810271388,0.1864723581268205,0.039715870255776685,-0.0687099429011034,0.0003094043354484547,0.09771801040632216,0.11240928128138236,0.01577735307511359,-0.05007839673623958,-0.21491573463081345,0.16200409351848746,0.2684588073858351,0.30626186328261096,-0.2740328020733046,0.08410593771137882,0.5199854061479718,0.7613108030346205,0.26036140305693156,0.6371382842067892,-0.1897695102078573,0.31363616448693576,0.6101990696610952,-0.3644139123871467,-0.31060371923082425,-0.20270204024384192,-0.5805592975287703,0.02140772497602274,-0.10753769407210495,0.0989839690393605,0.2694553099190692,-0.1596759821261255,0.21119122913544558,-0.004385315335627153,0.035506192997245084,0.14185229661336493,0.12558554340858802,0.010862165685302622,0.035326187589130295,0.1406167572985102,-0.2417636871569595,0.4702925068984163,-0.6566878532292111,0.4932943541586581,0.1584990884302549,0.10702138748291169,-0.17937391582951712,0.09182577282261767,0.102578175832795,0.19394226069375553,-0.08553454601311608,0.06357641095150168,-0.29358375492189903,0.13008578178469601,0.11015641355789632,0.20934901414570745,-0.02246562878532709,0.0047633201798505664,0.21152580100051474,0.19175351626773304,-0.08877070226201449,-0.03210907722139884,-0.2727341358392017,-0.03504640293375022,-0.030657581431542756,-0.0936063844667176,0.028765707368464274,0.03618209808677729,-0.03270854475030067,0.11724241190564232,-0.002510242486672016,0.034594640512746556,0.03165307866285786,-0.04667857092602979,0.05592894448281233,-0.011382479513663347,-0.07947406843358548,0.00015138144591955445,-0.17622121133415272,-0.018193571826931945
92.85375213623047,0.9505996704101562,-0.005089711058876921,0.12173895634219777,0.02453661167617171,-0.04039237652472996,0.014699449756253806,-0.15885873626319313,0.05524779321021905,0.21525676226497334,0.07468089185284875,-0.03892065375472292,-0.10949854936114267,0.2021952239356975,0.15094358942238303,-0.046348116773561265,-0.14769672219612856,-0.13219772263353757,-0.15040042062893108,-0.26688237724154096,-0.09371538212592131,0.018256316870293082,0.10177664683536972,-0.07218579212439474,-0.11995504566918237,0.20611500956174808,0.20496202705378375,0.0421690623460294,0.11683210479359549,0.23735203701221055,0.20857272425733056,0.6365691769106565,-1.019317028394655,-0.24204968694210424,-0.2461215621691102,-0.3650251778305246,0.9571951798646419,0.006235746305900867,0.07166022402936328,-0.20153893107962942,0.03878068535932072,0.08538036492722426,0.6041108543474988,0.49398736701136176,-0.7215754539896717,-0.27646288345987285,0.9510442608898257,-1.2525073863559286,-0.32538010211218515,0.7634986060334443,0.23179315983597285,0.3652649068533207,0.018239371905085074,0.44647876501511374,-0.5013173904697873,-0.23125609309089687,0.24151009896991105,-0.00938036949856437,-0.0004321299715049744,-0.030966514619268817,-0.007311540191137186,-0.027053593825834457,0.0446299710652167,0.12218690474605975,0.00550510468297985,-0.006294751335248663,-0.15792259637962783,-0.023160161055578776,0.03623600247395866,-0.3884008978609781,0.7194046952648159,-0.26838020278816405,0.5060873003942311,-0.2718661294785216,-0.11414197252778455,0.06487218214934504,-0.028549128430086484,-0.20503669114664735,-0.0008430668060182738,0.12421563603374339,-0.07408813863054514,0.19423891557799944,0.10209120908436257,-0.06901687284087651,0.07948935965591117,-0.11804881082226516,0.06092774094180503,-0.0256049119082144,-0.06634692469944746,-0.04476811502163037,-0.04503409543140245,-0.05446353937161398,0.05385779058256784,-0.009936231830261016,0.1453176366987833,-0.10947634935530091,-0.06754166616145087,0.1359649992219363,-0.08107805117211853,0.015983348000316,-0.034526754534200496,0.22008468612102258
93.80435180664062,1.0200958251953125,0.08241462199059243,0.2633487105976716,-0.8552573682372206,-0.09261270152837152,-0.027695394474787485,0.09681060832045406,0.13223980475216576,0.15194813750381803,0.24607836754425905,0.12678631455024797,0.03645109050672923,-0.26376970716482184,-0.35627475856556423,0.76732015457365,0.5981389329376753,-0.048339297288428965,-0.20428805448114642,-0.032172949942698134,-0.10758096718766323,0.288195269622871,0.19994125753204148,0.20610241647050304,-0.2015860358458331,-0.04729598147669731,-0.05615333452989021,0.06381047475434519,0.08871590605044608,0.11628070085217046,-0.1877346548978448,-0.1288962067459078,0.11486637791991476,-0.05874344890633623,-0.008631010616259698,-0.2468011010328139,0.41702445968879626,0.6652915868388759,0.7038668938499103,0.9839552312358795,1.194095799116759,0.04285160603988701,-0.36226177043571706,-0.08247091380307178,-0.3494413151190716,0.1541274125445216,0.9107895895728078,0.025333342246583193,-0.5834368541383362,0.19763080268053307,0.17194867075466544,-0.005043603131691929,-0.3489508049371329,-0.013721613089164024,-0.08283992708484869,0.1348855465283788,0.009254413423344952,-0.012663380384419692,0.16176475952928152,0.3012850628123419,-0.22328739351393437,0.2509136195474318,-0.21891695897449212,0.11447600044878697,0.03978277799688514,0.009398906376306552,0.03623126210387445,0.2961737892899505,0.2618543395588536,-0.24634203728632806,-0.03583166144734084,-0.3646315329573232,0.006839614057447527,-0.14188111123115532,0.1679195269879898,0.11452461918494654,0.011857023847999998,0.12071611433011295,0.06284313378186171,-0.1586374254189486,0.1267293623288214,-0.10418452989041431,0.23444195183035227,0.17603149870968338,-0.08177844052148908,0.0774704793302618,-0.022481188353583807,0.005854641421267669,0.10657290014382043,-0.07018370171674017,-0.0712925123191587,0.05846408513036433,-0.05339515564701294,0.013020690941968558,0.04148956493173435,0.001086154320942256,0.10811436330806662,-0.08098676877812809,0.036448689926874694,0.00942603584365774,0.07479225996793899,-0.12172867328286385
94.82444763183594,2.1619033813476562,-0.08882583085677387,-0.6879206457928188,-0.1678281096794669,0.12305763245076677,-0.14356807010740277,-1.056549688882038,0.016425198713342887,-0.0054873128410208374,-0.19326739340244375,-0.3642647484870906,-0.4611192769883372,-0.5174175872913962,-0.10370949806627916,0.028050093532589252,0.03959988834657902,0.12149217670577918,-0.12026379561910747,-0.3348971769988027,0.03424134881489713,0.05533230515429631,0.1645418069772077,-0.05648232748358372,0.07767815415676707,0.15087618841174041,-0.887277846188451,-0.2226012999840001,0.2004976098709969,-0.09024684165737384,0.1258575585561406,-0.28940394557145277,0.6069544001812137,0.28581372057892857,0.08415497412222085,-0.004714162333572138,0.165370496634776,-0.49378314326484574,-0.33053618245747035,0.5211069596024323,0.1331415580849551,0.20538947889980042,0.4622762253205501,0.2995994653835492,-0.31346241705959754,0.4227865587561588,-0.04131899872362003,0.10409456691946645,-0.2015633270627784,-0.5463352744084926,0.4280931541650261,0.5021619461902075,0.15553815900182427,0.016200919116667316,0.06451842260009114,0.0104137013051338,-0.005009763414254426,-0.016857063938654018,0.007208956790175178,-0.06367918229188393,0.0828066355212898,-0.3964417192227385,0.053030354075506186,0.06511037519252103,-0.1645509642545579,-0.036495941005446245,-0.08733065956295592,0.411775702179625,0.08816164419495005,-0.09553423349091741,0.36733476914545876,0.10007296823467497,-0.02093526220640641,-0.16996112561382082,0.25468306386512857,-0.017425082913582884,-0.2255113289748339,0.22979427581432266,-0.4076328473998404,0.1817059057936797,0.30647918444013367,0.2266103179361135,-0.004879674364655709,0.10516584128720449,-0.24420614324722292,0.2167740876827695,0.16956826751194853,0.10814981611850844,0.2758788705802263,0.04977169220522715,0.1990643962470176,0.08196728817962945,0.09189691654569124,-0.05888695004289665,-0.10680365812276685,-0.08130724277288442,0.0912126017231893,0.14852843708792018,0.009264041234935703,-0.07278647326156236,0.14819110922479473,0.25878541903779884
98.9074478149414,0.9506988525390625,-0.044317785349108074,0.0709176732298805,-0.07902279874957191,0.09463064630067158,0.1664660161370509,0.32089119778085423,0.4377742143517278,-0.42714373897754443,0.002219611921267583,-0.2318998334054382,-0.40033412174390753,0.1862595527760083,-0.21013764745281655,0.12402964078453349,-0.0981886842525611,-0.19594170911692316,0.254117788458465,0.4230636472185396,0.03006481894017517,0.031072744279185244,0.13494093230733617,-0.2797799843000377,0.02130401242068013,0.11044658293783335,0.21338722694648588,0.08077368393692073,-0.0034131382611395644,-0.0848850251913477,0.11431090630166632,0.19874344167880337,0.2271902116634817,-0.00236354672796326,0.21059515542543158,0.061457075512712595,-0.4909994288593675,0.09198923833053868,0.1713283735509721,0.605085445960275,0.6027477565663164,0.7091823879865743,0.1007331803616616,0.08693174592049313,0.6609635348360197,-0.32390082929448577,-0.30943715562494,-0.011574959414665742,1.061658869477566,-0.3109202912785654,0.0173566806173482,-0.28085029597278266,-0.007179128942433631,-0.23776760965197635,0.05865314113046743,0.06806662145404706,0.0803646933932672,-0.007546958134811647,-0.15499722002043073,-0.12662277830957183,0.2139232104293812,-0.18493506209248964,-0.14166683241848066,0.20260879500660267,0.0019061114566734242,0.25850177465344526,-0.22371287275409873,0.12741874498570097,-0.11143746885451752,-0.2229590361554775,0.023234735173029458,0.16121539355645978,-0.07006981187713585,-0.2876345763448256,0.3658146828254651,0.2913019085588445,0.3359373155444704,-0.07719139856274086,0.047939538161503745,-0.013327394929335521,-0.08229907944259314,-0.16204520607994927,0.032055229606767106,-0.018273611386238585,-0.05759104585347405,-0.01019489412794295,0.09414996165456205,-0.16932615689829958,0.0213252861367131,-0.06471832957797635,0.10614675017087748,-0.055944101747668847,0.03941596837772857,-0.0067392490786116754,0.1610355728135,-0.058031499900695026,0.08605377962905464,-0.04718286745562417,-0.027846852615824237,0.10401760665667273,-0.0760811723683725,-0.5170836346431781
99.85814666748047,0.9404067993164062,-0.4835772766155164,-0.025339432589934128,0.12936569529603759,0.5193371827934782,0.5163764947346859,0.14859171401307317,0.7260128835962217,0.44920673706259945,-0.02788631070863675,-0.033017959810128034,0.261751161736751,-0.1510733735097699,-0.2848744772165554,-0.2483584492008857,-0.3860059215365658,0.06979331007827029,0.15818707668325332,-0.18751914628486532,-0.03740370676839941,-0.2909285584016347,-0.1474938047128378,-0.19102242485379292,0.13448294571813235,-0.04603111929853258,-0.20023097314036462,0.48562680132710706,0.2904162216869156,0.03902565568089748,-0.16383330694716775,-0.03425760394281953,-0.042033792714062546,0.31348925858819754,0.013691538724804646,0.271423855737695,-0.3485735614137816,0.10023767165983777,0.11545931083664081,-0.3089665900168559,-0.11914973813782323,-0.3980597190534864,-0.08574390885429692,0.30629895314504574,-0.5559359218735429,0.9647687562209324,-0.6204985857152744,0.0725227782786514,0.7368806029941186,-0.03095281322850109,-0.047077739230376336,0.35270129888776297,-0.32307938987079055,-0.16273138688423894,-0.38014273258945475,-0.13273108132341624,0.46101097598206,-0.1532954775971877,0.054687624074479815,0.0299511168798859,-0.049670847704329536,0.14157205243574172,-0.2641666621119019,0.3134950811461186,0.24427562192487778,-0.5025992793568418,0.03454625823979949,0.04177214408605099,0.04660311506702531,0.0897490846395184,-0.2178849239106905,-0.12359003276564383,0.20525895101938987,0.1565499399301266,0.21003712608732258,-0.1276128194921445,0.04273132435088962,0.031051374008252974,0.12761495573442622,-0.040451271333346715,0.04747256639833215,-0.12190558467369128,0.15018247307245802,0.35700967451005755,-0.2312184082612711,-0.009432237801539931,0.20543411385355537,0.09097890934625869,0.17756593042972504,-0.10151269036259553,-0.0409748339858297,-0.03342859319794715,0.04435982685230268,0.0664164913675527,-0.018982335811658948,2.8689678262712958e-05,-0.06721908540343835,0.09443183430973438,-0.08174169191516911,-0.015045777160910372,-0.037544630624184255,0.17759073077007625
100.79855346679688,0.9501953125,0.029841887214706042,-0.11800288881595042,-0.5582920465680934,-0.4683803879553419,-0.05189504801687149,-0.47985480724148916,1.1191984381207445,0.5141770186984003,0.23781754618925832,-0.6897003663093304,0.07044181313923532,-0.0986781921593541,-0.11512525426515749,-0.0874731135042534,-0.06842085457360439,0.1233247017085089,-0.10318573352356716,-0.3049847232433244,0.3504312026579184,0.1491268884547214,-0.16068245091487965,-0.00503584361685766,0.005543296495043525,0.15144003674094209,0.12578423526281987,0.036051701057888234,0.1707425692916037,-0.2918773690299767,0.011298784165429655,0.2594326783655427,-0.01036844061274217,-0.2853933081526261,0.10623806665758004,-0.17931073331174716,0.054410133509406364,-0.12266048457023522,0.17958007541543317,0.3666374612185539,-0.11860428782183843,0.07129322453406088,-0.2934399008184479,0.5195139014355706,0.8446362972670651,-0.25781692469205986,-0.9534463834047043,0.49893551829553334,0.4963174005413373,-0.6459334022496361,-0.3561568248781888,-0.5352390961903394,-0.32777154755175153,-0.4808465777184304,-0.05021553292611167,0.42942182182792976,-0.09948668637700837,-0.01562738184342232,0.022263645121928584,-0.09700241432474967,0.0280814353817761,-0.1791202435487123,0.0362722714605013,-0.1622887777879124,-0.01253033276419966,0.4188465041905656,0.15931284433194248,0.1938404541735135,0.18939275674106765,-0.09175073905717622,0.3254274879143032,0.13060519741308263,0.008365586523516128,-0.17330990911295585,-0.005168542372545146,0.12597189388545588,-0.24420664527439281,-0.04488626311963139,0.047561748697472456,-0.0095261176520527,-0.008827218144373837,-0.10882965628237284,0.058677291209410704,0.09072426967709449,0.08474402751636158,0.071017975237916,0.06734041933491892,-0.03045759159470552,-0.02915450323390901,0.11757861415167614,0.10649727991496621,-0.02134241630089025,-0.12855707254039045,0.03456609683501322,0.11217670253477896,-0.08945292260714718,-0.0209637843074445,0.24609181950164988,0.1351447232092977,-0.083907931982397,-0.25775493920548076,0.0839155008371921
105.53154754638672,0.9605026245117188,0.016882660595335545,0.11000473884297746,0.14942118316843364,-0.41606138614891947,0.6463646410948886,-0.09839153547158931,0.42241834017551866,0.36668947141836983,0.6474499271005087,-0.12037542028722092,0.13328959337810306,-0.34269992768131546,0.03698651847175022,-0.0038010904728705904,-0.42058144678801046,-0.29770106889489795,-0.18676406568949178,-0.16317331224322398,0.554770201209057,0.0016920961146068558,0.0752279963098424,-0.13105879714606333,-0.19579130398429892,-0.12062991986450206,0.14478328241970606,0.12087292382296215,0.1309970879339642,0.061774521807323235,-0.0864328518353126,-0.18433075137417956,0.06145769049435751,0.13470813925532663,0.11224860596662879,-0.16758729891489452,-0.2009027280850672,0.02346812686108296,-0.4582006721137384,-0.006840285334763371,0.2114142353186112,0.08080257363026355,0.35836454399077533,0.41406589919120645,-1.0843912301509526,0.23367037901490792,0.2913428237573515,0.54805209568956,-0.4688998539533574,-0.20085904875548743,0.555987429004487,0.28402841261091666,-0.07001448141989003,-0.05922247870232373,-0.03680193171334793,0.2260986774223566,-0.07835197561674104,0.03276143175327914,0.15030876264544255,-0.025172304147252852,-0.17640941255484646,-0.10522573822172582,0.11557822835451191,-0.04078202769593875,0.3165069978796063,-0.14719550629696238,0.1960760820525209,-0.2580465312390821,0.13570070833716083,-0.6123629943677378,0.6285865181840439,-0.12936577474636918,-0.2088295148037314,0.16649426144496365,-0.17297101987522123,-0.00661286372318836,-0.15724436674203876,0.11791216096557212,-0.052781809842930114,0.048057521251309465,0.04054725584112999,-0.00652570100327618,0.10267859112677756,-0.06840626545827021,-0.016700173433599377,-0.005670404412922336,-0.017758984057406002,-0.04450858207040033,-0.008698894569190336,-0.04264133377772009,-0.20246929860243343,-0.13835077208016083,0.03707159231973561,0.047572336920668694,-0.053747917770886056,-0.02168166103484148,0.2730186382689688,-0.2094334310178497,-0.0402745869092233,-0.1391270818157955,-0.09034361488350753,0.18273669549048685
106.49205017089844,0.9708023071289062,0.18128278637176637,0.29886434643273185,-0.4568011561280749,0.24479269335294862,0.522284136873508,-1.071161295189715,0.6784840601307494,0.5949074740163013,0.3036326629906779,-0.28876883792502855,-0.39224728003027176,0.5154377951142617,-0.31301396059455255,0.29340984169650597,-0.008605971838024837,-0.024026011428608968,0.06851107646904636,-0.18402271262480538,-0.07002200105429124,-0.17208006376994822,0.017545255470382375,0.4961378163218965,0.045709402958514375,0.032597048888361166,0.07302206907033625,0.12130182322442008,-0.17650761180245195,-0.24167735686682468,0.029747142043517277,-0.2997013180641617,-0.5909636407521522,-0.07001263972560683,-0.32268021167451116,-0.03501923908740913,0.28798892456814235,0.23546059208860812,0.42147228435028505,-0.01569380312630291,-0.36098224963976794,-0.595656133945643,-0.4018928885885195,-0.1625232072006504,-0.2435711507112994,0.04707281181545537,-0.5204267921777715,0.6041977054435346,0.3965484797529849,0.34211197025402634,-0.11964609433916422,-0.00810255983994776,0.15986410725142985,0.5023979586754537,0.15016694820850734,0.10012324598863108,0.06947282789126417,-0.06421037602917476,-0.02324538151797633,0.018887249047367324,0.15060644200402012,0.1382435749872102,-0.3749602253762883,0.29167902542334234,-0.22502854022880428,0.5357161988844953,-0.7046539105776723,0.30351634042173276,0.07451232429845618,-0.3567870385155558,0.019558223306458518,0.10733830094516514,0.08582312184459048,-0.3427906588817195,-0.19773096670746867,0.07072582966430395,0.08536092331925188,0.11585870756806797,0.0827650672943381,-0.13731510100947975,0.22288571915365857,-0.1599361766918495,0.044643057329413635,0.0819513804421569,0.0071782029118209354,0.06848753111426381,-0.02459893603578825,-0.11534286449285408,0.0067524238957700905,0.1346778588876026,-0.036910903583164914,-0.21233269314902956,0.04108974275121623,-0.006406491916855132,0.020635887653168927,0.12286733275371786,-0.026176298394581996,-0.13200567692872003,0.12013730428302762,-0.09129402023595842,-0.035778393871822196,0.033946257471405145
107.46285247802734,0.9099960327148438,0.06131027830805244,0.09238853886593065,-0.4023817487662906,-0.4460204881274872,0.2904693219544862,0.27186373344180764,0.7581319475775833,0.06398471268953547,0.4523370471252691,-0.063190176393806,0.4436862937536731,-0.05653276367511576,-0.2683651928241411,0.22377332393603724,-0.052976886337731996,-0.06753778114311708,0.027010845705727843,0.15286895865164318,0.30534384629460753,0.2465875680209682,-0.274947265842932,0.1140924033406021,0.042287395567551664,-0.33120551685629984,0.042620987854397316,-0.03487256022442552,-0.12238792397010936,0.01592431922226111,0.3992017308367312,0.4149694980809532,-0.19427592415022607,0.045483702230226616,0.08544000768618343,0.04238311900481062,-0.20295616219719873,-0.004772003676146412,0.059623518396094144,-0.06292737438747927,0.44107362928328153,0.38113259783065245,0.24544451397443304,0.07727125613025675,-0.7001027238482993,-0.450432898932896,-0.11173959531092255,0.10779760874650579,-0.0361931499976383,-0.1404764578342742,0.37077902570048216,0.18743612895336878,-0.002748976329530861,0.4254024347619797,-0.2585421218422295,0.2622700525874099,-0.0012571597159713194,0.03392742411729767,0.1203623813760481,0.06967987840259726,0.13946474055919042,0.0017176052319439784,-0.05109658106760068,0.2349518384754345,-0.15308078968618233,0.13349113518918337,-0.5966629779558402,0.08654211344601545,0.13438867462759213,-0.0501108962371955,0.0449152412918811,-0.030008540755026805,-0.07358252304617824,0.09394466476726016,-0.08176609548383326,-0.08153218212196393,-0.1287249673752691,-0.2797793395923121,0.07346957674049426,-0.14933562168821146,0.10884976790263641,-0.23473040857020128,-0.10079320867586347,0.32090168735108954,0.05644508250802679,0.03393824092849267,-0.026246088226054336,-0.03642699332526689,-0.05122771068610452,0.09274502015675475,0.1318702003385192,0.001013260014130791,-0.005560848157860244,-0.07371007240104382,-0.02331745693774831,-0.011368705696630555,-0.08629198582719007,0.03380827709904743,-0.0816206808615011,-0.09365816771687221,-0.11720166943529031,0.08402412636639495
108.37284851074219,1.7410049438476562,-0.19014657716817823,-0.17296798397542193,-0.4253012250096473,-0.17878235591138084,0.02393685148923292,-1.4362480772104904,-0.49435283250182893,0.6246785470683383,-0.3246520797065754,-0.628520730802677,-0.14011468763243395,-0.09781663156889611,0.020150907227800805,0.1671329222773234,-0.07500525607292959,0.1390807428873404,-0.03445803195261884,-0.11888791011889722,0.11023887173718872,-0.07405270257953653,0.15231392803060645,-0.10656419520317455,-0.7195132924960915,0.07982782995556315,-0.025607266262563606,-0.22333484765729988,0.315711764109211,0.32031706227875417,-0.025995983535555364,-0.1053239081565277,0.17497431020727444,-0.7833584687416748,-0.2172654239075615,0.058313327635425516,0.16476531310224424,-0.43768553265758253,0.6889036259498436,1.0084303614371817,-0.09660850181324188,-0.3879910386669338,0.06648351322609392,-0.09357475174052446,-1.080332727211437,0.19885160650896383,-0.001391113721678515,-0.3119748135936938,0.7428848122348948,0.24339842779655368,0.17249259988675808,-0.006481009803747396,-0.1124470610585285,0.4126861055281209,0.014239402808661572,0.11586551595593933,-0.0327544758484474,0.05942951713465375,-0.0477914237115247,0.04190454638969684,0.020543913076552928,-0.0749965934293454,-0.02568288112847107,0.009511703069363928,0.15832198829299568,-0.11845839605153716,0.2228030486208449,-0.03543370318142234,0.24609544230288083,0.10281799831107329,-0.049375750220245054,-0.09579159141301434,0.1461197628896907,0.11610964007560282,0.07252099396329902,0.3581398669693626,-0.5325871338167258,0.29317158317225583,-0.08817315150591452,0.08809070367784733,0.06837448107721893,-0.18006106825184076,-0.02350335794054176,0.22816193258427836,0.11579070183057827,0.10707832386517385,-0.03561905768361995,0.08543660091473153,-0.044327505789463775,-0.11673473111767657,0.01431533012851621,-0.051877878630477055,-0.17014012799195288,0.22517960971788625,-0.26668883570236446,0.35629973460922704,0.41293806059960664,-0.3216235170708709,0.07253151678228148,-0.21898026244790286,-0.15440795821262865,0.15253673950353497
111.92545318603516,0.9003982543945312,-0.4652554714559062,0.26875394571833505,0.2910334682676375,0.2818633041628712,0.8987624659501673,-0.07845663862039184,0.23535763950636043,0.4977770823651183,-0.13647847349711542,-0.7141579744246309,0.18972201087187593,-0.25363953160941194,-0.013010204587249885,-0.1012208448446783,0.15236719778844002,-0.10838185577850559,0.059279073983244654,-0.02261179264174834,-0.020924811594603614,0.1464805794449537,-0.37810862504728054,-0.13417357582127892,0.1168550772030753,0.10481530166241107,-0.029671032536720227,-0.10290958585822546,0.1645898445613161,0.08154286354484436,0.076952620564349,0.13688063277551352,-0.03766262306178898,0.0968677123905136,-0.0498204294249509,1.2737766659233862,-0.2981314915837101,1.22788960576198,0.6754042584978928,0.3434600552716288,-0.8783276538002782,1.19996602034263,0.05594374878494991,0.3710293450477378,1.1299241921676555,-0.2652942834171485,0.7816144994823,0.33718275319126423,0.20928902674500632,-0.22884280043600178,0.011812848359437259,-0.34076148159002473,0.25919358694724026,0.025509706765220214,-0.020547510496169652,0.021404788598402252,0.0011185537223695875,-0.01764937102180611,-0.09432729885938641,0.0036188440924766613,0.28628541711992395,-0.007696827376604182,0.015548783978166145,0.5196993850088143,-0.24973204174047142,0.11559279612744139,0.2549797782294383,0.13276332297515125,0.6454530864280598,-0.6099551180829772,-0.11537983583606418,0.09253624164820229,-0.2476604396759645,0.41746270526916707,0.17048812271845865,-0.16677953694500797,-0.028074733074535802,0.02060230464969065,-0.11540773670172455,0.13335080164649787,0.3854855347121301,-0.131679858214468,0.11064330443426282,-0.01000437974441566,0.04384653949901841,0.051999993078932896,-0.054883223675640594,-0.06983186028065361,-0.0560628563355089,-0.0017946217088245578,0.18931548423129194,0.00345794777901573,-0.03611499413262692,-0.07381518194533768,0.0870617557003948,0.053453726739921895,0.11969280281998151,0.06438126037485521,0.015640747366824304,-0.057987869175697454,0.03699064551921108,-0.0023569938288637293
112.82585144042969,0.9406967163085938,-0.016326954007279498,0.3435417370465601,-0.37333968057553873,0.35931944875926575,-0.6350843687389303,0.5850540451457842,-0.6847713098576192,-0.14465426732725914,-0.3842402644105732,0.15918059861998787,-0.42373271738049273,0.09640945018196512,-0.1908052769264763,0.10141433996729678,0.027406723574701246,-0.11873392419896864,0.07939184896605586,0.04198751005856452,0.026157883738780526,-0.1826514167371617,-0.056352040882078736,0.057942695046265036,0.03911763230580163,-0.04179965348489933,-0.12674591643095862,-0.07719551435506315,0.03382046794530972,-0.007427499668164643,0.009520760493876327,0.059607366706748655,0.13178252323156453,-0.06166306268173803,-0.246291010609467,-0.7176126943919047,-0.24358720212764778,0.25828954833384055,-0.5085512720979111,1.2496017972838633,-0.514376782392279,-0.11767109615261506,-0.13671442682075413,0.39744652083319787,-0.4162242263430963,-0.6339959254482622,1.2224783056469908,-0.8120131918980062,0.4536821779669694,-0.8243860322373923,-0.2563882093114349,0.09906584722446865,0.2367531648477995,-0.014258320422256261,0.15068915263549792,0.4080145821671537,-0.010263549160181105,-0.056056254663211985,-0.06747366190720995,0.19791030387556288,-0.5626561483639075,0.18784225045939343,-0.09964283118737917,0.6016344457345545,-0.6676685811679199,0.20121553860485192,-0.23921628023729946,-0.5372496849149506,0.032692175157305964,0.11696379630391852,0.3722497673772251,-0.579999987771355,0.008930789742860776,-0.41224892414250913,0.575519185604328,-0.604507135492333,-0.21365005748947702,0.07994018620317996,-0.04605040964498641,0.06756707074188606,0.08697911414950164,-0.3939264445959454,0.01819636461493442,0.01748046804187066,-0.014594015118558061,0.022790016432407197,-0.02764056577006898,0.007817792516575812,-0.026754694308868548,0.11172810599998023,0.10419128472435428,0.01983287336906808,0.12468276063431863,-0.05672749306243577,-0.08979552273982344,-0.00959654600527212,0.10013370114315912,-0.19902844842247464,0.09113630779898724,-0.16030742808415901,0.12330913179316269,-0.17706366608658408
113.76654815673828,0.9706039428710938,-0.1735029913011993,0.4912954522106249,-1.1771724305071216,0.24373091395768437,0.9481764915216107,-0.46158859613367376,0.34073624633785937,-0.4953456368975313,-0.023344099197032467,0.1284450783437435,0.4899993534213434,0.029415601665172774,-0.04411931645352325,-0.0521888242789266,0.40707231986316905,0.3360592101948245,0.10802329195899417,0.08736258090617809,0.05973714959272603,0.146771108089424,-0.09865289907330548,0.04275437842356339,0.049190321663375856,0.013082484805577329,0.16502147969257658,-0.14890541827682516,-0.05237196598837411,0.37952753871332934,0.435762703474942,-0.08740608480098769,-0.020447288238237417,-0.11872896138671885,0.4369020709632039,0.3188486927544655,-0.48033051759519707,0.3908619098544699,0.3548612885166923,0.1751182855014448,-0.2910320237230863,1.0679512264919395,-0.8532627163455934,0.4181801366943509,-0.1358774841184661,-0.7720257856619671,0.20953165228259035,-0.1449244233106991,0.2724736489443365,0.5422055229072198,-0.20805354917764501,0.16986127701425202,-0.027147531339992752,0.01875671261998439,-0.024297531510866045,0.0746509920348736,0.13652294295584472,0.12016162128691647,-0.06263396091824723,0.015010666955933687,0.0044194972971101434,0.11789950476710043,-0.37177078593724694,0.21262096886762197,0.19356789385931888,0.49622453494561364,0.12559427508747995,0.11927344701455568,-0.5164657982956313,0.26211971910730997,0.18322405200043473,0.04214748493665803,0.03695953949139871,-0.47744336625497036,-0.04742713185086794,-0.2513464867819311,0.14711074417301112,0.26801487805128543,0.10563552991904418,0.0491804449318054,-0.02819397965600919,-0.09423771248441999,-0.05117773803750291,0.0352799883555104,-0.07384770506116026,0.001245325749899229,-0.015177209373473458,0.013656170556599978,0.055423419738487606,0.1595707119145541,0.0772386181913366,-0.02715422651248425,0.033894672235456336,0.06141268148234923,-0.16065895894933602,0.09249435629559546,-0.059542412826673136,-0.04264776209770762,0.08556894371725116,0.034538307146255734,0.08255190365098836,0.2307716218727203
117.54865264892578,0.8805007934570312,0.4333820759537392,-0.050167627694105627,0.39590059500514674,-0.037206895441081834,0.277743074221139,0.6343987413481201,0.5316618343570088,-0.6188407515991614,-0.09232192222536854,-0.08034582628949358,0.07542810919935675,-0.30777990912896885,0.4640507205499797,-0.23705660878968088,0.3480126586432792,-0.022618886630803112,0.03381527185081418,0.15017707780899328,-0.23621718879390202,0.22030088451462715,0.027945359487019275,0.005657654005972467,-0.16691028406536482,0.10447732443551022,0.09304400802906482,-0.00846222912918529,0.06769767601525681,0.07724384642053055,0.01776985079758754,-0.11736085728071317,0.32420572796648384,0.09343820783895887,0.019196239650484566,0.23050363812862681,0.3883295922209701,-0.05105638189752085,0.08264411628087029,-0.16364049270521705,0.164395167264208,0.5405338760487035,0.02951236996043835,-0.8275393952024872,0.7144829536985179,0.0900383552343401,-0.6361818275992747,0.03655634387503001,-0.9591774460318475,1.004969956751597,-0.06752262636019718,1.1196766131198124,0.8351552928442343,-0.37906261835569266,0.06379993324988176,0.13386169598619033,0.19166319719522498,-0.22132924801373105,0.11947488033517017,0.016445401037150288,-0.03426109866722733,0.02474831394337696,-0.7103913971533377,0.13297822839966833,0.15791683719817884,0.232922921165638,-0.6155150240270092,-0.08686754500002324,-0.23809232161900407,0.18480305125791416,0.305377590317661,-0.3932845863734856,0.0028493988375198898,-0.10364704883084644,-0.13373510645535497,-0.07404420585475385,0.008840285621764265,0.11327832430039744,-0.23376314681153817,0.2722131502772396,0.151957590534701,-0.27617357978819695,-0.07836214098609962,-0.012374027584636547,-0.08099807564474469,0.08351662657942908,0.03935017356848844,-0.002633931551125029,-0.015003154197733782,0.009798833563363134,0.08078174924451621,-0.0500302700496824,-0.07374322632959879,0.012476294045583203,-0.03660794411683753,0.0024881596875604393,-0.040670510854311066,0.004585536441663502,-0.10449274503384239,0.024365112071633645,0.08704357446530282,-0.08671076737456747
118.42915344238281,0.92059326171875,-0.07858184444972274,0.15993156519608653,0.12372133241480872,-0.27423778860691067,0.12587395624567463,0.9960448112518929,-0.3991573039580135,-0.3784904753266115,0.4404527675935921,-0.0005259432369011871,-0.22784269322800046,0.06373445924718191,-0.022690124308839738,0.054028783003796724,0.1886765301230466,0.009252359412566497,-0.1613605372000254,0.08304887487795284,-0.006966291444487247,0.059480592126956285,-0.1735130021757644,-0.24456061516609412,-0.18721112811285778,-0.10368343362411965,0.10679839372564995,-0.1347824574302269,0.14155974786110712,-0.007116331694750821,0.19144157512416,-0.19021587831614808,-0.18836144673736593,-0.13367294208589656,-0.2276051670064053,0.3087923058304496,0.09368846148397791,0.05936661446712933,0.44431616267980745,0.49920509042631933,0.16674812166029765,-1.6316280657770916,0.36818606841781576,-0.38541285589551666,0.5899883091656428,-0.10100396918311438,0.10279915869106963,0.2925419705195702,-0.5978062889793941,0.015647280915625325,0.23693207874836641,-0.07705138233416055,0.13762612310472727,-0.4768179333249541,-0.0693023108310026,-0.04089639425622153,0.023099186012467923,-0.039513253661771636,0.12843655835094953,-0.12705957738821436,0.8129365604129081,-0.7468631135177285,0.312437157604482,0.05717457802983064,-0.11021539894039177,-0.07558639980436167,-0.3218468074562387,0.5917628669367316,0.6644889221136466,-0.5286935620848116,0.22963283481916216,-0.16727022148496695,-0.6444669929841816,0.2039135721241984,0.0401479538785897,0.017570502455926673,-0.3252235307346598,0.03157038732551755,0.06808962304131744,-0.2013698864641421,-0.1850199887946607,0.09464214145992265,-0.1391038454167625,0.014278117858712594,0.02868048820360989,-0.06965401407603336,-0.04791262676127457,0.01550455553346402,0.04506217677656912,-0.07444645769039013,0.06529227604884538,-0.03671589572663029,-0.24046530383066284,0.08541433700806343,0.12669542048967092,-0.16105375748157777,0.07537328011606369,0.04408802522141064,0.15263869808647593,-0.34942494642403094,-0.05458177318686013,-0.12549080964915296
119.34974670410156,0.9908065795898438,-0.09116242815685499,-0.012464920492595247,0.009500226223775301,0.41870455627055386,-0.6395436635260325,-0.5517757914978646,-0.14175918401367257,0.9922885676585541,0.026699745613477655,-0.19163348554020626,-0.09667549726546246,0.4004656111114717,-0.05155666874720435,0.009604908035261182,0.07131394635105183,-0.14836433073731212,0.31348520828033205,-0.011709619368622071,-0.12898455677675402,0.1336543249682824,0.03498484516258564,0.12196294976885934,0.15830908954577652,-0.2547023660204817,-0.09346708151388988,0.07744527987536179,0.0787010754445504,0.09098286843467762,0.05945475708819332,0.143060522386485,0.1526316175036518,-0.539748047512243,-0.12719624660426151,-0.5327134889016403,-0.3498392121736419,-0.3537249299196007,0.7033752355214481,0.22722673865140408,-0.8703398180770667,0.5718689920194788,0.09727982673551698,-0.7622493331392429,0.2602988506024798,0.9020040176190673,-0.012641026305724043,-0.6519919565485197,0.5818521840444226,0.24262757973142593,-0.2636316993544206,0.3884694125160262,0.3000817961418059,0.16724599482496338,0.18638578403629003,-0.03147602414352744,-0.04799083386259992,0.009305552733715437,-0.05938774180335428,0.00971758885445037,-0.12106674642434749,0.2867273296680146,-0.512616954394951,-0.20465255533930532,-0.09902978667190494,0.05132903482999357,-0.29879312639190775,-0.24696233395284295,-0.482793135821124,0.1164071707102285,0.35100248445042914,0.2975291694736153,-0.03873007594141989,0.048157156487646235,0.4928398093034887,-0.2835569616600185,-0.10101360379910945,-0.03734178042040647,-0.033012959665969344,-0.015530151484462781,0.25628998776886797,0.07688053324706663,0.22543335433391284,0.07306529069839929,0.18704317996965567,-0.03295999605751312,-0.009318042755750752,0.019885997391203607,0.07412777923755429,-0.07211689731920132,-0.11777277415884692,0.25281497252282903,0.019274059569731467,0.10275082168665968,-0.19638887397220067,-0.016102142989129677,0.01034906933366755,0.1176904379563506,0.07058389148932376,0.24228745467401785,-0.1287367657830159,-0.2051112807863299
124.13294982910156,0.9005966186523438,-0.2662705729521865,0.1355159496939939,-0.5572756317703377,0.11885831342929598,0.06209888265567507,-0.09675360087725006,-0.16002968632557338,0.3587574308805514,-0.23670626147721524,-0.022373045713920226,0.3819282904606287,0.25581445298032324,0.014988628717822399,-0.2256943510910786,0.002622121556050336,0.03929460346131418,-0.1888657672089349,0.03606365403698874,0.06692071623452303,-0.11257050611244002,0.31548995843941113,-0.06840687367768004,-0.1821712396318081,0.16871878468926918,0.24981701997291103,0.043162284525702685,0.1610083718009044,0.3409866733731316,-0.11184876993541168,-0.22026963323036158,0.08647632717342803,-0.10425307232016523,0.24469841460619884,-0.10339116942710036,-0.10485086697234769,0.532883675850283,-0.017988343622340613,-0.5096032923546191,0.24437856830324498,-0.13924133254439156,-0.6623508584670434,-1.0635637779499625,1.3037147032692205,0.22596424101587728,0.13887657894281316,-0.40717249198901573,-0.2637287626740231,1.2681571039007755,0.051006483560585014,0.5543326735824525,0.1779452697071516,0.004536875746959454,0.23710099060912748,-0.05982272342814627,0.18919859206352296,-0.10206717791573712,-0.04639351587699968,0.050809557091704524,-0.01147992862952598,0.3083123625293044,0.05219286795673796,-0.39264469170746075,0.2833034450387959,-0.22296464116412484,-0.30063713760739785,0.04855935542035418,0.6092968614984381,-0.5944515423634958,0.2643750432551039,-0.3525952393881446,0.24960411889617673,-0.2086349339672773,0.18793058409259433,-0.34684643809863475,0.07136304873944567,-0.18320246344310198,-0.02776168102661759,0.013410314793275499,0.20786962879546003,-0.1140086519366508,0.1588477329651711,-0.3237797735285126,-0.07705871664663808,0.1125633277848434,0.06179592034814803,0.02990319864709926,-0.04294755525397932,0.03690408423316778,-0.3232319760199211,-0.0445692520115183,-0.1321869171158697,0.013902514084412747,0.028889862065722638,-0.1553425393137197,-0.009842220571003334,-0.029041969354613516,0.025475871839434325,0.14459839946103326,0.16032561012008806,-0.031537727201351895
125.0335464477539,0.9406051635742188,-0.03229144640120166,-0.12872988357866585,-0.896706685864202,0.9967589123087448,0.3632820043480499,-0.0118657393316818,-0.48679339277163247,-0.29234768637677544,-0.007061237108568354,-0.1090168234172002,0.1059887001880843,-0.2887261936376947,0.18942204320287126,0.032116370675879545,0.13965076637410592,0.3257599363644923,-0.16483966825112775,0.13788341118023745,0.27085906357545164,-0.12473107285032606,-0.03585877634920008,-0.126368727063934,-0.19484980941256216,-0.02240866834458461,-0.006363496421403159,0.2329284562374695,0.02677416160927597,0.2039077893592839,0.06339469466648884,-0.22259191737348666,0.5241069688494827,0.29104916867929886,-0.446359572256756,-0.14626604677789623,-0.2547330289210879,0.0013687267390421086,0.055288618138582865,0.07843263848197214,0.3380256179655306,-0.08712711460420407,-1.1684136311224504,0.2058447890836671,0.05626301634071684,-0.012187406265344064,0.02471816693976433,0.2378350488074415,-0.46471710748780104,0.8024265100609259,-0.06782262909057969,0.01176203412421245,0.05188625506757254,0.06618397529296406,-0.07501944995796704,-0.052531004141423275,0.054861900350354174,-0.04005261732614696,0.026739525486816563,0.07139304049701248,-0.0273753472130411,0.2980107868128008,0.08100015832256038,-0.0506641774993451,0.37941564103387376,-0.15800248386152807,0.0029372375996993133,0.26996766121164584,-0.07670263283439559,0.22766071101197713,0.12187680662107991,-0.10291360175671431,0.2849599112248493,-0.23035216462693422,0.40331446874717347,0.04995917499087951,-0.005054520940572946,-0.1503560426792577,0.04429619630828002,0.1560727355698783,0.22774171536816773,-0.15331989790577982,-0.052916507428555526,-0.02382511662423138,0.15470009741377763,-0.11877235378693851,0.04433906298374615,0.022448531054948012,-0.03065225780174119,-0.11545771253708519,0.041980065600616484,0.10553920480235435,-0.18297619021272749,-0.033451496087050024,-0.03416681129133019,0.02420844323126135,0.010629095147467595,-0.08924412772333556,0.04138845135573551,0.1002351403762933,-0.0806902398495923,-0.05050119110976764
125.97415161132812,0.9505996704101562,-0.049069531861238094,0.15406665599705838,-0.5641942190081249,-0.3986359892045681,-0.3341282530153374,-0.24291613388283528,0.21718383709444072,-0.08183447215578932,0.7379066804511749,0.1862639436243428,-0.20601618038394293,0.007671779125772339,0.007877549861948534,0.05856677653094051,-0.1841636632235469,0.5088559687745531,0.09383312757243903,-0.09584308643437409,-0.11047821918251542,-0.03059802385647881,0.10403724009411762,-0.20941535968740463,-0.012885699443551132,0.04181219673921614,0.057923289094673085,0.1271653857378755,0.0005300863127952748,-0.01959373990532263,0.03913572264695189,0.02034899841691607,-0.014397676567730324,0.005281819273380714,0.228033781666169,-0.004283711696953816,-0.3084875993382328,-0.7661673322169248,-0.939962351410178,0.5823005569254234,-0.37553303263620025,-0.39308494999497245,0.007165676890453845,-0.16939043224688663,-0.009514102255772074,0.20507786757100893,-0.4106495463351043,0.36175189785784734,-0.5225756385024459,-0.39665850387304413,0.49317538687021595,-0.4267391738087409,0.04215794325822747,0.0886706147256157,0.1463488665764462,-0.07120327043928085,-0.01307843504391995,-0.003039276770892635,-0.08595935218029946,0.06339655982115903,-0.03517798893201178,-0.07635659898753346,-0.06676601851980314,-0.24146466285475338,-0.08553334944345248,0.04501786461030312,0.1840936646747813,0.17738060932949348,-0.5711748123424494,0.32814371963542366,-0.13707875932543842,0.1777223482973275,-0.3631313216217771,0.005782444788440994,0.1930456421458471,-0.0696056131906466,0.1287173473116208,0.08144729822409028,-0.17051750801387766,-0.034953999325085104,0.0323888629866574,0.12205167819463372,-0.14037863962152786,0.004318803684160315,-0.07332360838761587,0.08432701328360906,0.052325736744675014,0.033839341885368905,0.03748311172380823,0.026063300119826813,0.035497985187224454,-0.018576893350555786,0.04558934064308742,0.10079442988285457,-0.060140741357113156,0.05291251094504972,-0.0033063073342736414,-0.06086296843992666,-0.011683042059535671,-0.06853949230819266,-0.06398828845294462,-0.4779828183295307
130.58705139160156,0.89019775390625,0.1629709229487806,0.08220200527636683,0.3228674930791643,0.5234170879033474,0.11776272673746052,-1.1364109965442915,-0.04353353972645908,-0.48626069533473454,0.862739686577765,-0.09236216422040816,0.03415382888596773,-0.13780442918104474,0.11544604330392116,-0.16019869927881752,-0.5194530713437768,-0.3102050766316906,0.16389914448226234,0.10970726957018795,-0.01305412357539213,-0.13124239383078956,0.0260225268440483,-0.08683642181155041,0.01985766014822927,-0.1453334965221388,0.16629531885060547,0.14785445311989165,0.08290654211893991,-0.1298319183841436,0.06147450750431602,0.06096692716837432,-0.28854154597279835,0.5970848884338441,-0.7438853939220589,0.303230595526864,0.16835302104138872,0.9104651885294712,0.1788007121268581,-0.21411898888152006,-0.4538599528958453,0.6813093258478851,0.1671122100254589,-0.10207284202228818,-0.20361505721078263,0.11504198271092632,1.0998862310671362,-0.030690111724722104,0.47481617907462903,-0.2690356525655386,0.04130554401304655,0.33181290800758706,-0.06624868011419788,0.2747268438000876,-0.1402424516082124,0.03709222505561752,0.04078646785266293,-0.13054447553757625,0.09495125686301406,0.10091685266763425,-0.1264978432229163,0.37956184638743673,0.08796018040013492,0.2390249050518845,-0.18286909763614775,0.5545620732866609,-0.27621963408425165,0.3168219921117689,-0.16924016338559117,0.14577175083442534,-0.22405485835063776,0.28734921875264396,0.3375743102882956,-0.09594599010599188,-0.0035251513020687405,-0.007219896818996346,-0.21632252441834435,-0.1948184640714131,-0.007395485856144038,0.0036519091991325174,0.05989511308876373,0.1819946712610316,0.0831188307312834,-0.04184562548390808,-0.10450467024618454,-0.05224714486470051,0.012735634046030054,0.0437822225301082,0.06718986306004654,-0.052195857789470015,0.11621275892522659,-0.16663607386656432,-0.3088021917338755,0.032539496614149524,-0.021134043660691035,0.016272223302983654,-0.07714789516989184,0.11047596256922437,-0.0593865301420029,-0.038122251303353887,0.03131861123083408,0.013199214880853474
131.4772491455078,0.920501708984375,0.0513694356673583,0.8119283695796446,-0.22140807994444722,0.01970982000816883,0.3975768876375835,-0.055177159714772925,0.23789061060682437,-0.3786254772777301,-0.2164239692218124,0.05655806084156981,0.08787671365008065,0.04064739785825403,-0.1673411260825291,0.15951672749409784,-0.09662856241902253,0.16894521824724829,-0.33093351095959406,-0.17307854606776912,-0.261499833717901,0.18556634922849316,-0.28085408399597805,0.11784285494560333,-0.1315849017335241,-0.05463145290263057,0.041172573141794275,-0.022920607567700955,-0.13697448128065368,0.2027613178039282,0.16049053840436253,0.20728755848820446,0.10305819711875658,-0.23054176244470348,0.4782833051756827,-0.3368315164382075,0.11842706683720017,-0.2151625236268441,0.18590957168023375,0.32161672354184373,-0.930231521920016,-0.0006098498349168813,-0.3972918583500497,0.18444432410624684,0.18793278925192208,0.22819858760047695,-0.839399414808404,-0.4724733839160075,0.14064095585074826,-0.18576732852789113,0.14742580439326933,0.12531288639902904,-0.036586230574356296,0.003925123449410817,-0.2624127106557751,0.030049752306869425,-0.16388576699604007,-0.04144507552367091,-0.08219412592588696,0.07052413187047245,-0.009278813278048414,0.04361459408229138,0.15663647055620072,0.40498989617919584,-0.24208065249155505,0.07112327412798028,-0.014781583280633368,0.06364703416569525,-0.3522589037180254,-0.0761710219622505,0.22045631480019423,0.03487566723317904,0.14411202403586737,-0.2710743327395573,-0.06856402547669337,0.12531378515619182,0.16278728385919872,-0.14541537866050222,0.03922829024443698,-0.11657355876430096,0.09048609767634963,-0.1023802901647168,0.025000519663555792,0.0697534708954053,-0.07846310910407298,-0.01933695214771894,0.007656616111198682,-0.1448487308908871,0.03095478253508721,0.18364850491651474,-0.14176343317199527,-0.02742071544626505,0.05566075752340019,0.06243198967244693,0.12278551478442858,-0.12723167104466346,-0.1441263372009406,0.02223389452204725,0.0017040795426929711,0.025302266227989388,0.08784732050640198,-0.4838105244369775
132.3977508544922,0.9405975341796875,-0.4750536532620576,0.10019333326692557,-0.08724649683249652,0.22129045503911157,0.4112793032511369,-0.1927536684504667,0.24000062891202306,-0.45032090793691193,0.15025036537624648,-0.40453106910566616,-0.006639622196369904,0.1366634465826498,-0.04163279056454673,-0.00841395248646682,-0.010850455939922544,0.14459332003572012,-0.1434361114540061,-0.23635248001252376,0.268669887210482,0.09868046294368892,0.19613912747895323,-0.12070295355582505,-0.09271008938886661,0.0028399611774520273,0.20650802685842204,0.13415061451754318,-0.13676623757013098,0.18500193801514775,-0.18418720705303523,0.10860894049988358,-0.16474524244800556,0.06227505103251097,0.5422524286966255,0.3429868895929316,0.21570917787556876,-0.1955112287769929,-0.17398589009827803,-0.7198126104324164,0.2979103247223297,-0.49584839311954243,-0.43317652331468487,-0.3016437393950343,-0.1367972862797124,0.1500598246199303,-0.03782198198981381,-0.09133601955472725,-0.19929369042977388,-0.9524530803116666,-0.15916976055110157,-0.3092754543463493,0.051419763652618494,-0.10769097442679468,0.4444696332406172,0.10590223271183358,0.0889998654892678,-0.8301093285240935,0.09646514480199278,0.005935021767049905,0.05863149458329333,-0.20513207580752107,0.418966964922455,-0.11862565345952286,0.623178618853952,-0.6481535981304909,0.2820649296770343,-0.21331840143790776,-0.14905668088137053,0.06309561957833394,-0.3779221280726908,0.03337410771905211,0.0035705563378813504,-0.7323019609555211,0.28771954738998706,-0.5051727870902518,0.22157622321550727,0.2114653055357229,-0.0886760426770689,0.18365961533596822,0.06388410794046809,0.028280142632803512,0.023012469597278616,-0.013138658611611675,0.0007161055687277204,-0.036681467052702615,-0.020816618668424876,0.0812029510650141,0.034485671751134095,-0.0381023832424016,-0.14703543655574253,0.18873443652130784,-0.09086114276517042,0.03735038348193318,0.1319322381607106,0.032054571075025635,0.06919671735277018,-0.09873492754103502,-0.23089865428943146,-0.19935233965017696,0.0016427251049111486,-0.21919582810066904
137.09104919433594,0.920501708984375,-0.13647592061752367,-0.19681128262717476,-0.6709588597175717,0.3296438177954503,-0.046105882090723804,0.5435681507645651,0.47156287926914264,0.18937931685880569,0.61487691325644,0.5095252139273679,-0.18505569369885658,0.0348531992027966,-0.16339354017273983,0.007167737441547844,0.0054961799253575245,-0.011500507117678735,0.042667326099542206,0.147036665896623,-0.04823977681691245,-0.1272758437528358,-0.13104329420253466,0.09285074981038048,-0.11280034819909235,-0.03364737419054078,-0.14116132797955244,0.18197557029823158,-0.11055090017241134,-0.0469419363913322,-0.023169541865734812,-0.08805362181694212,-0.4566534594544784,-0.32023925235686734,-0.01725127374041753,-0.2660606894337809,-0.5388627020611715,1.0339100056845076,-0.43133067448359047,-0.20949639257617267,-0.08092289249466789,-0.8193420597654966,0.530295309590527,-0.0853386223667171,0.5025697440520955,0.14330532945007718,-0.16659731352513765,0.2786382064306534,0.39911288771824704,-0.47319562178622476,-0.32296045429489173,0.2165429456472972,-0.06823156306556055,-0.03457968868997251,-0.09303654046900064,-0.13105164422691723,0.01680140585573887,0.05830755564868183,-0.016287531835555327,0.07246345033094065,-0.32331474891684203,0.37511807711709194,-0.48728768726246735,0.22818842241488627,-0.22831466994781527,-0.06007593087609808,-0.053936691701057984,-0.019397613205129963,-0.58726243803117,0.1012999315176657,-0.07848910598302533,-0.001395810486326676,-0.01280281294039955,-0.02536389517129292,0.04810213414378049,0.11491901570294656,0.025578784734206085,-0.20565660534189403,-0.02679916446408416,-0.015476543033351664,-0.004365894667096373,-0.01218052261359099,-0.04690814646848653,0.04973686178134102,-0.07642740592768081,0.039488179706433486,-0.03437626996781536,-0.07852357667831725,0.016050099754731515,-0.06856021961688588,0.15500124124228032,0.025290838017264047,0.08776584840905002,-0.05809620588420941,0.19760198552672678,-0.05713357875961431,-0.04071881470502169,0.1574672910288254,0.07256850720142352,0.029476741363790124,-0.09909368935284829,0.06745533558088007
