start,duration,0,1,2,3,4,5,6,7,8,9,10,11,12,13,14,15,16,17,18,19,20,21,22,23,24,25,26,27,28,29,30,31,32,33,34,35,36,37,38,39,40,41,42,43,44,45,46,47,48,49,50,51,52,53,54,55,56,57,58,59,60,61,62,63,64,65,66,67,68,69,70,71,72,73,74,75,76,77,78,79,80,81,82,83,84,85,86,87,88,89,90,91,92,93,94,95,96,97,98,99
28.33315086364746,0.930999755859375,-0.002714742884441096,0.013452396316496397,0.19274415407094508,0.026232627071632965,-0.07072357914080969,0.19147777314549957,-0.25771403287222244,-0.013488279483323082,-0.0257674018732583,-0.09930866456406126,-0.08723275721963668,-0.14858414035927264,0.48695489693231897,-0.1601577362099241,-0.04138056924116473,-0.24812578845944944,0.07958079618339814,0.13346663133698908,-0.13043739460405673,0.0716719022257186,-0.3265834477500003,-0.0051584487608177885,0.06554383881402827,0.02588811480682017,0.016231951726082505,0.05775291257490944,0.12736709420828624,0.1032213847709837,0.022645784543063582,-0.08652015655292464,-0.03110572762387917,-0.029820544138507373,-0.0011588502542110473,-0.04291358004447234,-0.011105636410495038,-0.14679427434531128,-0.09488009505482835,-0.08378207304004988,0.001192764813338413,-0.03017788374584271,-0.0581285132006831,-0.027712968106629307,0.06095201717198288,0.027408644749968278,0.03758481937953009,-0.0760715849986315,0.05936746186699513,0.07233017298069988,-0.06823433730245927,-0.15838546150436564,0.16735552509561105,-0.05510800476283356,0.17216898499856498,-0.03364341615069545,-0.03969148817589293,-0.06755671814514966,-0.05393343518136554,0.023609721632958103,0.04724596505212819,0.06893071700904195,-0.12584373742002322,0.4230684972643819,-0.06713086042932029,-0.038169330665532866,-0.10159176419658504,0.05594610054410333,-0.1913122248716017,0.02854023529617426,0.09834071842826717,-0.2751199890891794,0.09717916172426859,-0.04043014246251725,0.024247453147837834,-0.049665886664133206,-0.09448168279316412,0.08429158914305804,0.044898427465454985,0.000516339726582063,0.023791238779964478,0.0029993283060411003,-0.022741922903133746,-0.007834616256595196,0.12079564358348009,0.0035077354030752413,0.008942797216650727,-0.015691475112344352,-0.0077673285108772906,-0.04746734412261287,-0.0720101002563663,0.050306414256264004,-0.09803692681295081,-0.03570221342512888,-0.20344120713614552,-0.2721564285857085,0.009023118506512492,-0.2071053472592177,0.007461132062417187,0.030431302556711202,-0.004515811673789812,-0.0617290347361836
29.264150619506836,0.9004001617431641,0.06510790071400478,-0.06114760661081235,0.0023894186743775806,0.10219670400275888,-0.16657952114540833,0.050874770575075064,0.02726473303283622,0.06737902004249736,0.1874693451805363,0.20180526557802583,-0.6797688834684695,-0.32741712369065223,-0.10880603250597459,-0.08498170424778202,0.0538717309463923,-0.24730757395345765,-0.004684067586522962,-0.01658365781785453,0.0013764249098889916,-0.09168323124836214,-0.010787603144275612,-0.12308431619555688,-0.0918288915843091,-0.026037398288684052,-0.17521584702914372,-0.053500085357213616,-0.07292902091100101,0.005122918335762671,0.109402242167946,0.0026578266156796863,-0.012327732342814065,-0.006235394898609107,0.024851763465880507,-0.12514602339453593,-0.009563768254801165,0.0402067641769779,0.12934248966888987,-0.08781555536907905,-0.033712258628746744,0.14785738077459662,0.037618278623423804,-0.018782096715583226,-0.08231504212273905,-0.0462057296314324,0.08659201190186118,0.12387175959677105,0.18412436378580696,-0.06457348178403123,-0.5170704749437834,-0.07786838579668368,0.042721264088624374,0.026076698669214058,-0.16765393468346046,0.07199012095046194,-0.04128299278139166,-0.044093142573896564,0.05458767687374099,-0.06174049041945463,0.05106506411672773,0.024222927460770028,0.04726768191880842,-0.038397951320421106,-0.07000251407502238,-0.05266544640593296,0.2601300319301252,0.12373513785946784,-0.13946716428700376,-0.014014224862113678,-0.06372893058127319,0.046553635124069945,0.03199320086959717,0.013437736084753293,-0.03067690227599664,0.003071787529322005,0.10203131362557286,0.001850560801375939,0.07110255459587465,-0.01652557494467895,-0.052746872788746416,0.03484177520203364,-0.0040057100536051455,0.027675814745313367,-0.001834874121389224,0.02532357901181283,-0.05210044907152349,-0.12244780358592089,0.02078475879660781,0.10166216473198811,0.013209934856697178,-0.013844684343715528,0.16288143027512023,0.017201889529442134,-0.0244292500063068,0.15054840256165014,-0.07347380379994162,-0.022648622310334997,0.06814539055127986,0.05644797718774378,0.17787469585590043,0.023113844699843483
30.16455078125,0.9006996154785156,0.0049255248254337705,0.1402001168563956,-0.18695392956714485,-0.3814258370288161,0.6212701613210945,0.09294069537036515,-0.5222358233384092,-0.5968548611828827,-0.09976668449808546,0.490039244654999,0.17561573294652522,0.8588193023262822,-0.8927940798115019,0.8404959942931636,-0.39920262415172947,-0.054827850446035914,0.06914514735172167,0.16207292072419213,0.09143138308496232,-0.08074651128282678,-0.05043006950074306,-0.01235492684344042,-0.041015682538879994,0.029062381630515086,0.11527892893856707,-0.04376227099985885,-0.16676876529900597,-0.1014307522588857,0.020797357517649127,-0.04006331955089085,-0.08905252789651855,-0.013134316628224021,0.12791888853491823,0.11076773015604882,0.12379756896858962,0.10398885137414168,0.011364773126826572,-0.006737207646706857,-0.11252379172224942,0.10243096209130556,0.016113632409605668,0.011686537631767774,-0.008951344173886286,-0.01471468794205815,-0.15458173886199966,-0.13078174885192662,0.012593112634865705,0.17030593780252057,-0.31614867156391724,-0.40019810102204284,-0.09396943255655524,-0.14837708771059752,0.1099636063645523,-0.025767226816535916,0.021746018444235807,-0.08998847255156747,0.08487616348004275,0.03883361120455374,-0.003756751338378758,-0.017111922242870718,-0.15885006965417683,0.23439130404607386,-0.11035366035852975,-0.05786784811236815,-0.04691450689978659,0.0006103319258478528,-0.01385803591287242,0.001559362965010433,0.11815065178397134,-0.13552933592172467,0.019374090382323364,-0.02335399892342005,-0.011503639700735717,0.07662722826861701,0.007313918793237031,-0.007734181338552276,-0.011589446037793077,0.035687638718727745,0.011992246166422513,0.08510794881890632,-0.00039899873613057947,-0.09300256127400267,0.028224939763653863,0.06082710635948958,-0.10445518037879653,0.08074164526794483,-0.0006999836759420527,-0.10403611642866825,-0.06225935386384204,-0.002411506456186374,0.10985044292938036,-0.16733633520086272,0.0531275080517176,-0.03472439897581295,0.02438036473000204,0.08438019565263676,-0.17915934711360879,0.21708848427281122,-0.15380175814570632,0.10615538420479584
31.065250396728516,0.9004993438720703,0.1723195779846559,0.06006048348871486,-0.6456791884894396,-0.1752631273167082,0.28683221496894806,-0.11884333687064784,-0.5075683261460953,0.27319147700692276,0.7828456902900504,0.5746324894592691,-0.7728120523720678,0.46151896092969746,0.2902542652460659,-0.12826200491497572,0.3297314854084063,0.5351520438315163,-0.20225284806675192,0.004107356264018876,0.09448045483177658,0.011281291195446172,0.11615370500148321,0.057211108069517604,0.09191556001202611,0.009760555198036112,-0.08515232939242161,0.1484432560576603,0.0608437012796974,0.03900268779893057,0.007494638815280105,0.1424441277270995,0.08502413269697494,-0.05242301946180401,0.03678399305314964,-0.033165134253917455,-0.03261152132006101,0.025906885431234598,-0.043983796982957714,0.11159593191347107,0.010223932504753341,-0.021521672253992066,0.008244574141151881,0.04498933726207556,-0.06696674350964896,-0.15637216413041993,0.04656617021467935,0.15261895051124363,-0.02461194545143722,0.042667385365139546,-0.160228122797616,0.037533939349266326,0.08499198715814998,-0.07130993204923855,0.13723738527241458,0.13195299598400653,-0.01879722374304126,0.03547404017294505,0.0900172611355781,-0.07611371338630918,0.06135630799834632,0.011715625709626832,-0.11762296832970824,0.2773877286127307,-0.15065010028847706,-0.003860792465672778,0.09149678903478349,-0.15409022097767222,0.2411732830824544,-0.1855323114335051,0.2573373037484912,-0.08965244457127451,0.10376780810171747,-0.032902406817264696,-0.03323652684923915,-0.06724939981494955,-0.009918176188045282,0.014329161703304049,-0.01489492271827307,-0.042210490115088484,0.0995185408272091,0.02203431269027267,0.015614847081893991,0.11654201600508876,0.0013958634280591556,-0.0479498564392351,-0.08793281720222618,-0.004014207120226354,-0.04595018385384714,0.07225237947488049,0.04389704252662666,-0.023821476908593445,0.056540788160407376,-0.07611725587512327,0.012211302208403337,0.1846566962386047,0.13890363705575426,-0.17111569476560243,0.0846766740654593,0.010427674647379707,0.22062580552008887,0.0355107679180854
35.6380500793457,0.95050048828125,-0.018473075329080692,0.29023788103686743,-0.2190896926656728,0.06272943641816703,-0.03539540955794411,-0.011579743399617533,0.23979873011122865,-0.2989196959398952,0.3977228268414998,-0.22815396390789375,0.23452325428959145,-0.08899188303542435,0.4625660207247983,0.36266328263660813,-0.049918108824571164,0.06542360985218143,-0.401985249838932,0.20170001304222657,-0.013599559967397984,0.14100969122514062,0.10411863274921868,-0.02209135606760795,-0.11103572201700039,-0.08902931714637652,0.007691059791193539,-0.033546679637063676,-0.08304304829300353,0.008020683277211088,0.01511252488879393,0.07038847221665655,-0.0830857535946507,-0.20709164536214003,0.38409845593144804,0.19103789636549695,-0.04843501271882749,-0.14458034421436314,-0.020069679752053194,-0.065768063752658,0.2581205886863886,-0.08188233025408138,-0.0038516076320271237,-0.024731836061604052,-0.06341962360825763,0.0669857163691916,-0.14648191501922406,-0.018219198551923374,0.03488171222334232,-0.07192479434294458,-0.20953035328301817,-0.04780248422887713,0.042906056271490495,0.1997833555572314,-0.05102535936095449,-0.032059084547104384,0.12372045817806594,0.021098711864425815,-0.16170989413210052,-0.090681938001372,0.33289466951299795,-0.19953607384815075,0.03395089931454749,-0.46241976266531426,0.2997098839474678,-0.22005875424160304,0.11186862031730038,-0.14943824153658947,0.054146689817493994,-0.05805519097520638,0.00046409876720249313,-0.0645355569025901,0.005563345775347409,0.07145692770173306,-0.03209230778520472,-0.13775236848242595,0.036482242913399215,-0.08201407716434285,0.000929611693574165,0.0499492233237611,0.006580843083873009,-0.06785433336723587,0.07914365172933181,0.006592985062817618,0.05715218231859656,-0.07012279097862067,-0.003442273617190016,-0.014765192447209502,-0.11174704215241796,0.030337937658690462,-0.12097197352448659,0.025084232613992424,0.13709418600941414,0.02678850120327377,-0.022112146101739914,-0.11318483859135015,0.0275286145689206,-0.013894785922943369,-0.23365680175220854,0.1283349151469322,0.021326197339391867,-0.12342024809848468
36.58855056762695,0.9501991271972656,0.03072904799177606,0.14543130904030865,-0.2581990427346378,-0.1365644552780661,-0.023287611177023534,-0.2533538809784118,0.22378055119878995,-0.082549479231275,-0.05449702349983487,0.19755051714465874,-0.05733453980655577,-0.6870017050851923,0.04787781414644565,-0.006074028142020376,-0.04047457025493169,-0.015846737936832972,-0.024537149943174595,0.03327596902400728,0.05052784602290732,-0.030338577368216456,0.054491777690534884,0.05170456335287055,0.07620392551771892,0.06833686778935358,-0.1545688213346927,-0.07729471273186028,-0.17424983084247544,-0.11377710422646321,-0.14654300179094049,0.022743733157831153,0.007146561501216019,0.03148149606127774,-0.025112575079784618,0.026330357557096482,0.003080459790988619,-0.006064324548195953,-0.014829257077774986,0.09846941335097373,-0.07112728953822163,0.017278584800465846,-0.006850344313713164,-0.07025172627042335,-0.06290706097491856,-0.0021080384718851,0.15004827869451798,0.17732527664951303,-0.1851315179794645,-0.13342085077011073,0.17677028854334037,0.128520824175761,-0.11910702580616775,-0.27098713025450494,0.006798599700125592,-0.29851259119821794,0.08685976795426703,-0.1314487506569129,0.11305810642202528,0.01497164961600049,-0.008674142982499229,0.086194634757334,-0.011317764325123197,-0.06976420600865282,0.014073239112909608,-0.07043288586521355,-0.01623288158258037,0.0071799345361307195,0.023830663499417714,-0.0017440181247441455,-0.00876409835414194,-0.035576384775008935,0.03815836665883697,-0.012288304308241186,-0.0011691300259805662,0.08180064034306966,0.10781398559510573,0.052166989329830854,-0.00594614602731508,0.03618031314565165,-0.023543964911425047,-0.09556598295414229,-0.04992383828453657,-0.08005405048913576,0.04845779840285606,0.027725955781224963,0.07840764607744694,-0.004000823836897529,0.03751165446046583,0.023265907080887698,0.0702385645279399,-0.03959752941697072,0.1264733792719574,0.021097585105382344,-0.0023167020965827925,-0.029997000101170363,0.1343385558714952,-0.02771659346687565,0.008102765779658409,0.021745786504608476,0.1257989316221324,0.06809069592119643
37.53874969482422,0.9706993103027344,0.05788177229390876,0.059799917965545485,0.039250427845634074,0.05305741715606103,-0.02170443340068003,0.0934834146757193,-0.08516230082717163,0.006939341783811601,-0.08363744205764038,0.18673162969043225,0.006731362531765248,0.010847092980536252,-0.2864609098264098,0.19424061072974708,-0.49596836991841287,-0.9674757088068149,-0.06978972711967091,-0.014573367153138034,-0.08812906694990853,-0.046694285001957665,-0.1076017525520774,0.1463924648109524,0.05325640288281039,0.019955250547806773,-0.013835792511320878,0.027338704654964577,-0.053917441958425794,0.11445361986550935,0.04498535869541921,0.15598294750933275,-0.08859867996645716,-0.029860591601706815,-0.05143671748299664,-0.07266854046874223,-0.06941293388783802,-0.12936182348324093,-0.041448216242380535,0.009951421050263417,-0.034122678115726945,-0.04419979085419564,0.02174749278548178,0.035147909980133354,0.1328094708575468,-0.032453922864415216,-0.018482469819309705,-0.07365966705096207,0.014614293363347335,-0.013926309795407363,0.14635829184723534,-0.1700156368394869,-0.09977786435982104,-0.4227013157312437,0.059643439856225715,-0.05359203553045852,0.15253291187805865,0.02153320089653147,-0.056126186145005405,-0.03950356568716721,-0.014370792265316651,-0.028787038259102893,0.054305977459921016,-0.296104489876098,-0.05927379240193617,0.1366500338519662,-0.30896831480162645,0.42804325294699996,0.05672096442700425,-0.08583003567228689,0.03550537215390566,-0.011104031125513697,0.003324648368327494,0.004109492858160508,0.017142684043556174,-0.006881933239059876,0.06090269667789919,0.026005696720182735,-0.020265798285580415,-0.02178325330465832,0.0630060181139044,0.02315675775324244,-0.017583716406856187,0.07329200020305142,-0.030379767576519265,-0.00777520907009399,-0.06119645221630312,-0.07100976670344708,0.0058767568403217275,0.06700077734347729,-0.009788428474033013,-0.08315217477492576,-0.010418087859682429,-0.027820929404839836,0.054888494344403904,-0.10044975395955523,-0.06040536814087399,0.04683139566890127,0.20517626361364893,-0.03389848744802665,-0.12687415527381818,0.019033773330497647
38.50944900512695,0.9210014343261719,-0.14971716402084373,-0.11173117496529893,-0.052957133376796556,-0.06566566543917664,0.03319212110875218,-0.05400728783180686,0.36720007316808523,0.25639806973836615,0.18322718188416937,-0.45993948508595955,-0.35175523903239003,-0.26217473735122837,-0.3650209631653565,0.09846610664312716,0.28729767089423425,-0.06684183942521058,0.4864416814092609,0.23641392998205296,-0.1171968175498729,0.0337020794915828,-0.002954292801096033,-0.05369344038431381,0.0915738565387642,0.018603084414386635,-0.005328489686609331,-0.058608869408370665,0.10822820083461743,-0.133480606927214,-0.05661088209068968,-0.10571949179700843,0.042763032583123826,0.09679478796143079,-0.051647536393308456,0.14771036340667337,0.11872066116671066,0.028102645736063914,0.01979720515810754,-0.03553242511162934,-0.12074915465362454,0.3513206584165008,0.026326154000159932,0.07560525448390348,0.048893254541883924,0.0053528495271609675,0.06321018422199906,0.07985258643554155,-0.061533776818006404,0.018817230514122416,0.07021713728735615,0.08230970790898566,0.022695291565712927,0.023270368154467955,0.07694487542899767,0.08819693898675099,-0.011357769249220037,0.024608687112853224,0.06885867839930064,0.03471741054313345,0.035124309717135455,-0.01377611684458122,-0.04833120040129827,0.05744825775783713,0.04153297773456768,-0.1461683215788381,0.00011370443251052138,0.033769946632123765,-0.013672462322024542,0.005094917704944926,0.03676487773110271,0.03414927798752363,0.08889267150920091,0.054894961770207855,0.08575272235999054,0.04578905462580528,-0.014067775921628514,0.07123670144358019,0.049753998514806996,0.011557699527087581,0.07125636100896986,-0.0024185350303299047,-0.11163760099480292,-0.06320794007602262,-0.04108948114690665,-0.15596298497212283,-0.07027035778623383,-0.04467926391501656,0.07438601549451551,-0.08756658438349037,0.09521548114182311,-0.026314152193515277,-0.029212012414172844,-0.11940768642802624,-0.2487675582977221,0.23045946380245075,-0.17885776499152214,-0.07952745665888389,0.04545297129065683,0.3760373849826641,-0.11875335686924368,-0.07507447438878766
43.2723503112793,0.9709014892578125,-0.11358519232070395,-0.04375217847136821,0.04694097444982829,-0.29603692725201297,0.13007371561525247,0.09730372928188608,-0.3767165777184152,0.18480984479896642,0.12864666107864856,0.11832000379990606,0.0672546184829856,0.09185944166938546,-0.11853361670625001,0.09762147639806859,0.20331031033497815,0.49704730814845133,0.1666718802102346,0.11886280210542792,0.09368862893304844,0.0518744604346761,-0.018029647023726704,-0.022754575524250222,0.028254489207026126,0.13825833938766932,0.035140643037594385,0.028220052598946423,0.02407044497548043,-0.04096728957727097,-0.05487670311233477,-0.021090659715610395,0.15053461960755454,-0.0015978028895897302,0.07439301505631299,0.03174076140029098,0.10177413184233582,0.039478778642143116,-0.040933408982257155,-0.060114309472225416,-0.034766345083970106,0.012866678076265015,0.021383543117258534,-0.03026176589171673,-0.10624121663438856,0.04012106118503917,0.06568778166886542,-0.03902894415566918,-0.13147667712134206,-0.046325193197586725,-0.10061369153501708,0.12760882994466824,-0.19144269545349998,-0.3405278873081373,0.14814553501818922,-0.02328970774829002,-0.007749164758356179,0.013660091415428531,0.10210071350306635,0.10731808356006411,0.07474894942971952,-0.1390829840349248,-0.10750566459349241,-0.10904746532160796,-0.029322135961594525,-0.10300164982925683,-0.05533042127015688,-0.03223725056720039,-0.13249230662029857,-0.05581505556237531,-0.020206622420238504,0.16100650887543025,-0.01583496399347065,0.07392908725496129,0.0006560098225848593,-0.020383300022775285,0.033778102026869095,0.04667547210601082,0.0009540068311610997,-0.020722774449536893,-0.008306697888560099,-0.06379275572234624,0.00011352029884273288,0.03152936854067297,0.03056022177631449,-0.06494703113058838,-0.02015355953816059,0.029257168732940757,0.002781731072467916,0.07939510859266051,-0.03172057624394998,-0.08061666297432155,-0.08731783188424143,0.05176071784386822,0.0630682858990285,0.05524311231127302,0.114679912407908,-0.12648920679337755,0.049123212143241,-0.021640259894282237,-0.19584723645329258,-0.020211447748121378
44.24325180053711,0.9706993103027344,0.09550726940322105,0.15204123607773246,0.14943158806513146,-0.14716250682078597,-0.06933288798419635,-0.19257943097539576,-0.3058279610105149,-0.35267688876900916,0.018786531430212892,0.2697616697857014,0.621026174834025,-0.012924274952415729,-0.8651191078690884,-0.060508780766677796,-0.25943953590207913,0.04164998466912512,-0.3573614981931744,0.053108210079232575,0.01462402950405067,0.008068780133096448,-0.0038912104492812936,0.16642389051327372,-0.13541759540580872,-0.12495310411385102,-0.01942273163934847,0.0033082592067141016,0.046893874841559005,-0.020925998040249003,-0.0059017911267859845,0.03356784298053651,0.0008922651397404186,-0.07420672382100142,-0.019947748916634752,0.03652259821339017,0.01855037050249706,0.1056036193857194,0.05852369551509054,-0.1398023888080876,-0.029309533176361764,0.0906089273080052,0.014088670335835655,0.0621429105002044,0.008880199625226952,-0.06711739697665825,0.016673329407528095,-0.01975382162279581,-0.11466015927412053,0.10078867057941589,-0.04791481023406687,0.0907281905535543,0.20949869840219953,-0.11296806460835945,0.2774344897791325,0.024797032074004292,-0.21185943097786422,-0.048573184090393934,-0.012920183590989391,0.0006430447493558089,0.15514143950491402,-0.19239519406997455,-0.12914122188243385,0.033798454227656496,-0.1852067634200116,-0.1841974754564139,0.31182172580200396,-0.04083986378512644,0.08270737630191531,-0.3691062858976532,0.03801494644316198,0.10632958301023313,-0.008563149157886155,0.04077524294061462,-0.0062701936473577025,0.02741788123997616,0.03919893143956307,-0.04750396271551655,0.061897077615178514,0.022134510900305618,-0.08153575647653372,0.08110722849233751,-0.05271186655536691,-0.05331892092630016,-0.0065852308076426135,0.026412097330727934,0.08123088350657798,-0.0227692025076823,-0.030730666125338334,0.0028083622191976366,0.048252750951892194,0.011778335520322772,0.09892602874235853,-0.07697098772779004,0.022062537380942843,-0.001940880286064095,0.04030926632094351,-0.31315108161297833,0.015331596938830622,-0.031480079477346,-0.043692631115099065,0.3506658176220812
45.213951110839844,1.0006980895996094,0.1630409271914925,0.0734397640598987,0.06886281488099877,0.14078727832762342,0.251311819068312,-0.21247050389633496,0.6007057604268182,0.6417706944850675,-0.17754483224514003,-0.5829572326145669,0.18237517575231468,-0.6813068721074907,-0.11101088586839153,0.6032413564597002,0.24138059638944212,-0.009690945928180289,0.12866321795750607,-0.041881890863767014,-0.030317155846125585,0.03796639034006791,-0.06964893667113393,0.04889607329410316,0.010749608809952432,0.02531269409399642,-0.04596540073559695,0.04621535201130533,-0.028125126939691197,0.010149400876025845,0.024118066278523555,-0.04966605309687426,0.06887022692130863,0.0374763001742963,-0.03209501830747104,-0.04104233387340562,-0.03594631596731591,0.13278051942741134,0.038556613953996434,-0.03620016934067874,0.00478682080545483,0.0891609058484356,0.01109581410894116,-0.04271412222171906,-0.01977764737798644,0.03807428630873126,-0.05438161818355206,0.0425531087695232,0.15310304888280837,0.18872427708343886,-0.05090712033262511,0.4082165529542332,-0.03882511579003149,-0.6004865814667851,-0.05794351078514222,0.010259267194411004,0.009037351898396708,-0.013385498850753906,0.04550542832640365,-0.01694359235883015,0.14192569516098433,-0.06689819866329279,0.1964004987841673,-0.032080387008702915,0.021376308129117613,-0.04284185446434157,0.07019040905713779,0.0708817835410169,0.037582642404190146,0.10879934287239273,-0.06812615004638475,-0.07039820759413185,0.005006665841928412,0.04878222365408203,-0.07891805087789416,-0.03656269268737431,0.0016489316321286825,-0.005193909206738706,0.037660348604835955,-0.03151241862948059,-0.08582962777837758,-0.05893416257648701,-0.016479147388836532,-0.046704976226538415,-0.08012011298752468,0.06368117771483113,0.023935539048909108,-0.05121892572996299,0.10014874947007112,0.10496991120459058,-0.08241802618760127,0.0051382836808070275,0.0420666857776648,0.02135256788524935,0.017558678333189085,-0.0684412279039691,0.026568949356177794,-0.057762525984815266,-0.03218312637014946,0.09968038771875982,0.10896259083201505,-0.1713170263193119
46.21464920043945,2.2514991760253906,-0.07958799350546923,-0.16816406958806085,-0.00726208025464585,-0.2309053547677377,-0.44232250719357125,-0.4116714667217744,-0.21578288570602744,0.15257159031861783,-0.2251651098149366,-0.3653635268012468,-0.29153131332444027,0.5130543508250884,0.13469335543060415,0.07945669209066683,-0.26688046773451024,0.2058560531344418,0.07239253422427319,-0.29882284850696755,0.17259391274499697,-0.15890629563240355,-0.17156839298453652,0.22775008760330687,0.3976076904690139,-0.020935686100586975,-0.10167755124939651,-0.1798722309882135,-0.018024274370991737,-0.17767463912485137,-0.06094446891734434,-0.03107741747421265,0.05039069144288029,0.012619963748625165,0.0722385407343149,0.04193950495747556,-0.020384824428830606,0.023719230953433004,-0.10291465023187324,0.05517215944909601,-0.01171788674625128,0.07182841285913671,0.15453082830585016,-0.015211542800820922,0.08332155140524304,-0.06189683945534838,0.005491700420478812,0.11134973017529515,0.01568926034058621,0.0566772480606542,-0.47157452770439034,0.005808039886062773,0.007733733574725746,-0.10213124132911214,-0.38267469897809125,0.041128948816447575,0.03037685138711102,-0.1660726240804185,-0.032607234283709374,0.06416977942858608,-0.11381438833934926,-0.016990944124982386,-0.06106434376461454,-0.10390687175314785,0.05264044841746232,0.19286485249530913,-0.11795017647477594,-0.0034436297029741226,0.075893894920138,0.040129354814325606,-0.08855372526197104,0.017894905426843372,0.007661559116648594,0.022313842839594127,-0.11452072063827162,0.0068030798689043695,0.011857081805654111,0.003277421339507397,0.019338678196805265,0.026261163849160784,0.046199306972014,0.07507381988240652,0.041869657427216406,0.03870927754897798,-0.051437803905172816,0.0010082425211747716,-0.00703992098361826,0.027445184810460568,0.027673372651916522,-0.0005823126074268777,-0.04005586632518599,-0.010118415473184983,0.14531253138393457,0.027659032877594573,0.1456374977068211,0.01791589901029051,0.04662050947170858,0.01389577487466256,-0.12458220364705547,0.06899170334332394,-0.061071420347839495,-0.11618116082406121
50.53725051879883,0.9902992248535156,-0.07627937904503672,0.0027745953630791687,-0.0027633923950934006,-0.01633227592281699,-0.19217654058318875,-0.0424605006399016,0.07374130019473221,-0.44380032989947976,-0.10706434374619267,0.3701466800675875,0.9862746240624536,-0.09562951526839909,0.031244897909261563,0.07288899815188016,0.10509237184089726,0.4063092659587579,0.07257789582088833,0.24962006263977526,-0.018312957454420884,0.03877585058305813,-0.04942703888506525,0.08451300848738094,0.13470495591976506,-0.05761591345045616,-0.006664656116631059,0.14609197053231307,0.15787702959397942,-0.0556273364667534,-0.02991076890371846,0.0031762335416639816,-0.006266481671591013,5.0468373325048086e-05,-0.06911444583448638,-0.002035978010755002,-0.022691307539830636,0.06295902658228805,-0.0652150507358791,-0.07144271479997394,-0.02763416925947018,0.04410726664832741,0.03528738511758404,-0.22459014915539033,-0.16128977318084062,0.07148597740151875,0.00015092332294294936,0.014206235982979182,0.11386127439493735,0.17111625926781185,-0.15753305332321804,-0.019400610660721903,-0.09839800831861414,-0.4687380927771208,-0.03196946448164319,-0.11031660774318977,-0.1522268284275184,-0.031629093263778274,0.037319520295177086,0.07705310505428103,-0.005315384621168304,-0.010136820414528586,-0.12087986094415322,0.06320243245311914,-0.00321142297863344,0.10180646781462249,-0.11841508341270077,-0.11284978221486562,-0.028052373060205825,-0.1190578403289514,0.023707733177430065,-0.0075117470197291255,-0.016283424762029496,0.007501720138265141,0.10313212986002529,0.024684855673174057,-0.018850191098575813,0.04551581326814781,0.02245764223854904,0.030403077793645053,0.0040934997967434225,-0.015908646337150296,-0.04371550945373062,0.023554973757979516,-0.046311617659242826,0.013127363990414387,0.05197114681719174,-0.0008851640618173957,-0.09642783788665356,-0.09334590818151506,0.08004000383548424,-0.014424273354676007,0.030447407980648322,-0.07718410718904459,-0.03005822336887383,-0.05151821329910393,-0.1463111804358998,-0.0431513523030375,-0.08495248598189314,0.11342273106893316,-0.031122520393251512,0.12680911533441722
51.527549743652344,0.9911003112792969,0.09461345657400896,0.16112895778160052,0.07675518793862067,0.08420968223610938,0.20014693524858232,-0.09045287562897235,0.04804207800633159,-0.07832955354450538,0.06391963909960502,-0.12472387348146964,-0.02147579512732513,-0.3947902722888762,0.5678655528212176,0.8717652903638019,0.26304086791623316,0.31875720000874586,0.07159264976113376,-0.089474291880914,0.09031498855756635,-0.0005665132281390192,0.14779446368465937,0.0779298904312794,0.08749564291263087,0.06268896145099345,-0.01961545407032601,0.0824030818436747,0.05580947662569774,-0.043616269714806796,0.046819358685421905,0.0007968260605701362,0.044473447759389426,-0.014791799238133924,0.01264119275260557,0.12281023071124951,0.0713784164014852,0.05700852179437846,0.028936434119106083,-0.004892555869644674,0.08585622447013169,0.06340645094528495,0.031356129618143415,0.09814782568478458,0.03491555568521672,0.12774510083935434,0.05038961668816764,-0.030197064860477768,0.11819378220425314,-0.03314711909769473,-0.27848538877244106,0.11650995850001881,0.6635615969548101,-0.11637578184761177,0.052153155379885095,0.030448595905906182,-0.008813711160448795,0.09334209198102728,-0.32416623880518447,-0.37355847815981824,-0.003839895481211133,0.03255282364423659,0.10332206749058956,0.136205782907437,-0.23923159097201818,0.2554610787860239,0.11104326278924832,-0.20205324918292136,0.1511969669076207,-0.07407649870416093,-0.026312188567190024,0.05567247056330196,0.03578810259139704,0.09013914351591008,0.08320208811379118,0.015202193315994622,0.07854439831798883,-0.0058481871104597485,-0.05050516844115605,0.05938818338191176,-0.07990905493754348,0.04514611448499041,-0.05613800067582772,-0.03651570171511,-0.05686773185211083,-0.03080217344199654,0.0014966030888580468,0.07844818062271403,-0.020724251283232468,-0.01593652323813727,0.04140724777698884,0.0015239192479210711,-0.05321177172256048,-0.00916508218200525,-0.04348211126089872,0.09275199787519807,-0.01530392599760599,0.09010137053306568,-0.014487050208459881,-0.04692136538316671,-0.046671343660774224,-0.039674600895418605
52.51865005493164,0.9905014038085938,-0.07455215481387871,-0.10996459779804156,-0.00019620965552548733,-0.06744813819040382,-0.3749508147790421,-0.684497800899398,1.2468455906843736,0.55627300214505,-0.15832830207768878,0.27245159699314847,0.42168957098339566,0.38486956688539625,0.15670284048764088,0.006300953138242582,0.2575668452497199,-0.043828482189425484,0.09442462461264223,0.12070108632287938,-0.07073412702219864,-0.056466748483989554,-0.03499256310844799,-0.05499438112059151,-0.06087035038996731,0.05848749932735709,0.02561813872970113,0.009446282821763291,-0.041833466625786776,-0.1079852572094971,0.0025375497076488363,0.015112470354836684,0.02999033932510456,0.03995088979043947,0.03554237674412008,-0.07387188588427482,-0.04591963885830288,0.016561887425754537,0.025435921491711363,0.042821714426352464,-0.0644334417047762,0.04859102749074519,-0.0038975494562051086,-0.05165414808995786,0.05288623310238929,-0.04054382634409341,0.03058295487079165,-0.010670922588100153,0.25654889037490197,0.03131638974826886,0.08101990738987273,0.16184802778938734,-0.28218910042494716,-0.1238352819503915,0.007548930554502762,0.05409542563170777,-0.026148057707667816,-0.002177644942067406,-0.09700736326433057,-0.006799641858855511,-0.0929016298921869,0.003281558695875958,0.11106198641886335,0.0864319306582773,0.04319913158909458,0.033941434365426064,0.06955546886250916,0.06267822583486013,-0.008727340139544001,-0.006079372453631284,-0.06707917781698239,0.02068230497123564,0.016158272815490475,0.09244754162454949,0.03699056604409734,-0.04296182381035528,-0.026705423244375342,0.005137742440202647,-0.005161745576727079,0.02531024264094372,0.015398406161165834,0.052227836743993485,-0.03495370472636489,-0.028869751530062427,-0.030678166237247746,0.030432911135439337,-0.03784587803339493,0.015594505378355793,-0.045024961876533355,0.02554896724883105,-0.03662799537811117,0.017069235351011434,0.20282462990511504,0.09595596880004204,0.01053829084033585,-0.028610088666174163,-0.07867591480604974,-0.054600023657181945,0.10255193682241917,-0.036270747975992446,0.20164499318237727,0.00046671734244498574
53.509151458740234,2.0811996459960938,-0.028040432414121658,0.06911753592962397,-0.02698673387830736,-0.16600868853969106,-0.1209919273475602,0.03548649280375495,-0.6654472162327855,0.4731791776390658,0.3082177930388185,-0.2402937699307945,0.01214865811397231,-0.517670844848925,-0.3385335080032255,-0.2816479376833836,-0.39977643013777736,0.4929855732282593,0.5685951265394639,-0.36926556245144465,-0.22948877122678824,-0.008994156781094397,-0.1807703335150537,0.010650302303104335,-0.06290309451104646,-0.019109456033934356,-0.018603774470039348,0.014005878836189145,0.02670001975967443,0.058771763455753315,-0.07439025835669179,0.004773930561084674,0.05642304980109934,0.028462309989537995,0.011384641105305751,-0.015263073592218093,0.014033499763893339,-0.10256007644591904,0.007207516360113722,0.03480033700310656,0.03506597432269197,0.17277766244404075,0.027049621300133747,0.066991831806376,-0.08027600056171984,-0.06532050599006985,-0.11719289955375925,-0.03829451021568764,-0.029113498750670406,0.021997460177732176,0.09769868746083245,0.2057013910923429,-0.03200310423993735,-0.23180852402952556,-0.11671602163441365,5.7161367724710074e-05,0.05602365931522868,0.053879416416207776,-0.10176957095521962,0.041751336973383915,-0.01642549701568051,0.008510319619489429,0.18346130247893933,-0.09019329952185337,-0.16425038524385144,0.004989431842504258,-0.13171025531529199,0.13350576582388024,0.18877901270334574,-0.07386175972888624,0.033658344894376066,0.022602360984838546,-0.007413382223893518,-0.017656076384575413,0.04669392577617652,-0.04205868900632955,-0.06615187613998617,0.08596368950638938,0.07588277664317229,0.028174763803007798,-0.006679628574858683,-0.04309367079071293,-0.00018184734738867963,-0.0628130011591184,0.06576874093061451,0.02782446223685138,-0.008265218825323634,-0.05495196039208383,0.0019527621187265427,0.10286988679717612,-0.07180458687526055,0.04383096519653885,0.030037194056948525,-0.24001564043164125,0.0009828228254874435,0.0049072995814948344,0.10277456558410637,-0.07248357825154353,-0.008458756317883908,0.09535958871200721,0.08391821897975874,-0.004675990960051776
57.521751403808594,0.9605979919433594,-0.07977161377005088,0.03341748246196749,0.04144152474707756,-0.2505738071774822,0.1973868474234643,-0.11373398469868612,-0.069080065409687,0.322930161148406,-0.0392868661058466,0.16120396794851946,0.13576269945728447,-0.5794750868377163,-0.3924223998381507,-0.6007812712391452,0.4266377331657169,0.19893697986190712,0.07510854351342848,0.012080971464496708,-0.08532684664147847,0.06541934414225574,-0.0039497990642245635,-0.0002213850662767941,-0.01704186707860728,-0.009598712956945874,-0.06906817788202445,-0.08183015743823419,-0.013502538461002887,0.054505364344073964,-0.0285230442508001,-0.005401793291278595,0.009845108885160478,-0.020418932673048104,0.1970036638024138,0.03092368965042371,0.03464190251166091,0.1026531472863215,0.09929760687079517,0.06737318575401992,-0.1124618234795388,-0.0834430349387724,-0.004261849153883359,0.00440079999341048,0.0417819596058289,0.03935836254760399,0.01854683079955797,-0.039456269956017594,0.02035033217078644,-0.1433356500999245,0.08814871919127337,-0.036890336077366914,0.11062413417793138,-0.07828399081298848,0.026264272286877888,0.0038032017513834815,0.05607909042020512,0.006305321880328715,-0.011516371430276992,0.06418468671728753,-0.15092334678712316,-0.006612691282696582,-0.08067388033250522,0.028950040321984002,-0.007604217403995674,0.18734389738433807,0.10062547604791566,-0.2735761902837149,-0.1335116482173931,0.053783374474887,-0.027790096009798995,0.14248829857843842,-0.09515144462548882,-0.03432784296750227,0.01755979077033537,0.0023685972542459395,0.0005323996709511338,0.011055603482829501,0.01669932717813992,0.052185106929229966,-0.08145947905004138,-0.06865877533101636,0.0042317215275404635,-0.035912845618506314,-0.050379497939841617,-0.030204008838815424,0.02227426637913643,0.03543469723510743,-0.020438609381731712,0.004751366470478362,-0.12374524373383028,-0.034699963600392264,-0.09981216760421016,0.017847374400598817,0.09511063076924618,0.010943453927576143,0.03552241927169559,0.049683373801380805,-0.045146641427581735,0.04635953376004808,-0.01702735649415757,-0.16890656471572868
58.48234939575195,0.9701995849609375,-0.068385224022394,-0.04396699977955377,0.20744661445987506,0.07612384978855379,0.12895364273435986,0.0076804749141657705,-0.013269820137094443,0.4236946845659405,0.4200508277731712,-0.13793251717221033,-0.7714918963398457,-0.06500757678873728,0.468312748763696,0.07283886901968492,-0.04794035043931941,-0.15309048367603137,0.3103554970841104,-0.060346471114034975,0.020827622945975136,-0.00883253062676271,0.08555297816063713,0.03058255063288208,0.01867423077230301,-0.06269693839796942,-0.02212321121608718,-0.06705954934472985,0.03587353535142976,0.010596792691717663,0.03437148738979974,-0.011104419377929156,0.12885546746621443,-0.028587933265693363,-0.011024953567137771,-0.0560433367483729,-0.009196499924553337,0.11208537393298258,0.15601860487562055,-0.024613363042447066,-0.07571347565333048,-0.01009270756781794,-0.011079177630250597,-0.06286738429371734,0.0184470272667253,0.03579796382084751,0.030009033240998025,-0.19575946762415986,-0.05702696091928277,-0.010105712855184648,-0.3159808000208588,0.08965965068881351,0.2928931616252769,0.06537627956204516,-0.2062817455446483,0.23127320887714126,0.021833543274497044,-0.07676798881550578,-0.020143881457240664,0.03390486525246836,0.08115228761504471,0.29507134044958794,-0.2533268024643633,0.06889172881156917,-0.054717777101230505,-0.02475594512059107,0.03296078965285519,0.006390643158469047,0.06539681848171612,0.08253411849065659,-0.014009742941538814,0.02695640597621335,0.036159575878025305,-0.016183683453051722,0.018108031708265505,-0.014288571446175666,-0.0608730271756029,-0.08670146105087051,0.011933855903550186,-0.08243678107519356,-0.001975422343336121,-0.045122485084480066,-0.06075469895356943,0.02855492893669203,-0.02997393534981073,0.10832461208345752,0.04423479342686603,0.009311840733944785,-0.02181211943104095,0.05834770619935398,0.011841640360284254,0.04476375305098268,0.047700340594345844,-0.06525722602318357,0.02812916719815625,0.09825215143498497,0.01973114105812933,0.03751701363785864,-0.037859134700548885,0.012984805718067038,0.07195501379050828,-0.3884555717792252
59.45254898071289,0.9906005859375,-0.25301545700460876,0.04659217241741004,0.021686924333165117,-0.032058261565666074,0.11658747330551407,0.17356204616639911,0.65880481781956,0.31680035495914843,0.39639813579046623,-0.005336597304967272,-0.39807844641591167,0.7329063613019466,0.1627884983261198,-0.17161638558702355,-0.18390287375821068,0.018305023224281493,-0.02482192428146033,-0.18077304773762723,-0.2391813868668716,0.055989600038793656,0.007736792845332423,-0.1503197264656396,-0.037426910473851126,-0.017321878579192606,-0.0018802672210254173,-0.12553712169394846,-0.06649126901433657,0.005645524174058314,-0.028698528369334265,0.02071096064173259,-0.012251187382365551,0.0010225598883746717,-0.028148590160404906,0.008684961660273053,0.01848223694375221,0.001249155405323092,-0.0438599445658422,0.031139967507308325,-0.11337483646172226,0.06125167430155486,0.015416045074119172,0.00574347974235543,0.004281714479153945,-0.03189616214109427,0.03233201429184337,-0.03754565600605306,0.011814606384952974,-0.2247952549357562,0.16856476324200909,0.02986786452396519,0.052602259107119576,-0.1378955412124471,0.014184722844548725,0.018990544002111157,-0.07528856567861171,0.05777667317981809,0.05268242305678308,-0.033650743557706045,-0.1501925968157706,0.36174278660630765,-0.08263370536988998,0.008711548510139127,0.04935701730621344,0.06489130857508175,0.3424284582403919,-0.050367038687333825,0.0829175126362941,0.015591231157494202,0.052085154776334304,0.026210432239430054,-0.054423865257419456,0.01730754069438022,-0.0016174021639886217,0.015778927968308973,-0.02960591673287917,-0.07566796001972062,-0.0889925258652503,-0.10898290489548086,0.006934286543324566,-0.019743107883873987,-0.0332960984950425,0.11072339085875937,0.002462776880980339,-0.07189841131104924,-0.0362150609281475,0.06450377187833548,-0.07392225954787439,0.0038695926766555803,0.0148203787555551,0.05939781211575767,-0.004118057821197084,-0.033330956621731946,-0.08695746104481253,-0.0767747624194554,0.041286373468965853,-0.008930986008292863,0.10682292988833329,-0.07666155529946833,0.10886695181099584,0.03266447515335208
60.44314956665039,1.0712013244628906,0.006456270275517553,-0.12175126233212155,0.041931885896212134,0.05415555515053781,-0.009573930104011835,0.13968700591078673,-0.0018315308640148714,-0.9324637715890892,-0.1538907142596396,-0.2700210451906258,-0.7695149609244212,0.09000096349536277,-0.22238212817591274,-0.38031261769055413,-0.06336918053672322,0.2103906198606536,-0.01072948866555759,0.0497431696625194,0.017102999303854692,0.2620150159903438,-0.05520942304976636,-0.05285747399346448,0.0830332150663187,0.03811917248329859,-0.035534245108328685,-0.1955775115878626,-0.0030991481324714205,0.04575005698191431,0.038724815244207095,-0.04122348018139038,-0.034428024556555956,0.08690913043577658,0.028641599671951196,0.08044534190377549,0.07065451030415389,-0.07510918358824889,-0.13671970810842202,-0.05346124778624947,-0.013177157715059794,-0.09536095568242517,-0.0026119219591945048,-0.07301990714326488,-0.040795392839168006,0.08080407627991393,0.04709102234585781,0.06151434971897431,0.025200450573513555,-0.14120094128998772,-0.29295287995540853,-0.14434562023575587,-0.07591120990528345,0.1774668569772893,0.15070123622066606,0.0021941367096941326,-0.06109556060551763,0.19836523154449204,0.15383557500259779,0.032471399231838435,-0.03805665510555868,-0.0017384774607548947,-0.17537388446165347,0.17509435232016163,-0.1379564759107289,0.0012267787618130428,-0.04733896725597324,0.050417884822007604,0.040897365429892495,-0.01713716835159612,-0.019312129621673044,-0.012873697205913226,0.037008571115049335,0.10680617480991929,-0.04036666930904851,-0.01785262835011508,-0.061270591682930524,0.050636380545800205,-0.05777818030095242,-0.06152317765885683,-0.03173784166730384,-0.004634066311164899,-0.06943472518375667,-0.08120264105165674,0.05596836327465936,-0.030018814510100352,-0.018838343203576007,-0.08913926677322317,0.08677501716928067,0.04495939607489191,-0.1011875943471474,-0.07990409484573513,-0.011196334299403504,0.010038532575090929,-0.10510120499777333,0.017014910138869927,-0.13207711980783177,0.01788663481835012,0.04435968885747955,0.10413774690887047,-0.19231820239781475,-0.05625217104931299
64.46595001220703,1.0207977294921875,0.06097648558431722,0.052325781705640936,0.08054779638105514,-0.06110983081401876,-0.060971619338016744,0.033500334968161516,0.37566701584833556,0.3234089348608327,-0.7850266394043829,-0.4869712685957592,1.1057444109528416,0.7468846306502364,0.16549936701949924,0.17832874819103223,-0.09262575419094021,0.03378117570590714,-0.11730379859219667,-0.1470287454568314,-0.031571769775673254,-0.009148939313063053,-0.06459255665150765,0.011387899586288535,0.021693599278823732,0.011990580115143543,-0.004835298933259753,0.017473956681715364,-0.01818073833631443,0.039807944192746095,0.03789522143809764,0.03439186307352905,0.07480833458638715,0.00774153825682352,0.014743768739382634,0.0620447742591481,0.016121182281115327,0.13388174957387902,0.03039864921940374,-0.0031147160269726186,-0.08808604705612166,-0.0005839858162615032,-0.05778934181146994,0.03611283704942855,0.0767429102129499,0.00306480005080758,-0.07329831277977741,-0.09605840382696121,0.04543495402154274,-0.01159412995240764,-0.237161008330191,-0.4542917994999224,0.11952412631343148,0.036178200950884504,-0.08581045521382998,-0.0038103564099784513,0.027824938963302674,0.04590035204133104,-0.03836649149117963,-0.0732345685739231,-0.06694749070388958,0.03310180515436709,-0.21529552510688793,0.06986583007639738,-0.20881501355504128,0.4547240761581021,-0.0673659589287577,0.04803115282916923,-0.013411608544151925,0.035991355119772264,-0.03045900858822386,-0.0664006404528156,-0.02039664050790914,-0.046470621503657786,0.013164354057085215,-0.09502802728350901,-0.04766378951289018,0.14278688727908698,0.03720220104775517,-0.03158885464578855,-0.10344068053060652,-0.029272974632700347,-0.0018074599793137022,-0.015505010684411,-0.07235851653429051,-0.03804345178083132,-0.03909530470308499,-0.07219649222766113,0.07611939902864569,-0.06535121077949223,0.09106619187747435,-0.08054760625788362,-0.013869546152353085,-0.0009185630894247435,-0.02167412245192643,-0.028840411115294458,-0.012942837822844408,0.05455347931102977,-0.06699415861090613,0.038951469652943924,0.0420473587686348,-0.11017996119730591
65.48674774169922,0.9906005859375,-0.14309198936084308,-0.051200761713502796,-0.07380950116275689,-0.04972959107061839,-0.051020704172170354,0.10081688320630076,-0.07051491325005488,-0.2239139947199539,-0.062334213971226356,-0.10150395059432454,0.03873921252631707,-0.5671090941350443,0.07547916354474937,0.035211825971455404,0.1819211950405227,0.605230177235166,0.2222953078433523,-0.09599918469232324,-0.13794654927724265,-0.004038552710353582,-0.25867459824138095,-0.09290048811329252,-0.09388423993039496,0.03534115813117534,-0.04506158951215119,0.04092498332277938,-0.02277672002751739,-0.15270358443569665,0.03040390571762239,-0.0443677997466119,0.031375815548703806,-0.00399198749282456,-0.1385038256451222,-0.04611580649703734,0.09092184751824291,-0.03792213300205605,-0.026076026576957054,-0.2602716033335893,0.10300034996989241,-0.1363940144499664,0.1360275516755859,0.053760069680559505,-0.008577577523315921,-0.06816898078211824,0.058825694798034296,-0.012452830405001935,0.15792559767292266,-0.1627245339037201,-0.6690673443030697,0.031160992221184687,-0.2944883411658423,-0.04877185630407183,0.04624199007577457,0.2446968139571062,0.09463701319748766,-0.05703283849691352,0.055916408757325856,0.007538925128668824,0.025943441544174578,-0.10926381523450573,-0.11007889723481666,-0.09784496796558825,-0.012302125774384477,0.055860688246276914,0.027587383193078446,0.026093602930395806,0.036830523870763805,0.049829003738828266,0.012125735201824021,0.002204492727697051,-0.0035884119626774067,-0.03570374613410311,-0.02693114470890111,0.057839244400695246,-0.002896044629878858,0.021700044025225386,-0.025288676797593994,-0.0011662885045588076,0.05552448906196139,0.042323685486650726,0.07938696884044714,-0.06332988352761254,-0.023317541804068063,0.041786849772441834,-0.01705457580573673,0.02964444814996455,0.08728650574399575,-0.02386996335776226,-0.030062454096563718,-0.07297989773973931,0.0060761296401,0.03365086493888916,-0.0217507595781926,-0.1038620783105435,0.038861073312698564,0.07072665288135116,0.06841138773002572,0.014788274606593599,-0.10190069261504359,0.10711916543088376
66.47734832763672,0.9506988525390625,0.10113701716300444,0.060769887129080324,-0.011175763154400251,0.09620838778285151,0.016624532536447245,0.01677863060445681,-0.3844354301474118,8.117340790725694e-07,0.2773381071234004,-0.4164137447606691,-0.6849215401121571,0.6993099496299118,-0.1738084303821698,0.07936310208676603,0.316956871809424,-0.006317095264394931,0.246181493850718,-0.2802265566596822,-0.1010737375226712,0.5085161764485502,0.4103917081608709,-0.4760270800172515,0.053492589331579174,-0.20500045580278922,-0.170816852198983,0.0038764806074898066,-0.0007554266042214958,0.13296709103671073,0.0071456362337219415,-0.09421827297166435,-0.021489799893513996,0.0384895354351662,0.021415236750158936,0.05029767352425471,0.12711276961727175,0.15343102244744428,0.013762232622936119,0.07148353856497783,0.02105937620767602,-0.0703477210961097,0.035025419391995716,0.08367231605989695,-0.04084941366034896,-0.15225657138489343,0.02973783394383327,-0.03796065668487093,0.10005763293061509,-0.00927750876105244,0.11539296915853238,-0.04787328561360151,0.1434131610939075,0.07813594731519728,-0.3020186668183953,0.0842278402090197,0.08595667233153584,-0.037027191815605855,0.04218385503361882,-0.006649791613664385,0.023329056940915336,-0.019001281558321797,-0.08746937444810213,-0.0409825184031631,-0.10642807184886438,-0.04232237161394625,0.1982550839553905,-0.22145836420916926,0.13437102229772388,0.04639794281846062,-0.1627489634694563,-0.11428076705270636,0.12663754824813378,-0.018962278464462252,-0.019095284306474426,-0.073967909350364,0.016214636228304307,-0.06067817961581194,-0.011003896500131635,-0.03823863717358534,0.01646189382083433,-0.022608941235449678,-0.013460573624663878,-0.0186995818705612,0.046823325421051804,0.004483052978620937,-0.04276423745541369,0.027281106982501604,0.05983577634558858,-0.10041186289232468,-0.06300064840928978,-0.12668510835348187,0.051642408634883355,0.14937836014976702,0.05167826788195022,0.17557238821947888,0.09065988100885719,-0.005265043398114323,-0.12421821386469177,-0.20281603556636826,-0.08351173224119998,0.31291374911804926
71.24044799804688,0.9706039428710938,-0.030139016046888352,-0.10411794238866608,0.1577470753046629,0.08504403783686637,0.17721367637821722,-0.3824118684508816,-0.05745390343444326,0.5145799683679033,-0.1118604661009252,0.10741958281470271,-1.24258623613035,-0.3825775039050137,0.058102663380770025,0.7697526853750823,-0.2863684525569069,-0.3441233875225898,0.287321771692456,-0.12529387735157338,-0.7826630642367493,0.03581567518980106,-0.05785862491485829,-0.042299437556092126,0.01363376331128661,-0.04891800672426639,-0.00481313822453569,-0.010021456937122622,0.01764676942428474,-0.1027369634288702,0.09540895337027065,-0.024843123311814416,0.04812214054266304,-0.09711380386290244,0.010282225904157151,-0.01563336890147379,0.04921892439638782,-0.0312788189771268,0.12431395956448248,0.13424523023725932,0.003202947453527113,0.07327786848689122,0.05484435235111569,0.014292846547227595,0.10275242498443385,0.0005276360150630287,0.03446673394503107,-0.09851594841642491,0.04721272307736945,-0.03039015893121236,-0.2988968120058478,0.07231214678612871,-0.20006268674073696,-0.05818401661720374,-0.0006979084701370063,-0.04445636101486071,0.03338951775757778,0.07356655703175952,-0.02247984754247424,0.14598122002005143,-0.04756388576758959,-0.055297697147438644,0.16905772692702067,-0.1955663312868277,-0.06280648921452789,0.37836141075253504,-0.14911590198726074,0.059208331620940094,0.03743717056300524,0.040048828435424275,-0.016594450234145314,-0.04374466319663545,-0.01627075920911611,-0.030016946028206537,-0.11290402994060944,-0.030432631281223005,0.03880289962221144,0.006078599917984448,-0.030146305584551444,0.0737101620772951,0.0020916454483558837,0.046894330343824994,-0.002710154189406039,-0.06099087422868325,-0.052915190342673134,-0.010782785929488878,0.018142958323405137,-0.03850655282048692,0.09549355840439389,-0.10866571735008831,-0.05365967764163888,-0.059005388267382386,0.05276305784348315,-0.0161535818948091,0.0435322751650025,0.016183835457283465,-0.008787131401419714,-0.009311958525797751,-0.10121553694811773,-0.05514056349572915,-0.051311459029082615,0.2535545411353473
72.21105194091797,0.940399169921875,0.2514735243923494,0.27395867455658796,0.17504236915629395,0.06469653668634706,0.09576769598024801,0.1683044845839285,0.05968516170085332,0.6291034963005063,-0.1353927400575653,0.08346653979400741,-0.025241107435888477,-0.3022960806990269,0.038358362974968106,-0.15934373891541503,-0.42218606662177655,-0.33604017586894264,0.9192853272121846,0.12985672734308418,0.10501860605075525,0.17744286356910216,-0.2359720696207717,0.01620735542340455,0.023494414822888776,0.055989692024484554,-0.027434514993044414,-0.012065008083266063,0.023280805093975822,0.06938122597848455,-0.10971320400925043,-0.05282275603006793,0.06152095574717896,-0.06025858448066298,0.09872784077231245,0.176030427317417,-0.0418958529596643,0.07191722879533757,0.11349076735045315,0.13043473256322266,-0.07324176769610559,-0.0964666371482472,-0.04339410248043471,0.010617900350452517,0.16521808146707334,-0.0705183983441025,0.11012315845652326,0.07603815882081312,0.10459442630965025,-0.01230106001076825,0.1168101177110575,-0.3364736284195724,-0.12583714448709155,0.17788850895809302,-0.35985274234724735,0.09391692529899587,0.05928102149402292,-0.18743797210670476,-0.031977056678256593,-0.11770343382114892,-0.12125406002085802,0.15176715518129774,0.05970829972323385,0.006600954593797635,-0.04185767434596088,0.10404794899416682,-0.09303907754517399,-0.0630072373731989,0.07720920881538168,0.11797200148130754,-0.06274586508890899,0.07274274914105783,-0.07367684616313948,-0.011726451413427206,-0.00676856239831695,-0.01424224829901689,-0.019675568603504313,-0.04398936551564422,-0.015345296797263264,0.017206337892767695,-0.08652978479347706,0.007099709474577026,0.01407344836445041,-0.0877233366008697,0.030978581193583016,0.0555379789600534,0.01259830262232762,0.02320709298467991,0.0013219594662146929,-0.030023022407290934,-0.009836559369579535,-0.03930664849434709,0.031964553321511255,0.17803253724542767,-0.03269790232203988,-0.12631034886458792,0.005567963642656674,-0.06568499906714423,-0.05960145489574623,-0.04632910204443748,0.0374242673113586,-0.029542927015202128
73.15145111083984,0.9804000854492188,-0.043298897328286075,0.04743969408526945,-0.019690077264402903,0.18129126220033856,0.04650402859960909,0.5577926714787718,-0.6905490703865499,-0.5131378972968076,0.09048233521843746,0.48628196119673334,0.21794153985776155,-0.6934715784255534,0.4282403188696027,0.11876268331664834,0.2355881819794975,-0.18260530709857398,-0.19274402014422612,0.03611966262501688,0.045816912047573766,-0.0028239665926964655,0.018049828541725512,-0.041046411681690265,0.08264305152704653,0.009717211552107996,-0.10705235017413663,0.02215717162924013,0.05188673759550624,0.010309903822365029,0.02153423061143895,0.003476287489817473,0.05391117542915026,0.08840629966919873,-0.14837846675926425,-0.005659593705755851,-0.05292871059148329,-0.09664871685666004,0.14166318501581734,-0.14621550885893458,-0.12778676189000243,0.13244311361368027,-0.03816182318977465,-0.09954808548551829,0.01046533909157555,0.1734427972089615,-0.008226853321739919,-0.016427636761569785,0.16407740498868517,-0.06728855106136764,-0.46193512991845037,-0.040116170088386076,0.14822097680005303,0.02005281117268357,-0.3431113547468718,0.16729633074481837,0.04571774597080032,-0.001553802691256323,0.01752299896961823,0.05975855578028317,-0.02008175486834928,-0.13422137728371955,-0.06502999046455858,0.009526787270813363,-0.04827026602919215,-0.07663610987010283,0.16485323482847716,-0.03475345361122212,0.003922754603227375,-0.05066833588435274,-0.07932866493231991,0.04189870620249707,0.022495283647922804,0.03108178678529486,0.07629031561077858,0.014990144470386697,-0.007420833956687122,0.049037713519724364,-0.011281672802939183,0.0108834985349521,0.026249666523168794,-0.033219529880612275,-0.002588390143470229,-0.029810821714614116,0.005483289397749683,0.034262696236987626,0.09726417921145696,0.0030632984472719667,-0.03386301493941224,-0.1399541311690895,-0.12300130437282546,-0.057502344045375985,0.024050526077744033,-0.09576003225771575,-0.029348043377085523,-0.06104856430674247,0.2490983191381676,0.07033246524742018,-0.1907832542722743,0.02846226222621624,0.08557726184120218,-0.13754181002649585
78.1146469116211,0.9605026245117188,-0.09125014745084281,0.2228855872039064,-0.032529277101119206,-0.19512107932872474,-0.4438027683570654,0.7958051070335567,-0.22854421230108554,-1.5891404302661412,0.16859449376032404,-0.7101051540647723,-0.27705202897767567,0.3198968536446892,-0.10253180687322806,0.08284016349328023,-0.01251145239386181,0.011797782125668965,-0.03151873078328516,0.03331435071339303,0.06332874987790545,0.0033500142326304268,0.00504425979350293,0.004711424616211635,0.06956812965662935,-0.0817073396937026,-0.1173407674990042,-0.041973250197713044,0.04844393634104906,-0.04742764679705753,0.06753696460221169,-0.021543135602553755,0.004548585480483626,-0.0022027326904311964,-0.020127881786348542,0.03390317418109149,-0.10772534936966735,0.14180898541052106,0.0013843373452826768,0.06912355087618677,0.030425751652163498,-0.09901534322494004,-0.008700258872627402,0.08099263102198116,-0.05769427178717687,0.0023526603109619987,0.02834669565742362,0.09675289803376527,-0.08365104593083467,-0.22225691268906408,-0.25467111934202785,0.12646871108448882,0.3702773715973505,0.08322286139591938,0.029152106981880907,0.03344299203110948,0.036905549219534234,-0.10300676046049076,0.12250931681728723,-0.03908917300738163,-0.0920300337148411,0.08389473599590128,0.13271591572189279,-0.11675718749786058,-0.07187997050058184,-0.060533754241797744,0.20066814508797248,-0.07172384138719294,-0.07825237652641079,0.21659719253694332,-0.09687868582420782,0.06738290271523922,-0.029270347146456932,0.009812441391749506,0.08647133243306783,-0.009752249210049661,0.06761343514553875,0.015604062932036285,0.04454466150386135,0.04952788643090228,0.05688002805877709,0.07363297388317097,0.019065029229585296,-0.015728355255888588,-0.023356103139266254,-0.0020646703610718627,-0.020136139075819327,-0.12994601523077384,0.041772017429632546,0.021710781107679336,-0.0334429820654536,-0.0028278702069205333,-0.0507708728104493,-0.02323986293616775,0.09190089859156306,-0.08909874735245112,0.15397095383041606,-0.00826233398031304,-0.0052071168289547064,-0.051683899922102775,0.06949267580404374,-0.08503338881381073
79.07514953613281,0.9607009887695312,0.04245127562787246,0.17254326972634082,-0.32790576175441083,0.26525045021155647,-0.13108961301067396,-0.6932736427228184,-0.5584125425218678,-0.3860322647205369,-0.0837638562586314,-0.024015245477638083,0.695917731380175,-0.5925263675989938,0.03491453760215578,0.17510037360941436,0.08532974243995438,-0.08805324977159737,0.004682542974237848,-0.07165377497828976,0.03248410277020007,-0.001743574357618731,0.056257430930053226,-0.07419076104445503,0.039165625255959784,0.12726050079714438,0.07395993439868334,0.124453982440424,0.10146399922072388,0.06061110182478138,-0.03758694633271581,0.027757276723354346,0.02597242992873144,0.0446737823124434,-0.02848029246125728,-0.009100450181026832,-0.0805116860196761,-0.011250492302171136,-0.10476664629161672,-0.0422640850669229,0.021634014166767256,-0.1264424611766015,-0.07072955431161859,0.021860082598742753,-0.03461055620356444,0.0030250409768345313,0.06913774992499232,-0.010636874790090095,-0.22865772531732795,0.12069514629122378,-0.408897473474054,0.3061935671785337,0.10680866093700846,0.4364808763617465,0.09236866534951292,-0.007570605447275478,0.04072739646054384,0.1161280313345743,0.022126878054074706,0.14585476710999853,-0.0018242847693469904,0.02202671830599059,0.17840910175545388,0.02249619983447366,0.01119213725724318,-0.08009865114841203,0.14763848250644807,-0.1599610842435344,0.0850829865684865,-0.05153627343128843,-0.04571088872799576,-0.0409939710788428,-0.02498735844063865,-0.04582016009793309,0.016355215118405753,-0.010250626481658294,-0.012001299823336252,0.060670103455236865,0.007720514244622154,-0.047246201555975025,0.035071954935459476,-0.014824492862465725,-0.010809786846890358,-0.01191661354791887,0.019862158464570442,0.015921263394621393,0.0405513363368404,0.021899969393668277,-0.04030894117495473,-0.029626063568865907,0.002021815464304463,-0.010886018831208912,-0.016136157561394932,-0.052385144568335235,0.23114605992332918,0.062499164437323645,0.06162921732551249,0.13159116272783122,0.2284824708422611,0.18367291297769603,-0.023261962224992744,-0.14180822263839596
80.03585052490234,1.010101318359375,-0.16878368020198892,-0.0015122884577055615,-0.030512525126835457,-0.15384078610372418,0.44839135168796024,-0.7213878516976654,0.35464999588028867,-0.4433934000156477,-0.06077746340058415,0.25421527305740343,0.6081231356476459,-0.5801319395912056,0.10023919226603531,-0.05028687229426368,-0.20435905127242604,-0.11961920219582482,0.06041631692500507,0.03477480846061862,-0.0013822027556141536,0.011745609481396633,0.0321846600212011,-0.025283874316546485,0.03806390466812221,-0.001285451175620362,-0.03860828208269552,0.03043953361292096,0.055009895993093735,0.08822773052345925,0.015167963078418367,0.08074533783188328,-0.01093554344687223,0.035676369138847225,0.004377755599030526,-0.11899496727307808,-0.018522281170099356,-0.012839510397824508,0.15469882821118647,0.07595282202986921,-0.003431218163128138,0.11123836259024703,0.0071446555861170435,-0.05268302758401023,-0.06764290501701482,-0.05831368176674127,-0.045987676314073564,0.10760154858024511,-0.06007037415464772,-0.18646942883233864,-0.2035708952700928,-0.13745767654899482,0.1659370489487874,-0.08731947104799317,-0.1421588825875679,0.07549903745884368,-0.01772149763005999,0.04610299724971689,0.11378000616158666,-0.06283492552209705,-0.10676049203948625,0.0789973914603237,0.3549287065867105,-0.009363635860808192,0.13911819334851483,-0.051595768986479044,0.07239369376456371,0.08732729163187554,-0.04310541244007069,-0.048896326530029295,0.05312767507713126,-0.030203873702642856,-0.010278525912794432,0.024932712641411916,-0.012673233457073205,0.06167807994701286,0.010735493347069937,0.018888344037721806,0.01685473504251471,-0.09390911062854086,-0.10667585378895719,-0.07632352085284062,-0.06954317224366578,0.053210897585920146,0.09438287651571876,-0.007925250720610393,-0.019808525806239832,0.05789360659909436,-0.014519230244029777,-0.0715048630949244,0.01262467842844259,-0.009508528453403936,0.07107289987046339,0.06076310715220916,-0.09460820252807446,-0.003835710090159764,0.08957020722804758,-0.07737918408087449,-0.012008471221932264,-0.10255020666281339,0.2558700488501458,-0.029253184183460068
85.04865264892578,0.9603958129882812,-0.03692784453561178,-0.1640835844884468,0.2769574163741806,0.17961387299171713,0.21438500573373578,-0.15833117730673424,0.15766503405619958,0.51801849507792,0.040071600797183055,0.03486742032034669,-0.03440997710648263,0.15651851317680734,-0.08752481605488224,-0.059486880766437905,0.37869238826422674,-0.05898572347672033,0.18605939310864156,-0.0841016132758408,0.008428969618740595,0.06134417238921297,-0.09376272456026112,-0.04790425123606986,-0.03414169259061204,0.1839417747244621,0.039616339268272224,-0.09284343211236462,0.028134052295176716,-0.009460067884622834,0.02023375246938386,0.037762522073369754,0.04086704539218207,-0.04867439102954524,0.020169052132055363,0.021799819392873954,-0.009924307110711971,0.006465295431514539,-0.05935063834051091,0.05355724474791852,0.02476816247244061,0.020640279893441818,-0.028205574203296647,-0.002638291800834862,-0.05598778878954895,-0.13752658947538487,0.08373141435408726,0.11490191046568454,0.028248522459635064,-0.23698581584248,0.1741430144996249,-0.03844783307694387,0.056480373239924025,0.10627883501355698,0.0547290796186396,0.013227065963162393,-0.044234555765835445,0.030628052605853544,-0.011339614322351185,-0.1790997598626546,0.47103536610904995,-0.07466548128183711,-0.03585856508682485,-0.10123277922625254,-0.07123010571147445,0.25578629905093186,-0.11788263167813315,-0.05929937650955805,-0.06893834341812645,0.08883943272364574,-0.1107697554084516,0.09985689490194062,0.07634051401595862,-0.04016014187444901,0.015418885339093658,0.026753859137825006,-0.02896687540900981,0.009600925703664576,-0.03208480161336352,-0.07237072829655851,0.018052939188922743,0.046476221623253794,-0.03440988854440104,-0.0452527446197183,0.021130952150185865,-0.0019849589780388047,0.10320125134738557,-0.027179898157844287,0.057403256448464626,-0.08280994097778496,-0.03564803211191099,-0.040834248529337196,0.0897513625357283,0.0274495458020014,-0.10201689880805141,-0.11274214112710271,-0.06907036231726144,0.006569853229178708,0.05937687797237236,-0.11007156820814046,-0.10561766410436259,0.08983316861328752
86.00904846191406,0.93060302734375,0.05337107872622157,-0.08764695081404533,0.08365099860246922,0.2570628806419007,0.2644140312489855,-0.18752970375927727,0.11521404447995418,-0.08493342827398181,-0.09930932023698141,-0.15977888446309826,-0.05150070047639614,0.004381491053177316,0.09752841335222207,-0.1611547105594212,-0.15241524264265935,0.0407616245223137,0.08480565622005556,0.01870013564848195,-0.028844270452912893,0.030628563292247175,-0.04155937115684608,0.01899549858140001,0.06379939097885674,0.03638295437476062,0.08030014731260204,-0.011958863760378023,0.07429980270245634,-0.05674679026312607,0.03729109262864979,0.04175206923981653,-0.040829713892400116,-0.03923125354388935,-0.04061264660742424,0.030760483524905895,0.033611787958913425,0.1347603807313886,-0.05645543072511703,0.03581429380565415,0.06211080803480884,-0.007323459800531064,-0.011140941810344163,0.019878575094075136,-0.036393553476354375,0.13988858098881288,-0.09320537926613635,0.029346350276826506,0.06696371974263826,0.11096643641801877,-0.07837468387519078,0.0479092565170459,0.09688412956198662,0.057304905284704076,-0.1750469817802693,-0.0643281584889087,0.1856518081747423,0.06375279525747601,0.03285472348605221,-0.07820986659641596,0.046807511780879094,0.07772864980473504,-0.12694784748069263,0.034851724172436344,0.1630623012202449,0.011897147126137084,-0.06659327617069069,-0.1384370591333855,0.07184634744545869,-0.08841294642425172,0.05691616798623887,-0.04487453079474906,-0.0636227469363465,-0.04102869364144576,0.01909838151974575,0.006587819397945905,0.021877123806091435,0.008840442846233592,-0.019931436840654765,0.022489208266484963,-0.00018441551532032965,-0.009521814150780218,-0.013987102393146211,-0.044711314280426184,0.07536900590561951,0.03726633898967087,0.0029682995207905554,-0.010946248939618815,0.020163541817246194,0.06146894384292557,-0.005779106730323358,0.03989975344331782,-0.08092197491668915,-0.03491250891887459,0.08958340853159683,0.012189366187878789,-0.04385378326797268,0.2445055435575413,0.08152785872649501,0.14101669949162915,-0.22883060441057113,0.0974692631028212
86.93965148925781,0.98089599609375,0.10077347675617196,-0.00024884323390708674,0.09511139114125142,-0.016737652952536614,0.05198938950289622,-0.2876982002348318,0.032733151430149876,-0.0645260652671177,-0.2035233030730762,-0.1181639665306364,0.05571898120728317,-0.37914982774586975,0.24275707613555192,-0.23433404896590762,0.0020938142451098485,0.025953297125246154,-0.053089381908746174,-0.013007456885585453,-0.028328963957156575,0.02322840679625914,-0.0174720215786866,0.0902662747990972,0.24616284834546004,-0.018639201877127216,-0.08488516200591648,0.1133359041375614,-0.023012930388683225,0.06664605709745576,-0.007517751927897323,0.006302995818160751,0.007897272153629346,-0.004429144722735801,0.013487710243098503,-0.03744849451675978,0.02540272904821171,-0.0785665635189052,-0.0827655869874589,0.0032615642731499976,-0.09648410699819325,-0.08890519567493568,0.06807217893873503,-0.008268803295758942,-0.038316824344293954,-0.018730270181469617,-0.03272138283862173,0.012266858447092457,0.14690314385005887,-0.0650314783461451,0.17515483568885726,0.12970283135744634,-0.2076373426286733,0.09804717010046685,0.011744785646301839,-0.23574656243194025,-0.03417769388530166,-0.016301496854317095,-0.055485988634537034,0.13368026181526274,-0.06466395258866324,-0.09908195230659286,0.2566279462822181,-0.09485533522505882,-0.09284146790479827,0.07793414661704248,-0.14380734020352479,0.08462832906034554,0.10677322170662543,0.0736272933713932,0.04259911241295279,0.1366092101867659,-0.23962303057434564,-0.07121472742928735,-0.005025774989094548,0.00618972655765343,0.012088176726768771,-0.003811884333533278,0.008307287736510512,-0.010192653552142213,0.037784442256900586,-0.014953317816665295,-0.03834414703641618,0.0028570390804386874,-0.003997660990608722,-0.018918972046142842,0.07265950943695344,-0.06993609180550418,0.007327190279689394,-0.11889832460899338,0.01848496932772035,-0.1512599760812593,0.26412307532503654,-0.025413100702862464,0.04443275564665962,-0.04794254357336204,-0.09818321837970269,-0.008399001923513214,-0.24159718297392305,0.17415608859956044,0.037126614590119345,0.15287985819230637
87.92054748535156,2.0512008666992188,0.24694666502310608,-0.09028585516080069,-0.0932972179560806,0.05772373473216599,0.1999132068823109,-0.3090585375953864,-1.3702428537026872,-0.7134635386586777,-0.2105105153643253,0.7146974285713331,0.09293892823894896,-0.4803930326322962,-0.3228084538031677,0.24030305136065724,-0.07161440400259035,-0.15558762287963254,0.22875576445969645,0.24089471616621935,0.13448904046735038,0.28588112088557666,0.06480263169708084,0.21345233301228622,0.019496788511702112,0.05396976228052186,0.04838805321149453,0.18807669283290573,0.02415195334229242,-0.00948544674024239,0.033744864970478836,0.057981152600981356,0.03781659375239379,0.04745946571285904,0.02011778776612802,-0.12427629364769578,-0.011546990522746981,-0.0008748591104577484,0.04339854744845825,-0.038892973350333405,-0.05612630707334398,-0.038790822593378974,-0.05709781641561043,0.01089451468772988,-0.07132042518171275,-0.005006945498153796,-0.09431081618948778,0.05080280091947091,-0.02541176038809538,-0.013310923254295478,-0.022098557015647113,0.12215145884805678,0.045420606820130785,0.061079698375510125,-0.06135875490014077,-0.056544493838351514,0.02489957835018978,0.08026574821405448,0.0386869125564827,-0.08534514438808352,-0.03899090623787119,0.12510099340400238,0.05307666254150866,-0.03982434290766042,0.045537216639645134,-0.03308851841951098,0.3127848314933282,-0.06835394103721647,0.042208767521901044,-0.009404699526053049,-0.03070320479042027,-0.03247025280274395,0.03779262418800763,-0.010842658087170429,-0.0005960894524614808,0.08615695609423493,-0.006782973792434163,0.007964918698836823,-0.017803694942268945,-0.04607285015873279,0.0766326490642273,-0.006486620816228635,0.029377291465936563,0.04217620021085094,0.04747454116715234,-0.0013018708316984429,0.00798929145339801,-0.05706053198301353,-0.004902836589629194,0.021788516852885687,-0.012410452906007705,0.1616303437678984,-0.00045824869863429546,-0.0984645023886408,-0.06097891371622771,-0.005564918867508768,0.12487015494408929,-0.04648296573755903,0.03300625084659929,0.004564741706430858,0.010139862998409997,-0.053293437785583674
91.89285278320312,0.9608993530273438,0.10358438386549136,-0.023070198758287773,0.1031615492292947,0.10267074485945756,0.10280128264011866,-0.43486033428163545,0.09934187855789689,-0.1341341163517366,-0.701244560852324,0.25579472366070255,-0.5436785803016834,-0.5115962780142381,0.32229976590694215,0.30616556380702137,-0.6007038316148362,-0.01026456507101367,0.12383104265097537,-0.058314381619602264,-0.05390164930166957,-0.06511614145191283,0.012923450493606608,0.06493157601570954,0.04249593714570623,-6.993409693435151e-05,-0.009337261920449978,0.06166060973445919,0.049180708375881885,0.008295496777961212,-0.023404059924050286,0.0024901718160962594,-0.015614476900100182,0.046384834912347774,0.0029314666963974273,-0.013275529891157161,0.04192881464451275,0.005630864079875675,-0.14016215563363862,0.047747728648888405,0.04482567458319306,0.11206682155821814,0.0916641633026831,-0.06906889093323554,0.047122698804102324,-0.03555135651623681,-0.10236250067123012,0.022434541717119158,-0.032742697026382606,-0.20933278733779728,-0.12593591630309428,-0.03844269205472958,0.0900819207925922,0.09596031152958104,-0.31745557676221586,0.003661296332637585,0.06260268683668464,-0.035057591069588105,0.0016517405247319233,-0.024421432852905888,-0.008161935013206017,0.07322025556855445,-0.012914205835213537,-0.10100026348797336,0.08423316408118174,-0.34524500468067865,-0.004030532335785354,0.04873547240369082,0.12126876137730204,-0.04285628233945176,-0.043457673180499895,0.0786215044474637,0.01924949484404043,0.10234726693676226,-0.059771447016176836,0.0007669977625886313,0.02233118093509702,0.06060107475094367,-0.01825730950163849,0.07702892854649183,-0.05633201882326548,-0.006808277344642094,0.007140619716810296,0.02031763153418524,0.022859548784922724,0.03582264300171754,-0.07846564296435142,0.08064084790614742,-0.019952566171553658,-0.1391902932802454,-0.05121805160132275,0.0267953049082299,-0.13477177419164169,0.16172911759317898,-0.002467508690901149,-0.00012292625693774428,-0.021028253299482165,0.0777890660033028,0.05664125117943485,-0.137300465630382,0.032782987465916326,0.04100532484751436
92.85375213623047,0.9505996704101562,0.00722332932817718,0.029212850279631122,0.05864168202675483,-0.20630025506405866,-0.07169292767257918,-0.21221611380859903,-0.5605215391370725,-0.11650943906189747,0.13875418138251716,0.3302907243955193,-0.02254940718281398,0.04695825501364981,-0.20014594139127428,0.13150253485787425,-0.013969903957599967,-0.06677108541060867,0.385654669820894,0.07570197194167215,0.029505963844650686,-0.018393389737140393,0.13897052103376153,0.07462143262684515,0.08161060004856875,0.08414094499696262,0.029215323998918963,0.00010521131622577172,0.043598868795684684,-0.07269421616156217,-0.09154337471378526,-0.10658610460343866,-0.024122273699676774,-0.025134999838669733,0.03474345134927782,-0.03835529116619547,0.005785564452888321,-0.02019255761653249,-0.01937629619740531,0.03199971828511944,-0.04106715449983208,0.027661167642815142,0.01446336482754106,0.00036924967533561934,-0.015002420044213718,-0.018111021320702258,-0.04783550086270934,0.05325458333706423,-0.10767859308501482,-0.0015660282769015311,0.05873139485450434,0.15242786519051996,0.02007056473211632,-0.0717990672880328,0.006983335705687656,0.27460300055704495,-0.005969902231397045,-0.02188909522184282,0.07727479494733382,0.08907853509266873,0.0017767035618004067,-0.007216568018697599,0.16995436627879398,0.0130334472885081,0.2291360332891028,-0.08604964945105524,0.03670483509224684,-0.31518138509917165,0.18300521074409684,-0.03056888534306717,-0.06888949180100484,0.0783213930318679,-0.020140179442876452,0.1925910248313111,-0.050608336769927265,0.07673851377721735,-0.04514918367680531,-0.023703332759610733,-0.001767874617721553,0.09689388573048079,-0.05482720243188954,0.02523843808159769,-0.03969460888202707,0.028556655574510065,-0.0032394619519558222,0.0030684294366437027,0.044103046233964466,0.020820158453937903,0.05381324693588681,0.00577949985468082,0.018704171953049794,0.020888111300044344,0.08272736809569607,0.13960762627280787,0.04508463666035878,0.06793814566246599,-0.002026469000612283,-0.00881444981806561,0.07438076971588277,-0.13270376435046477,-0.012334602862166782,0.06763336181648831
93.80435180664062,1.0200958251953125,0.029597724897029914,-0.23465575448793496,0.14227041698307452,-0.41145286580832535,0.20988950516570873,0.3662994093163975,0.07025438565703271,0.5808473846422042,0.12056548134471472,-0.10083133495783067,-0.030417871134521372,-0.9515394373388737,0.2449767959022831,0.08970390165663407,-0.04434733601129598,0.22890628981843247,-0.018715585309527,-0.02801874268416934,0.01661820702447956,-0.01934070004474095,0.10235065784529328,-0.00010004237517436971,-0.005288084226774556,0.00793248772132523,-0.0640154500614031,-0.014599212904019354,0.0005349225536738348,-0.049748239214463384,-0.018806259535065616,-0.1567332915367027,0.08490571005945693,0.12591676470428156,0.03894311354669855,0.0412342853113548,-0.008263590822668365,0.015374199384132661,0.0016769159622648383,0.0024762827968830784,-0.054496493971606504,-0.02893798355706933,-0.038545055501085196,0.006181519742991155,0.005297614109182429,-0.10828247922716759,-0.09107079700181503,0.06116459014667908,0.002394893130428781,-0.015651332780992427,-0.12434557938700973,0.3467032445133422,-0.28636151075897903,-0.018794935239312634,0.12379734581715766,0.2520154945384206,-0.09720013938932277,-0.04765987048928075,0.096131555263317,0.06648797617778002,-0.3450650643826482,0.05297247572667142,0.0052376108181318715,-0.15863766043468971,-0.03947590253500802,0.05747826153849992,0.0033673599761984176,0.03002692620808141,-0.08558866701710328,-0.0390244000550014,0.02625789169678598,0.014872146825216974,-0.03128928788422681,0.06420685293343192,0.11391927201228388,0.07145916555978978,0.05464635134176524,0.11751909144494661,0.016695255864902624,0.00568226227036589,-0.09263485844745299,0.014401022044890632,-0.038760212330405525,-0.10124720962910497,-0.029046203256215063,0.03285014387050853,0.016770299554604184,0.0318463133671195,0.009967040215735839,-0.04505058353022015,0.0520442998676766,-0.007418989163317769,0.03124718116509092,0.04617191198497405,0.07204429267455115,-0.007278162241054565,-0.0908316932122116,-0.003992997432710428,0.14449034323415466,0.05357978055298702,0.04643053684400477,-0.19472076223399723
94.82444763183594,2.1619033813476562,-0.0946846449207271,-0.2092108984577207,-0.1374355202199707,0.22636218452483378,-0.03466403106357177,0.21673635743367503,1.088820585783783,-0.5447762984829914,-0.17278224769734354,-0.15459649128051628,-0.416101603240048,0.17678747198620268,0.3303596913435789,-0.7553072770946376,-0.0882459318746946,-0.3483114756750032,-0.384925144048487,-0.3019361645826709,-0.4837561261033174,-0.1750685945835285,0.27989341528394657,-0.20791803764503167,-0.06831804563732043,0.07049178993059307,0.041761579708300134,0.03141283069902793,-0.008831544267340438,-0.2378116878832251,0.05613710006873965,0.16422689347146052,0.05931595879305252,0.1810597474409029,0.12237211953730658,0.021272725935490636,-0.10312482186886253,-0.05686727264526374,-0.013767518826563904,-0.054978552975961326,-0.024981839987506558,0.03467563379957693,0.01904200722193644,0.06681521764822754,-0.024762952748380498,0.012530639737936711,0.04975518358119799,-0.07107643309082501,-0.037551307039631734,-0.04018650002184542,0.47450177440047075,-0.08135236902953813,0.0504047892899061,-0.012274829270489368,-0.030654837055715874,-0.08650630910483076,-0.24099531501263827,0.0540360239421905,0.0635554132139814,0.11708668166246983,0.05030518005910339,0.14483315125818336,0.27238679588206244,-0.050784461984590905,-0.1007192674248682,0.029096135643023168,-0.08460347674739427,-0.05291702309398724,-0.06489786666998965,-0.06472968738939111,-0.022030732961847745,0.0045661742464182505,0.005883431025723386,-0.0036657997724344232,0.021035764535613028,-0.018697256574081764,-0.03841230130791981,-0.0328316872647605,-0.02557607298596694,0.00700392133217337,-0.00503864106401385,-0.04114319108964831,0.045219643225027736,0.05086257241364035,0.0021042271932340956,-0.0006679975367273605,0.012334772895364419,-0.0041359404090005976,-0.07948069271474732,0.11036720203276744,-0.036910166020444724,0.01633111942968871,0.01878274451159853,0.032791349280210734,-0.10248860930353047,0.22478603879575637,-0.023640641405136113,-0.048699155609110256,0.04635313880903343,-0.04728282954552701,0.12231422715311244,0.07851650367988222
98.9074478149414,0.9506988525390625,0.18366128152419053,-0.04426740086634774,0.21340451275602604,0.050312644507950255,-0.03167999325644305,0.52436974271638,0.6670530662272232,-0.3223593913116394,0.25743623287591927,-0.3884885058643681,-0.3652061878994399,-0.12330674280553619,0.739021584937507,-0.1968766676891131,-0.08401981999509892,0.08589754382159745,-0.011645904829256135,-0.036370652273031365,0.010686671474445457,-0.10018781515907468,0.015433928517470406,-0.1371907076678918,0.020614840667967357,0.021409234369490063,0.03226617594878515,0.06263740809753049,0.013183575833818701,0.033051579706968856,-0.026194154497692683,-0.08575924785477367,-0.011687411638309223,-0.13869218168910105,0.09028522656255603,-0.058215266014341065,0.01208606538450955,-0.06381992733904687,0.002509014703781176,0.04852561117571691,0.13213058860999555,0.20316921094960702,0.007389119056551396,-0.01482674223534517,-0.026851746761590217,0.029354724629127346,0.006182554995072252,0.017769620035234367,0.024432249063872178,0.47811326536442383,0.6443143418874787,0.059959575620453516,-0.06591015246470096,-0.1364695415459537,-0.0896548003371783,-0.0018300984282721344,-0.012754688936704735,0.014447291653585208,0.014902626996131124,-0.13694382476408895,0.15068689547361483,0.018593876427222607,-0.09384869650150528,0.017296671136710896,-0.02938988340317707,0.34172795049596594,-0.14706431746100143,-0.009771845874257263,0.08253620852352425,0.01968128221159105,0.05253714931911273,-0.00834999738719194,0.014752477824294286,-0.02872264510199833,0.005388063546149173,-0.0006831952721694469,0.052744938335437745,0.0034522051142185156,0.03918711810813253,-0.03181902802624408,-0.06387856317348578,-0.01547841055802853,-0.03942401016693998,-0.023476883816985164,0.048305070258293906,-0.027624072898240454,0.04030275380895625,-0.019047225155374336,-0.022311792988528388,-0.000496042096076353,-0.12590395204069543,0.08628995095110996,0.028734074824267677,-0.07144901475543615,-0.007532549660135907,-0.055994035291857785,-0.05397553988579942,0.013512759806066725,-0.1654653330012087,-0.05868445668061053,-0.14620080817638487,0.026966779447511538
99.85814666748047,0.9404067993164062,-0.0034229854604143767,-0.03259690524907345,0.057439190523056655,0.16819311991904273,0.033049873569572126,-0.6838440728282928,0.7229234437824191,0.5378559657071189,-0.012638266863154956,0.1670711865591989,-0.640247683116877,0.14536395223153617,0.15845189618390398,0.15227583802352046,0.20812002072410793,-0.009947246863473574,-0.029525445419804952,-0.017904388156840794,-0.07522959733953177,-0.035965982042561385,-0.13989120919548648,0.01933104279888062,-0.06665113498314583,0.003191491680382852,0.06010616339748871,0.048027924840500294,-0.062430290693396395,0.006193696590244987,0.021078121671225462,0.012998885020285771,-0.0004185512919537837,-0.05395954985704651,0.01527666275647872,0.04738881904956012,0.0250444180614542,-0.03365184376464791,-0.11522780579787861,-0.05051349212638234,-0.10364164620262724,-0.007964265495896556,-0.058931832188783145,0.0734929060518559,-0.05753500747153641,0.0766805579895144,-0.1246483018347839,-0.06304359434251589,-0.08460062873402421,-0.06885718097211917,0.46740221652230823,-0.020445051607451484,-0.06666804700125152,-0.38975924790914623,0.01810795948820946,-0.03124750427724881,0.17439391860370163,-0.14323065619691583,0.00517562502976711,-0.0022534537945637033,-0.019643278238007753,-0.044095666883363235,-0.07462306986165948,-0.02310818919199499,0.05422880152471002,0.033782911440750206,0.005495483261905772,-0.03479448144038814,0.037415079865465606,0.009327814911679342,0.09930766817608137,0.005542050570243505,-0.040866082447689515,0.000910973640480171,-0.04165354084559636,-0.1095543657228686,-0.04472902253507666,-0.023525559252045896,0.03654288922468367,0.0038959901446996587,-0.028178270400471606,-0.01245141244301511,0.009366756569651878,0.08164823252941264,-0.042347461667509835,0.006249109046924255,0.03057534416885803,-0.010919074643038693,-0.11286585771867479,0.017282889419892113,0.007247416389211152,-0.0022899900295264876,-0.017483982116470106,0.053894531073982774,0.030695122531310143,0.040246503652465064,0.00919941130090406,-0.09399687884998163,0.13189179493092654,-0.23002134805985935,-0.10400692212863633,0.01105581674336658
100.79855346679688,0.9501953125,0.12509353769238893,-0.09457635763280431,-0.08840248865400258,-0.2665886990567584,-0.1995970785163128,0.0411487157010564,-0.039239724810257656,0.6672446482169827,-0.07520452585089346,-0.030829572794160653,0.05570033640505129,-0.09421392054797896,-0.25649549539955263,-0.34459872879495124,0.12938810587286523,-0.08217661980560689,0.06730112866181678,0.08600551639024476,0.004156545013937514,0.023923162571737204,-0.057706421907256306,-0.06369263555184941,0.03567631997598092,-0.028650799446164346,-0.03916105245891546,-0.09151213903990144,-0.05885412438271165,0.022265240246922696,0.0322064849254231,-0.05515180220974882,0.038368810696162665,-0.08244102624620295,0.06888741958930981,0.04438683231071448,0.005197309236146544,-0.00938631576543205,-0.037308575274012545,-0.0311383111710041,0.08184864425164431,0.07056771868424938,-0.048600021499699206,-0.07173650953562995,-0.13988021255293864,0.08508480168231997,-0.12572604308096147,-0.03037816904538664,-0.04995855087317193,-0.15591083143764356,0.1231212229124238,0.07438750170097283,-0.1957681476185842,-0.23332699121367,-0.051601704240514204,0.36462007316639666,-0.01963151564757643,-0.034310784654048535,0.02373825768899198,0.067039630277558,-0.04337245711728303,-0.10249828573174843,0.12720484605093857,-0.016099700053626903,0.1457218447387753,-0.43016206156521186,0.1472237824281971,-0.08187098762602188,0.06729108616628647,0.00475511338519187,-0.05697272637198929,0.010480550905892989,-0.012266217463774596,0.008169218731425395,-0.03951898570178664,0.011853088762464785,0.0038442175149330355,-0.003395231193983258,0.04525750769387421,0.047781695835313075,0.005221506816633516,0.10659808640808317,-0.0740307643989553,-0.02527498527620706,-0.03561561518431347,0.007809598538720862,-0.014714472342515453,0.04157700145823848,0.02441499754866922,-0.011908304044706122,0.021112919351035153,0.002752893649014697,0.014133258748831798,-0.08108522691025093,-0.014487505826059073,0.012770120820592304,-0.016122271273577005,0.16413345166098034,0.23681008815232096,-0.06385079793842005,-0.056880658867566006,0.13585539625686577
105.53154754638672,0.9605026245117188,0.2197000816771198,-0.03280523027338538,0.034793201773319724,-0.3421799216060828,-0.3867148144686518,0.2179003921142857,-0.052548902885357525,0.729596640742671,0.03583769788683712,0.14525703376083227,0.4201800327159778,-0.6206481023064787,0.11849001845217738,0.06273228734459806,-0.0738244172676081,0.12140036086005146,-0.016441038472918043,0.1490175440128046,0.19472919144102874,0.03550160484516182,-0.03489689482363461,-0.06936293205917499,-0.0373879735085699,-0.04104563342009245,-0.0005899149135751213,-0.07491416001047346,0.006756088897226871,0.03376528004179545,0.02527587478247034,0.03209316725049739,-0.0007000445729358519,0.0171323390117629,0.06239440141043898,-0.023514210210751584,-0.07939400267353719,0.00101384570763767,0.11174317026201892,0.09262793257795486,-0.0282766202075603,0.0609478705914632,-0.0387924308202641,0.05890860883311651,-0.028819831737545605,-0.035198550015439214,0.01960390069135022,-0.1186806876584649,0.07651364003525302,0.09565292156152125,0.2521979915172035,0.48099573822935393,0.44447564846436605,-0.12096826732858776,-0.09541019500266047,0.17438072194643814,-0.03935175655870145,0.07240435185861481,-0.08347424971400312,-0.022157043951775614,0.0826857762134471,0.23448860293689938,-0.09235540277952071,-0.09142236840929009,0.21741060338885854,-0.049749072351795987,0.050426937103168853,-0.04397193055665102,0.02728721154817533,-0.05126457082444104,0.0982105956364872,-0.03670440124542599,-0.04198810594831898,0.052899699617348264,-0.05034243382192503,0.022830649137234947,0.0741461294565663,0.009890906087045967,-0.023978657017400342,0.008500398578416182,-0.06594269004972275,-0.0574565145631856,0.0081203621873458,-0.040745145461905025,-0.015127819142691845,0.024459157972182614,0.012493659846597515,0.08547582688951584,-0.07841495759156311,0.021657960795170947,0.012446325976680953,0.0987891766075938,0.06024942095972641,-0.06413714179835618,-0.16664901567411072,-0.08629591769579352,0.05608100204189253,-0.1707573478688485,0.12056613790880537,0.2007702133298069,0.043939163714481685,-0.08104816089359168
106.49205017089844,0.9708023071289062,0.05820927753501201,-0.019885332967852703,0.11495427080353587,0.20524245325087825,-0.6999845497791184,-0.1382870269970477,-0.03642248777617769,-0.6021343863354854,-0.17397839454537697,0.07147864470600475,0.21090826610124427,-0.4175949729262822,0.14692255828768203,-0.2984664565317493,0.04376801108389129,-0.14263704406975672,-0.049053773622073096,-0.3150606447861709,0.07317024159278829,-0.017891186721610858,-0.014610543195266197,-0.39109415858444124,-0.0828576861794768,-0.03755432348903157,0.05955181500771306,-0.02745877735408326,-0.06230137865908285,0.05709800690130653,-0.025676566016080777,-0.030640072422695636,-0.031264679460791395,0.09610881383165384,-0.016671100746731247,0.06615937936564445,0.13702583235411875,0.03248855583099781,-0.08224356372118542,-0.03927994230855024,0.18266159117087954,0.06674395782475206,-0.005890327068020552,0.03783986188636,0.0316923894029289,0.03853349234956393,0.07746460294478544,0.015069227627669145,-0.18429364968859924,0.3539124422860181,0.44789025847651653,0.1803475950550392,0.4746220819451084,-0.05420486043579461,0.20363554988874114,0.14904050834366356,-0.1713561139927528,-0.010471402155840557,0.03716489245762007,-0.12740589357226378,0.08258235642901328,0.23147999080763154,0.19420198663753394,0.09720833228887885,-0.0647703066024889,0.09208512911890351,-0.025002737749497593,-0.041922706014651145,0.09392267693439005,0.17677126142667776,-0.03475975880563534,-0.11842319889021369,0.025803866159474935,0.06578062531483077,-0.06892969384208203,0.010644682904392631,0.015942370103922462,0.01960435410941698,-0.02547586073797993,0.014572301318188667,-0.01431925428624142,0.028308214320534257,0.024355207693277616,-0.03425220119731895,0.03428040478428014,-0.01717544776098824,0.04495286147472889,0.02833354550678747,0.06466035623876226,0.024029297544666182,-0.013961815167831008,-0.01997083359330517,0.011593172736177715,-0.10727444878981893,-0.008212709306672686,-0.11695324141352992,0.021307837789347084,0.10064441662833608,0.017342668003407613,-0.14659264715925474,0.026979845903262176,-0.013792384547998457
107.46285247802734,0.9099960327148438,-0.035397835613817395,-0.050138144231677166,0.26377560559342805,0.31617430146763215,-0.02310340170306739,0.3954621637291771,0.2836998853009983,-0.6992551192124474,0.1080147531055359,0.001470364597855902,0.06301836528099966,0.20818154997961547,-0.09317981563143132,-0.004004229700696263,0.027612634829107974,0.30112520267947346,0.01751509402758204,0.022832764959529347,-0.08894783430088378,-0.02614026203606991,-0.04217544463694105,0.029589104380571486,0.057597091995356925,0.03437621139615305,0.0022927097139672746,0.06319818196509397,0.015321077390988341,-0.04027241690708275,0.01762588833881331,-0.010983123543473555,0.05761872499630892,0.0024705427631131357,0.027568761059921443,0.0166042096997704,-0.08608092106620722,-0.030164123131763636,-0.022372727435152284,0.05575230415787194,0.006573537221249988,0.01933058098828548,0.02374839946708278,0.012509178809531969,0.010698224028749804,-0.021724614491974548,0.07097657713188399,-0.00952733342097932,-0.02331682296642,-0.06933850983744788,0.09647932001848823,-0.11256681562474076,0.0002897830491943344,0.15143617257237807,-0.2189257705191921,0.16672083314590427,-0.032985053630161944,0.16387910636733627,0.03965695861910475,-0.025190991964856448,0.08607992016736056,-0.22552515026902684,0.06626638064814619,-0.052488357632955195,-0.09021798011283802,0.12552850162499712,-0.10706452299831795,0.043398220118035326,-0.008870164627563374,-0.1397332762668825,0.36464594597657457,-0.061059556655403066,0.034085752229925256,-0.0043336054257462255,0.012715228443034313,-0.019446670450671742,-0.029123507693636266,-0.05667909067317078,0.05995227856584004,-0.021452887593524997,-0.07510798190600323,0.011978753651173726,0.006100368537458865,0.06511756548557575,0.052608752424776424,0.0026322320695862517,-0.008085918674145803,-0.0669619291973505,0.011951811316228272,-0.000866499157676936,-0.11678011113087518,0.17762065453675294,0.11958174830942654,-0.20376604228694295,0.016033868411718635,0.06607749401344681,0.057741180710856044,0.1784560734060993,0.2130031457528812,0.19070891860348335,0.06139483754680903,-0.0119171733391846
108.37284851074219,1.7410049438476562,-0.038488441153912506,0.3513490488875104,-0.2757443534864204,-0.23193932484633345,-0.2452282349345556,0.5607475777864612,0.719197889595767,-0.14621161115863818,0.1108640635928049,0.058646112903052564,0.185533653259144,0.31837469276577635,-0.07545173282855663,-0.015194606414154425,-0.27994825278378804,0.588537563857568,0.7641987019152024,-0.1055151817599569,-0.09565291043671889,0.2751556970553333,-0.03409441531856619,-0.1709017613842576,-0.32990122223244844,-0.00999682642286885,0.14935482543447287,0.06423045042221864,-0.017906821245614657,-0.037649404638027885,-0.016010235367764025,0.019992476158543576,0.022678679915356333,0.13135105343969475,-0.004535450840949418,-0.008512393864025379,0.010539650143841036,-0.0771654708699353,-0.028719225487848256,0.04396062068757911,-0.2154305407312066,0.00175831396519668,0.10850505311751502,-0.11575733544119694,-0.0528666496441248,-0.027722869330541577,0.021098675143662947,0.0064302532618229075,-0.23254048855709702,0.13081252891498193,-0.0077082979142068415,0.33251784506782317,0.05407044092829613,0.007507174920651949,0.0903828768330999,-0.10356584042553095,-0.14703640876084367,0.10700428587285898,-0.18272691843503436,0.03632915080172855,-0.11691385990762108,0.10328084403708311,-0.028822682497692667,-0.013570662554184237,-0.038481496941322364,0.1256011916371197,0.0034772438563351986,-0.10191253980752725,0.0047643448244938,0.03056180034568829,0.016984289087988658,0.027321171649122934,-0.045048190517150706,-0.05829772375958905,0.03600997092185644,-0.06348378573043434,0.010872824641884864,0.10301866164792137,-0.06439074460342374,0.0156456742072617,-0.09724666674798857,-0.06566750330111754,0.020174490347114656,0.04531194486914937,-0.0001810553508321648,-0.004355482585015703,0.04748520840808634,0.11691998944134849,-0.08211627951008188,-0.02005891904897295,0.032615523505386115,-0.0182548601325542,0.0021596759685436825,0.0287714230883025,-0.07035335654685064,0.0772554646278328,0.08063149309849313,-0.03174388676045187,0.019156620756325304,-0.0342982949770006,-0.03682840982407885,0.2900637063495993
111.92545318603516,0.9003982543945312,-0.02688261698434667,-0.13873285273403224,0.1696708714909209,-0.21917064986687007,0.23060041270177237,-0.2696572207694231,0.5519050426414746,0.17274216060967026,0.09967170896100228,-0.02652878376108767,0.2289476872979975,0.17900001800468354,-0.052801199804269505,-0.2416139513475041,-0.1470996932775082,0.048221940219636474,-0.013943891167565142,-0.07472664901278248,0.07524261230866107,-0.08843036188732094,0.031009133619718573,0.0056255211045478214,0.060101571282279144,-0.024625023952213193,-0.005340202025646088,-0.053285781430179376,0.15179160440359213,-0.05079304344501303,0.08327449669206244,0.03867133777020954,-0.026818696038455235,0.012557268344813168,0.014287497782299045,-0.07450887507433537,0.00829069497211816,-0.051858604328073266,-0.03758170724814584,-0.06591208772486075,-0.02698584511299193,0.08970561364786142,-0.00566949433072694,0.006050266262294737,0.06731533276942954,0.01184914783856465,0.0971076075012727,-0.0652741132144856,-0.02202416652462493,0.15195453693270677,0.10063664394867035,0.2212999496556718,-0.3153997037397016,0.088527113928663,-0.01645528326221194,0.010468816928723937,0.012461668492248803,0.05107161906990074,0.021836257431527034,-0.1318117846742592,0.11006910693100247,0.07422454823835625,-0.2575000912828416,0.15735806026831622,0.014478696859968516,-0.2314616367005447,0.09095374005291403,0.012599653363333347,-0.032004412722674735,0.36664585674915945,0.01677602636266889,-0.048961842195395296,0.015169984759768967,0.05601815918954005,0.012424632090558968,0.05225980512255719,0.021994221382966486,0.009519888145746268,-0.006861600588018313,-0.009523083209417388,0.013466966665150746,-0.07748254862808909,-0.13177875161552077,0.000951422867937814,-0.025379393645299696,-0.02106450216337888,-0.03827891067107695,-0.019439509629055746,-0.04866103310426536,0.07372689213869213,-0.01872188667730689,-0.022366952227092597,-0.017443927284635008,0.014121641718840647,-0.023192263042425415,-0.05087484263258868,0.16964134351962867,-0.03683391236874825,0.08118513265553248,-0.061228650686818334,-0.14710742817667863,0.24085449407475457
112.82585144042969,0.9406967163085938,0.21722320527743227,-0.020000566971933614,0.25558621039516033,0.13237029652452192,0.11046504250497002,0.03467409920296821,-0.1140350074188901,-0.5829641254336291,-0.05076313601884471,0.0908475722585616,0.14311063378656355,0.08531718687799889,0.5847056348116937,-0.23565401672659386,0.19083615647318578,-0.05889896183988569,0.041330938681430694,-0.0633719088178788,-0.03693396617754057,-0.04149060298929924,0.0059037616776496495,0.08787338752170538,-0.06089146804931477,-0.0016781994394752513,0.03904364058731687,-0.0737727881753048,0.06585461961756882,-0.006091472386060476,0.12635065806428197,0.014149917153904323,0.08498098489416808,0.03349137004088984,0.028098502007369693,-0.117432062287701,-0.08089653147607398,-0.04311289476355873,0.015036395279580502,-0.018037544656921745,-0.016263779921424814,0.05569513094567913,0.015927924985673473,-0.03914331496084091,0.05933320644536324,0.09079441158873287,-0.07469191714021514,0.0010032357778213263,-0.28385646011850385,-0.10583261182016306,-0.6244796314597734,-0.5314112786117691,-0.07788011641299483,0.02972169671399459,-0.055599004263336145,-0.046907471701617576,0.07992506486453196,-0.06126708704240647,0.02959255649627831,0.0954698617061413,-0.04226158724535,-0.006101041775882596,-0.17717106720793663,0.13751074064684485,-0.08321894288328545,-0.0658061186379604,0.07970742852007869,0.0011781110437102094,-0.0924862270945149,-0.14035652660809497,0.1246041837891023,0.004041689389648308,0.02235014513063535,-0.007279097081314745,-0.026350916300475726,-0.0345316459982644,-0.05499914337801886,0.0026515725729536993,-0.006543588889995636,-0.020767278547019957,-0.04524261532161756,0.019381869379213667,-0.01908517154246606,-0.01680536941377128,-0.014090841099925299,0.008645610930621675,0.05514157592018627,0.0401996480313148,0.08148456255548568,-0.01908149632228741,0.0011001628238781697,0.01961851999944971,0.021826124961181824,0.23386451594330906,0.05217362374647477,0.009159527725997854,-0.15782679567337277,-0.043696678987524606,0.01743152110520509,-0.004755389324126058,-0.033988207370431296,0.2665504832166239
113.76654815673828,0.9706039428710938,0.23336764221803907,-0.08390306685494955,0.06547733389980687,-0.2380509793401549,-0.43701765129984127,0.037101424887949166,-0.1366811301508089,-0.27207518364830424,0.1349247995815575,0.09863296942377078,-0.10952582552980702,-0.2628626508491131,0.5866223698582662,0.5520708363743061,-0.0922614648046386,0.0488046362397894,0.08141700036430807,0.14466929390291372,-0.014589685064269386,0.02297147075706446,0.017258314670554498,-0.01189898564370695,-0.071763493784387,-0.04998699848845597,-0.06211805079608286,0.029758902048133834,0.09304231936876767,0.10933649368779919,0.046188770614594685,0.07553700088299484,0.06311207744475084,0.09117224788284226,-0.009219194005182136,-0.1475328221264602,-0.06325004032931586,-0.017468438066179814,-0.04972818129740142,0.07632878466199437,0.028405951173946207,0.018492282549195965,-0.05404313681763934,-0.00033425328349875275,0.040475791153198944,0.017541945792509013,-0.11264889666181578,0.1626441365855824,-0.08691315660364667,-0.32301070161362067,-0.11398902802331211,-0.45242120016785004,-0.23084084254570397,0.3023508375928549,0.16624095263195296,-0.10615107883974194,-0.00425878285987049,-0.05506467716555109,-0.04589256631565082,-0.005258298569459356,0.04368707743063173,-0.039794419901584284,0.05888535171593372,-0.09040219237113142,0.2688660503665077,-0.14529986775621637,0.13780906259851095,-0.11916380709939281,0.09730443615966525,-0.038122784375895225,-0.020084170580665986,0.06612351605598145,0.020395126673344356,-0.004044587614144432,0.03915909114819392,-0.015191489237093504,-0.09650073300180166,-0.08205236024257022,-0.029001130238008148,-0.009941516718928031,0.05273282907243222,-0.0185420484047341,0.04489217359421155,-0.039335090843721464,0.01979503934833448,-0.048971774307362645,0.03020935324530586,0.014059483479241852,0.013244902551279197,-0.015084683465400968,-0.03559028422923638,0.04849550037576789,0.018875123226872736,0.17096550995900617,-0.2256923321896431,0.19666043980602746,0.09054690079099112,-0.027866497519287225,-0.09776269519411028,-0.12878280352980795,0.11399306883819753,-0.14123624205535593
117.54865264892578,0.8805007934570312,-0.13265661144856175,0.05993412503648326,0.05991756486345729,-0.003396609633918533,-0.1262402214306929,0.08893951826395277,0.14099428903835381,-0.2343659254917757,-0.18460724354086924,-0.10218048229452521,1.1381446786515819,-1.00776088986389,0.12130220986682794,0.3641979405597022,0.23181562341796275,-0.19231206712254292,0.0426169429138708,-0.07878521167868832,-0.03114175205557917,-0.06263115931465152,-0.011607429167718925,0.025645440342726398,0.015196314567406936,0.01187676095192963,0.04500527199840622,0.08320396387975193,-0.05996910217578601,0.05608046991608779,0.028424526280124304,-0.028723271194141684,0.05051857589328357,0.11030507310945181,-0.018734712007004682,-0.03642299202805915,0.07835803133953789,0.15886274669908057,-0.06612863055177501,-0.01686384400724603,0.08500690852332976,0.05335734185606714,-0.09300161375507703,-0.07386660305205142,0.037627046921393036,0.043446056208849296,-0.09415044801848849,-0.033586189415978636,-0.0790265434149798,0.004523870147513417,0.08246409550149977,0.04483651653844284,-0.7241992343570438,-0.08838046946284599,0.10288789324141853,-0.07561328119985218,0.02406925455695398,-0.04750255148377888,-0.02382553650074168,-0.007982569330643355,0.2831059946099885,0.0401066381166731,-0.44370991535576804,0.4741641116725958,-0.04883972375562248,0.031242997982021944,-0.13051872716508794,-0.04817968940082853,-0.1737299115509443,0.15090829675716114,-0.07788823633112762,0.08630367383223128,0.05109189928098465,0.03568196911019892,0.05079129294388255,0.05448975027455853,0.016732757642711343,-0.03502120332061778,0.044542026198683915,-0.05289895537940701,0.030407260131429286,0.021981790664457084,-0.039572704171880684,0.01806685409581174,-0.022404374384830315,-0.03521047322480424,0.05651608958061788,-0.01994737569561091,-0.048788494535989296,-0.07869671347879054,-0.03489706383088305,-0.08656987666245652,0.024620740987809787,-0.08557974715314834,0.01845499573458953,0.011122224610100344,0.08710580950023973,0.11899896755714028,-0.10312449031315349,-0.03139028179063014,-0.03500834353034893,0.04158396839628434
118.42915344238281,0.92059326171875,0.008794756358477027,0.1877872274482534,0.07494307104825489,-0.33765511922484515,0.1237296565334858,-0.10097107878458897,0.2475306077445722,0.2667020600528073,-0.13288252274764925,0.06726992890441086,-0.09250449137216732,-0.12350080163413349,0.17249666302204297,-0.25454775870100504,-0.005995898991959417,-0.04652140935645241,-0.1465084783558748,0.056776273493417295,-0.05897071597428477,-0.01752526304207675,-0.030300011663780324,0.07149216553698193,-0.017093018280981365,-0.022721538598154553,0.04716530744714527,0.04478406468851874,-0.1109401842511751,0.026528063896411342,-0.07401667637164029,0.02649182904917842,-0.014757631253626065,-0.018313932295361712,0.021497927382634452,-0.25637110266434787,0.07084575996896023,0.1117248732612541,-0.0835677751549492,0.009789684324269944,0.06785280515651382,0.03235971959104368,0.05558930906956373,0.03146945989682243,0.017291741545303392,0.11853622971510516,-0.13334975329559973,-0.1975801583826732,-0.06281029205063464,-0.07795738935539101,-0.6485858892500709,-0.06646357420880457,0.16095148277090526,0.2781988274656558,0.08948518416035262,0.09343076348468562,-0.25166743986173,0.07550915510755588,-0.14968318034299843,0.34760477009794094,-0.29295890600422375,0.1402958751394383,0.03745202525305573,-0.12799055525381575,0.6295775273258458,-0.35882754173134657,-0.24313273949155617,0.04144847978716072,-0.08397572253073528,0.08221970195990523,0.21250980470245567,-0.050132316292685004,0.10465178908927879,0.10550314665017535,0.0294816918573597,-0.032032458076979464,-0.06251063110467672,-0.01085640739486708,-0.043225437336141266,-0.018091347612007813,0.06227708417588052,0.07106464449985482,0.08388294651813642,-0.045875625947026544,0.008865865096681774,-0.013603005705662844,-0.014403373641106169,0.09586290285427704,-0.04851298925085286,0.07216976890304974,-0.01626773819203727,-0.009274092256959576,-0.09481923478552862,0.03085678694706511,-0.05774196680735533,-0.05338870101776014,0.24185701397641038,0.10214942165155068,-0.10910711009847782,0.20483716693168186,0.3247873779370195,-0.3358065384316826
119.34974670410156,0.9908065795898438,-0.24637134311428682,0.15334016987180119,-0.04271250805754491,-0.2577070314090131,-0.5759213651991458,0.6034784852808901,-0.035300843923590786,-0.49918057804309474,0.006229671788616047,-0.4806963945114216,0.08902464869699261,-0.8271681825750301,-0.07790018259662937,0.06586874479008936,-0.4423062332827695,0.18202897471627671,0.14814951965535894,-0.04379052097166215,-0.09261055345628282,-0.07258097157839352,0.06563122827385234,0.006541745494340889,0.008123736151872455,-0.1148292079129323,-0.05292901535612163,0.1637552428303854,0.0046423865588170465,-0.068408914535142,-0.007086148544929029,0.01282410902877253,-0.028007906363487586,-0.04766310461168114,0.07845596623707221,-0.015563281448578159,0.001908485535576894,0.006168813618978157,0.012114964510241355,-0.1372861553492848,0.029418195880601645,-0.015291867707299412,-0.12725930646230627,-0.000992543125224338,-0.03214246774960165,0.09117275693063306,0.04354303263168769,-0.017954539282127063,-0.16062841560454894,0.24223136619091085,0.12525904271382748,-0.4615558182684596,-0.5659353472355431,0.13517392761467295,-0.15519983235947005,0.042389405263321425,-0.008967281242964639,-0.21059131478130208,0.12385404240049644,0.022456748363120352,-0.22173975594814133,0.1761942778188304,-0.12145810095630923,-0.14700967008568544,-0.17961759145731693,0.27144189717773504,-0.16361446780955657,0.016742560547766364,0.0013078135135681321,0.01905776301994945,0.06175834061328787,0.017210184791959196,-0.07411105441999567,0.01268440871896559,0.05960663727707184,-0.008951099580878502,-0.051281600153685436,0.002669968652736077,0.002795212597070496,-0.000660879137578162,0.01224286142433986,-0.09757597258198478,0.002040603984608095,0.03859359180728832,0.056029601502541354,-0.024669281421208916,-0.0072899820649173375,0.03275562085163397,0.00957775605714762,-0.03425025724420317,-0.002835471285434016,-0.03574445604941089,-0.05044689257259112,-0.01001676925628021,0.029553140193060115,0.0933474594723347,0.01901594017071546,0.09775032824360749,-0.041437430035251036,0.0803144231674313,-0.20008903707481857,0.1075967994588006
124.13294982910156,0.9005966186523438,-0.08522958534132034,0.05593054327530088,0.004872036608550789,-0.09852731204864329,0.31373192096539526,-0.04294531470411184,-0.6187988864916014,-0.23494218649837734,0.19110047442947398,-0.03576867052831857,-0.30631695822021976,1.0167939615697341,-0.25351533510787005,0.5226084688536661,-0.10519956247697683,-0.15389150756899533,0.0958098762014904,0.10049024277581707,0.035540124228269056,0.05754584430274057,-0.08623525281761917,-0.09501223181053593,-0.08951144962717221,-0.0226103619514933,0.13890340793958153,-0.08633801822456921,0.07941314240683135,-0.07940643741530394,-0.07948056348502522,0.1137762617580143,0.07759651603066017,0.031486594566673104,-0.11518907833639427,-0.005255320053485914,0.00492759557316509,0.0034897174509295123,0.11613641462749116,-0.011178595473010705,-0.10342355288543635,0.04349720670311452,-0.0976397034401762,-0.0407139300096829,0.05723484434187546,-0.061934291331063984,0.03750330841234588,-0.015608044114955038,0.1414228073331735,-0.12712061003675154,0.41833095671713827,0.18699842084518664,-0.2723159329943171,0.4210172832434698,0.04945229396430904,-0.029357579686638085,0.0014085610460675881,-0.0207620197458481,0.00877703862345821,0.13000487270206132,-0.15539904849116068,-0.05749911060567407,0.020468424659517308,-0.2354458441162665,0.14868057268084608,0.2989277385938715,0.0487650770053581,0.0071721424004738375,0.05522955685823523,0.10361350479162397,0.08731652961176507,-0.07762323203424322,-0.01159869508055239,0.05737631031854937,-0.008033231490932075,0.023399780769658624,-0.01476880008635739,0.015601946384971074,-0.017504574560095645,-0.038056732419110686,-0.013755160964464438,0.111726751917792,-0.022524178060848027,0.03963049312013511,0.008869973390801946,-0.143974392792562,0.05716012648380825,-0.05372099156814843,0.10049256684655407,0.01762930293681851,-0.03183399460902616,0.005134313780472487,0.06704506654690759,-0.0032741148717077787,0.031330711477928895,0.0214687248354702,0.03380122585992265,-0.25950399886114534,-0.1306075509141552,-0.02840142224083852,-0.12921923256189793,-0.07189944171422341
125.0335464477539,0.9406051635742188,0.014474006386974006,-0.10151055417426952,0.15729817794904186,0.3865769018992815,0.5481732334038301,0.23460393010309966,-0.20315100615354503,-0.2681182987137794,0.14487141755087252,0.03159154349538597,-0.21367491116498544,0.5788034310724618,0.13516005987694163,-0.04399077109573197,-0.3567165504091528,-0.11093796762988549,-0.08623365829007419,0.05162528031014381,0.1303559434382586,-0.03689474905790314,-0.0003799315879054145,-0.05163115733969839,0.016022086012041054,-0.06881683751521236,-0.012064130247896366,0.047318316938020556,0.005539581272688932,0.09438700996317972,-0.013565098142548651,-0.049163546517026036,0.06685565707418008,-0.005131410134573434,0.036848148085710644,0.005450267562060698,0.016141792065775765,-0.028304643144071828,0.040803509446503614,-0.30478182066107873,-0.13549173849186896,0.025769037080597686,0.17279106523755836,-0.010510725752177232,0.06882762790150061,-0.1872039954536429,0.07241559458791975,0.0480886994372696,0.24094655368098328,0.1641763671828128,0.060703041295449414,0.2653066817107753,-0.31835818105769825,-0.004228866856727187,0.043209244446188955,-0.008035220451455199,-0.21632961320371663,-0.06803982031521016,-0.13348786421728298,-0.0069538600018737625,0.08532519711333872,-0.1113427758618207,0.06689604761599958,-0.12972998621560242,0.13841813598776329,0.11617824862335493,0.0123644717640416,-0.030362081054306475,-0.028878361171320123,-0.0383200179297466,0.21188871938222892,-0.03691326284227939,0.012927272127727105,-0.01472797756193462,0.014820282418745556,-0.013776040092151429,0.01889421620880147,0.023926088490811175,-0.058544380535237014,-0.03306676720649657,0.009760323290243822,-0.0723584916403649,0.056287590259447365,-0.0353091985956042,-0.046987594694727686,-0.032023854376408076,-0.09016985116555465,-0.015875199732924977,0.05785816758898639,-0.1028856663848593,-0.08095741973848307,-0.02996567298783865,0.027412290858687148,-0.022455903967267845,0.019514095709280768,0.06136440616409541,0.062069096710769364,-0.19092556455822204,-0.017564600878927,0.2228821063359901,-0.12926185225936923,0.18471291213074
125.97415161132812,0.9505996704101562,0.2770186899043418,-0.08242010719278484,0.0007551384832628419,0.11930797430202991,0.0029891930108691123,-0.26370469502664723,-0.09045944936629183,0.04638033706919143,0.10862130073928204,0.43760620304816195,0.17025437994165565,-0.18447570255796134,0.3482872874514916,0.3813893941168579,0.13995273142849876,0.1433122696193435,0.11188492191297758,0.03557828146961825,-0.09559719261783708,0.11968152121460014,0.022253684318307567,-0.034318971895667856,0.019168325323085534,-0.06093918982189415,-0.16532704757405528,-0.07506917370877272,0.02949066688554504,-0.06102596949466654,-0.02013842685423037,-0.018511892344088954,-0.024661072674423492,-0.05331977792146475,-0.03125441028862619,0.04626298508147687,-0.006215214664648153,-0.09735844229975593,-0.01676317889371174,-0.03231150247343678,0.005331471171660474,0.035911043968697945,0.06454086137043434,-0.05934425485219504,-0.07579001742667847,-0.028796865718626823,-0.028207968837782028,-0.009059749010083112,-0.05812401287767325,-0.07057619677737753,-0.07185643092433655,0.04386306926235516,0.05396892740756649,-0.10318043693408596,-0.1749968386618972,-0.13763919958615575,0.06565930889148394,-0.0970740239123942,0.019413874253947788,0.015954824590445275,0.0036867720239631423,0.07506086612030302,0.021107399709778867,-0.12401584277381307,0.08843144828211763,-0.09139975999063181,-0.0596877880751686,-0.0931301654633167,0.016841531260830364,-0.04682731593956911,0.0033992463698159403,0.00035080990536454917,0.014543379997509973,-0.09232660726113237,0.017763992877766612,0.0710079665504734,-0.023782026576260145,-0.023142029567153014,-0.013719237548742252,0.059174024970576264,0.004810289224194103,0.045028077655720984,0.09232711988930727,0.021422027685073175,0.049449241865358956,-0.1458104207466831,-0.05960032666132499,-0.051909360814644465,0.006894593923579112,-0.007174706023057684,-0.08616780856995336,-0.042101080680352586,0.13734931287911115,0.1834849975852499,0.09733798039282168,-0.07400240044056534,0.10698675798456761,-0.046322651678860856,0.21060813084616434,0.024072133161190782,0.12548186459597396,0.1992714710688563
130.58705139160156,0.89019775390625,0.06458194877604848,0.051499798193239174,-0.06466216381211698,-0.05006326606718947,0.080708754300819,-0.2182119057889452,-0.7396962122345198,-0.30079356972510657,0.05746584108371346,0.1423900759453498,-0.5236214495250151,0.09232873446459883,-0.33618987051378024,-0.1254437514740022,-0.15171618477349744,-0.05447148012207057,0.09551027733574237,0.033989946654637344,0.0015371263491225154,0.04961437156953498,0.03905493780914413,0.0392741673178298,0.02241194222117805,-0.04291308799179589,-0.03269218626125883,-0.045255707721945565,0.07979494148131036,0.14596591283957977,-0.012398797801219308,0.009879606679714381,0.04134350840282141,-0.0010167099531033993,0.0947729463719875,-0.09272623890082221,-0.1780247600407257,0.07742478621740118,-0.0317005741052399,-0.05424243593590719,-0.002095801050350554,0.07499604789982534,0.034480164997553575,0.020906866182489308,0.06640000212355636,-0.038328910062159,-0.11993394140557345,-0.10551462796646359,-0.0180794800152069,-0.050713985152223674,0.10894480469527495,-0.19232190090655676,0.023361439789925574,0.10380843090463655,0.07898678992726026,-0.0419161296164654,-0.05635467116303214,-0.03751586305769454,-0.04028968705844781,0.031113493224986813,0.06775826361202063,0.1235761633725253,-0.17070184259187088,0.38944721938509386,-0.22187916974083785,-0.19038372053658514,0.25288159279975475,-0.07949379226394632,0.031185616432297322,0.14814130714612167,-0.18815346125192883,0.2400778214555278,-0.07179425035025351,0.039251732254963805,0.07635220891670129,0.010231646060125645,0.015387963618532702,-0.10321894900834219,-0.04745005978308087,0.018774081530629788,-0.04718283706896773,0.014024957058813202,-0.07466596889634179,-0.019487049397471673,-0.06441748328326066,0.016279487432071228,-0.0474154179536546,-0.0905090437185702,-0.03514703500467935,0.0684103404564591,-0.007280225133716844,-0.023440646659783515,0.1056075843581756,-0.06456637735519911,0.10322827854051835,-0.030545654808280007,-0.12241276437322059,0.010044163996031346,-0.0779723515793376,0.07247598489843424,-0.017943364766525135,-0.04829758876406385
131.4772491455078,0.920501708984375,0.183619879929076,-0.04628815710813577,0.1827891428286363,0.4219615855676297,-0.2744928745777418,0.40792351151534356,0.1293813134682535,-0.06928127340447385,-0.4307339394279126,0.019937499848612168,-0.04331505776478851,-0.45823156604687376,0.009310947016629507,-0.06072887334087076,-0.015897290587383636,-0.09852796215496563,0.07674682447157097,-0.08343750359755868,0.008221413835446579,0.0706828785306111,0.015282725571817,-0.08007867687273293,0.020683573847791705,0.05049050186803145,0.07388409494025248,0.021578415217780793,-0.042019628128603256,-0.05248135494158923,-0.06395491648342806,-0.013636782946508757,0.008247722785442887,0.08190843960152024,-0.07173049125367972,-0.0030135542916139876,-0.04380100140681234,-0.020949710843495777,-0.16409966027550957,-0.016266029305900633,0.12335603176668493,-0.003969645699951712,-0.013123986426306175,0.040840182865523,-0.005296976733928732,-0.022245848551928574,0.004201917931333017,0.17911285260415802,-0.1918278193615631,0.3336955711899597,0.6012440484796739,-0.21211682293766068,0.3700464354180152,0.20007263620377114,0.15569179785640247,-0.0030161511014576608,0.10662192854007874,0.01762042628738903,-0.09955187963580499,-0.042402361343951436,-0.08176445766053754,0.13739497800581346,0.17914741555751706,-0.17232190210154869,-0.17413358797599027,0.225281853414968,-0.055415663891458494,0.04562304546015968,-0.014158039501259894,-0.0377566822330867,0.014389726189761112,-0.028773025901954838,0.024053326023395414,0.04884348723139124,0.0686742040578286,-0.008978421484111144,-0.0030445768028460655,0.043333231422009476,-0.02108439402605095,-0.1265723776449634,0.0213221145881346,-0.011311795493888215,-0.015296726547893224,0.024715031150625663,-0.035924138988918004,0.015620292186602418,0.07658652446696486,0.06423130819821146,-0.047878720338637534,0.037139786632053945,-0.11767527282267294,0.010232546145685348,0.036909058476711554,-0.023838213246469064,0.027605604781442757,-0.06664723052324845,0.08972954398799499,-0.035208233446307184,-0.13579298308999632,-0.2349511883771763,0.013685968893366669,0.17691241509452577
132.3977508544922,0.9405975341796875,0.15405408323548675,0.09264093965811679,-0.15298800950260952,-0.057931106731140866,-0.44761750738699285,-0.4516993216999655,0.3039786732591587,0.20550139274363144,-0.569264357881271,-0.16696969442338933,0.29208604948750727,0.13161078456219127,-0.10172037069802461,0.05071208409636839,-0.13459099852454598,0.12383244929221059,0.07990781703857201,-0.08099399000697208,-0.044136698194173866,-0.02258779355364432,-0.003363210300015365,0.04662743246172359,0.030891664752004912,0.028628847435082233,-0.020846632529530895,-0.009634377439033913,0.042523308072828774,-0.052768557225635185,0.035959579486442704,-0.05509321008505903,0.079440575998549,0.02481239261344502,0.057889311288571624,0.03601481510328872,0.044256703473793235,-0.00999177082655988,-0.03051718738525607,-0.0034137011928088677,0.21199168414997333,-0.1727911571856613,-0.0584979250244662,0.07599565701735117,-0.2249094127844426,-0.04735866428043884,0.02539443862685878,0.10979640793987916,0.011952951581888529,0.04805126748200213,-0.07817127256366753,-0.07736683698654934,0.24209329935823043,0.3385834064664349,-0.1258387641698614,0.0322989373423072,0.15713293301337886,0.004911597255616039,-0.11440811499827476,0.023524040228684276,-0.093883302582305,-0.24628935075322278,-0.054975424460889176,0.05375775671491953,-0.09238597087038684,0.16027591788240175,-0.062375714889200344,-0.052128119807661945,0.12084176482455758,-0.07838917098212078,0.11449083004837446,0.03841058789579646,-0.025414396482486612,-0.049159221724764876,-0.04444637944982143,0.03545957733168124,-0.04504363418037287,0.04411590441454922,0.0157192942204777,-0.05657317473646833,0.0013162799253437984,-0.04701005160863199,0.050777799526630064,0.006680423393691126,0.05805553557413276,-0.1119852472260272,0.010813646849370383,-0.07381665493409674,-0.03664952103916615,-0.07919046378262412,0.037563454689363826,0.034859840361773003,0.05184961756695215,-0.11830373095129681,0.19629723510019173,0.10459126468044175,0.05817359172243496,-0.2186912664474753,-0.0441371247524517,0.06330801224914867,-0.06008298321266243,-0.06456312008321832
