start,duration,0,1,2,3,4,5,6,7,8,9,10,11,12,13,14,15,16,17,18,19,20,21,22,23,24,25,26,27,28,29,30,31,32,33,34,35,36,37,38,39,40,41,42,43,44,45,46,47,48,49,50,51,52,53,54,55,56,57,58,59,60,61,62,63,64,65,66,67,68,69,70,71,72,73,74,75,76,77,78,79,80,81,82,83,84,85,86,87,88,89,90,91,92,93,94,95,96,97,98,99
22.96204948425293,0.9186000823974609,-0.03884300147454506,-0.0818992185924146,0.05515083690092867,-0.04346639866726839,0.06986343680957052,0.04022910186081946,-0.03160551047679223,-0.09245570683244864,-0.06474256213369031,-0.09020292608609962,0.031888620229511444,-0.14719734025851006,-0.04568869508486005,-0.045092267980986644,0.02342307621714968,-0.09893277438263501,0.030656478149058735,-0.02356795545640842,0.05301216284542544,0.0002511124717964625,-0.005896248375833345,0.09701919129839269,0.031380373809936836,-0.026273567220729894,0.006471047716946551,-0.00692055432308812,-0.006760481267959379,0.09408404277445771,-0.07977820720026527,-0.012404232374729623,0.03276190104383562,-0.010207317788426198,-0.009937826513080254,-0.03420248379666704,0.058744104940636595,0.01863968136855481,-0.06325838570009895,-0.017906507083789797,0.012392462659999083,0.02898981223797811,0.050090117283467676,0.05814223039097168,-0.045446451334581646,0.00729341989001378,0.021950560883286042,-0.00891857390144797,-0.019581726416244272,0.07006249411688692,-0.07513377381839978,0.03294624440121076,-0.029693863232030833,0.01034032693978211,0.04126733369746888,-0.004811833233970247,0.009088206677475112,0.018776731827608414,-0.00401419478572828,0.001922831571599026,-0.03957948267275765,-0.03716762443186286,-0.028087700511198656,0.023297606588142984,0.00977421441340786,-0.008201299585271094,0.053679209047162176,0.02294931603732892,-0.03503814032978408,-0.03972198335647975,0.01352603885034344,0.00678923591227234,-0.002484241756477438,-0.013938729868018621,-0.11121909783209193,0.04849239218782749,0.03695184790262223,-0.009739654318640262,0.0047201247241590565,0.012316995069818459,-0.000834315383949014,0.03018238379155492,0.006407852645047107,0.14578656898465583,0.037430165307521385,-0.22195112033255093,-0.003928944244109452,-0.09503272796179359,0.2575751143591324,0.11290467876557174,0.40504014456133713,-0.17082757544754734,0.10297859382754665,-0.9357522680481566,-0.09880050378522856,0.21896937416749795,0.011899253985042949,0.12927443319867624,-0.6252182083344353,0.584464583197991,-0.20114498764459746,-0.4243948063757652
23.88064956665039,0.8990001678466797,-0.42422388725763543,0.15827184985160375,-0.0582627001773148,0.12069041002190906,0.012617212589544624,-0.10649222126261937,0.1545534128523794,0.07006324846761694,-0.16156144936010755,0.020036867645024256,0.1537669914591785,-0.04767282763745098,0.0704497059718113,-0.016637060105996804,0.13603276289921704,-0.017148085679616315,-0.010791151884819068,0.009688346152434473,-0.01489076408852923,0.01804321361652534,-0.0715680248064602,-0.018871386858109233,-0.07766676866415186,-0.029855268241100612,0.040541564655139355,-0.01814520717598392,-0.03613911641624889,-0.0768965770445818,0.0391457582945981,-0.01218454890398345,0.02172194034879224,-0.001014799419190941,0.09068266143842599,0.030651035377444073,0.017678460663907037,-0.09687329640957547,-0.11848617234724412,-0.0864642871638288,0.06436095027839595,0.02880104182980071,0.019957476911113218,0.054515379518683335,0.007291945278858191,0.011192354691209983,0.04124284328863834,-0.11624428073252682,-0.08375377986237326,0.011872192840211435,0.0026210571258185895,-0.087535102982917,0.07169857082900255,0.0022857995756150064,0.004291656186407742,-0.024908528065507016,0.024388206420477405,0.07772689261311985,0.0578590280443564,0.021742163092882565,0.03508188286968983,-0.0007918050019339362,-0.013740041752104748,0.05969290383907116,0.010335553024281796,-0.07574017273137093,-0.05894737703091498,-0.009818327290121043,-0.11859225662632195,0.040188115384525804,-0.09655653773766264,0.009423573641001121,-0.014857372482694135,-0.04475731804829123,-0.02148439828403214,-0.062198656540391695,0.08415789722094814,-0.007499373355179248,-0.0016871555499159542,0.0009671308883426031,-0.0009150727348112748,0.08870082997352975,-0.008124128456800144,-0.033390996169983006,0.07743606517923601,-0.13705451882594866,0.350068615411378,-0.15066080714420987,0.018085164518744222,-0.47310034273973356,-0.5833094103545958,0.030221061784335146,0.1844511072235676,-0.8753648114910075,-1.1525567121069937,0.43014257648250637,-1.111347547055361,0.953999509022269,-0.7331481962112373,0.20057134777524463,-0.09195421886296953,0.09669259509223105
24.77964973449707,0.9491004943847656,0.06973540500042896,-0.09561135376949703,-0.07466002995693818,0.1122713806762793,-0.012179230892473575,-0.017121180948848277,-0.13003805997069845,-0.0750607864922582,-0.035980738209487495,-0.03209376833986433,-0.351703232943836,0.08019467504296689,0.02652538263885701,0.11916783867580151,-0.03309002882443559,0.015369346276341216,0.027725012672722413,-0.03323124604303694,-0.01274733920003692,0.019430864646220465,-0.06434736754081609,0.037517079836600596,0.003913338857866438,-0.002920620559844905,0.033487729564653436,0.03547443032851828,-0.008468648814231136,-0.029355318264507668,-0.027823630001024724,0.03163422876335852,-0.070348148194988,0.05026607538954948,0.08330711072478506,-0.01840379619256593,0.07756170384753114,-0.04546381621751916,0.005456302687271045,0.07606775619457255,-0.08570888397234921,-0.1297109251243663,0.06863625224056072,-0.009227488877557338,-0.02840136092932256,-0.019108312684639035,-0.01719679241301609,-0.03517301530946549,0.03350495744593855,0.04962691285751662,0.007397430647056676,-0.12304270421273272,0.002670707831430161,-0.009021804789003727,0.005070875550724671,-0.026468272280896897,0.08397876685626214,0.028950648136302968,0.10825973373903515,0.04699215469916937,-0.03213320053963434,0.07077036240646611,0.03917986117784334,-0.04032057971358039,0.06742382662174626,-0.0112117261527974,-0.011940775265250472,0.01639699058766147,0.02211035972882918,0.03405192028568389,-0.00465282407552236,0.05219649306307622,0.1011537804723258,-0.015099932171714004,-0.05927292971955958,-0.08046617803555228,0.03188651831719816,-0.01166003979794734,-0.0013203880395391762,-0.01660693247471491,0.02291992855684025,0.027978406194002797,-0.0825766817804548,-0.09105258792759148,0.09519584971807447,-0.12370029710391824,-0.046492608908179855,-0.02732606451947109,0.0635875086826766,-0.24597547338497724,0.021539330851400168,-0.73901716336836,-0.1578447570804544,-0.9246668586970838,-0.545931978187073,0.28701301834548765,0.6160531346530544,-1.2461224990769662,-0.9159139133597809,0.24167894092743836,0.11132961227961882,-0.10523201284492932
25.728750228881836,2.257699966430664,-0.12884763161557541,0.07389142124133545,-0.05429886553308572,0.02520791314933774,0.02133690771940646,-0.02483917589764842,-0.10279101490538546,0.09087598951972922,-0.19258739469378974,-0.13135885146290502,0.06514703092837774,0.17641317955484548,0.06701358685797888,-0.024548186757900315,0.05075598370288878,-0.06327071977964879,-0.017705695214956255,0.04072824639617275,-0.002674101638891628,0.010990452651128284,-0.06448632900086446,0.003035718828355314,0.019316716045499338,0.044915661068380124,-0.02600296176745935,0.018706294846183413,-0.004823660330129792,0.03170451636264156,-0.025950236464220715,-0.0003418031237856947,0.03801441217818378,0.04841894912695593,0.034823318396476045,-0.06706556067709651,0.029554614134865306,-0.140029632557303,-0.05331249602153387,0.0028050682585096585,0.04215045150009318,-0.005185685910726737,0.013298726392741697,-0.0031341953870435467,-0.056750127676088724,-0.005199726385733598,0.01736823309828701,-0.008469541781895507,0.05298486149937165,0.01742950901707267,-0.10736570904434352,0.011822918554150207,-0.008283957744198812,-0.07840655266360239,-0.004851217442419262,0.029258800142428258,0.13438338945379041,0.035778670775858765,0.029351083936876993,-0.029004992620984,-0.1057869578389544,-0.07171906182078837,-0.05442220176028248,0.030487161500459166,-0.017645711182878707,0.01530578205598661,-0.02903555215176054,-0.007652927047759661,0.07526495152880125,-0.18229812372733878,-0.03651787377760699,-0.06352066739102144,0.03474474133187364,-0.008863102983005876,-0.04722724383129351,0.00920579999251964,0.010761248760767086,-0.005416390793446545,0.04140558179304891,0.07403665064636519,-0.04853003363201138,-0.020725531434940284,-0.012235657885105418,-0.010675019926027943,0.06157418222367869,-0.13678025873320812,-0.00981187060975415,0.14956186860264487,0.041892112707198066,0.04017547821849511,-0.19093785894612225,-0.1797026524943394,0.18954192493309058,-0.25071318588477604,0.12519192569186952,0.1576574765531387,0.7662770944983829,-0.411419208570423,-0.23501974353491473,-0.5162518897487571,-0.11071571450529283,0.2372913226813766
29.933950424194336,0.9391002655029297,0.4736208551613158,-0.10536963828992989,0.01146267276794106,-0.03249995080271134,0.08590277884846237,-0.0858166354324604,-0.0318715127418134,-0.04771118745479623,0.020088141248453394,0.012820904145881438,-0.03296918435946784,-0.10915836788672438,-0.0667867719451149,0.021524971870766452,-0.02047249672409513,5.529916425653456e-06,-0.029480333123189886,0.014017697220291054,0.022734566263633765,0.006804671557503923,0.031777212165561265,-0.0038008305367506186,-0.13857635443150296,-0.06456407209213967,-0.03495410431867106,0.029206316048133684,0.002815995828671872,0.013899512489237355,0.003629296465387691,-0.04728160996589792,0.008432936989136334,0.06552765271863592,-0.0012469735952555902,0.00037991818134785094,0.0008840788127097347,-0.055536574544152964,-0.008822111423589477,-0.010684464927398968,0.0887796285355734,0.0033582004521552702,0.03788175800730907,0.03470194558168976,-0.09440351288614722,-0.07346663834463578,0.01572970350630137,-0.09313787457998711,0.015729078491207,-0.006013211744681998,-0.04454430205461578,0.026622674843055083,-0.004066279559368474,0.006220131184854415,-0.0031937774956606923,0.005745435856221082,0.0016353555587767794,0.008091541977999913,-0.060913779979944904,0.02679540141183754,0.013050163461203135,-0.012590246610217562,0.04544144641210637,-0.057590716402854625,-0.046451843681601206,-0.01235769536986388,-0.015961150727899557,0.03760360290822919,-0.10245127794074507,0.03271211049488599,0.05326030199080427,0.014831357144153998,-0.011147364255434944,0.002778774051887057,-0.03996808219893776,-0.026221122467628453,-0.019772427404739907,0.014918852979432198,-0.11920924811329701,0.02503689390293868,0.059617595379380606,0.03541837733840447,-0.00550733599053858,0.027770351111305807,-0.13283813611882017,-0.11496189711196556,-0.0484781736978454,-0.3880573288257452,0.18020746432421858,-0.16060864291590543,0.7093938624530844,0.0466452712853872,0.3982828916396024,0.09554423621204514,-0.16726441134905906,1.3527225531993816,0.681921597271639,-0.6958587837644821,0.6086781955736288,0.26353943191684975,0.04931544743290555,0.04211092216090675
30.873050689697266,0.9386997222900391,-0.1030493279652966,-0.005542048601238039,0.10491687309184346,-0.08929491335499695,0.21861351586396982,-0.1382720994356376,0.045662128357286697,0.03326043927526634,0.10840324771819279,0.07866305072975416,-0.06643511019420094,-0.04443646941247696,0.07026940538559417,0.008286851029599961,-0.009806684864626054,-0.0188004602187264,-0.027999117453201487,-0.12030951206107482,0.022923685857696087,-0.012535102824611778,0.045783589324660895,0.009378623441428311,-0.021006888677306483,-0.04843557193855212,-0.029871617963164912,-0.0052168406675075826,0.032624502603747024,-0.007686988565747364,0.008951889570558128,-0.03453659199242165,0.02312225883493057,0.0027047258788773657,-0.07202372461101514,-0.003271210053567259,0.09191372474069248,-0.010373471298313192,0.016936345064349767,0.040190443195154295,0.04898214397957707,-0.0035511125546839064,-0.004365736351744223,0.03783438136873377,0.011756835074334778,-0.13542594166940156,-0.0519050151497699,-0.06825299875447523,0.08558052959986058,0.0015428721810989564,0.040750592806441825,-0.02211319114083478,-0.011669025648863837,0.0155760394898558,0.021265846864571305,0.023420238657722466,0.003647763604243456,0.006211920716821574,0.0013209718587505036,5.105525934474413e-05,-0.0022383571726652964,0.007811590655218251,-0.0013068361884032015,-0.010612492995711601,-0.0616656698722369,0.034206544286991034,-0.07381635891470027,-0.03386733861039829,-0.004324128554287172,0.04717486262894956,-0.009826469239174226,-0.07963784778284821,-0.00869473725714272,0.03226279973531457,0.010162292884158862,0.023376213988631156,0.004496580675605974,-0.011202648338134266,0.01164391318307147,-0.008277801899586018,-0.002534021537736645,0.004468734962155799,0.002743119065651696,0.03610863908266139,0.05768824376980722,-0.056749941503905645,-0.0785654328028761,-0.04506532326184172,-0.17101936154257188,0.2586428176606967,0.5981571036007401,-0.059330132302640726,-0.9978073551111296,-1.6515536219255804,-0.9902088964616411,-0.8255948643974289,-1.4410958386019184,-0.5435528769102167,0.7092244092208217,0.14157408713346484,0.4415100611806765,0.18846072203401015
31.811750411987305,0.9491977691650391,0.046381827910496665,-0.12511239377151853,0.10016171973841105,0.04619673997965493,-0.012273201774223218,-0.09852433854095471,-0.014276809954670006,-0.1836235765538155,-0.10204496453841554,0.043158455577458545,0.12887088838308858,-0.02330875951033479,0.008740562181680053,0.10205039618737156,0.032735909832880834,-0.04002471898817646,0.07657605633453665,0.04364430449693541,-0.050260867602038656,-0.030380102405743365,0.0752226764776545,0.0063241078843946355,-0.017107516783856483,0.014664957683309249,0.18064515347541896,0.010233858653087721,-0.008457222208216911,-0.06588918679526819,-0.0003581884235057363,0.08337139190101933,0.035622773647497954,-0.017861997917203002,-0.009601625172076633,-0.0022712385010364004,0.006850605119682085,0.005153728848519381,-0.08087543346840989,0.02529311106467741,0.04774662717646999,-0.021678681157563152,0.08823259665182748,-0.0907511558240022,0.1266007708163806,0.07348965187976249,-0.06048732422616282,0.0020681957804725842,-0.08426785182861526,-0.05856774575645107,-0.008404386271138249,0.003646009545147044,0.009339714932693574,-0.06226625987973429,-0.026644290484097593,0.00507746687624655,-0.04551003829541176,-0.038941220794978255,0.029654326571074172,-0.05432110340787009,0.10583822039919007,-0.09454339561561687,-0.027701377360263842,0.0068211925186844906,0.04988492699828369,-0.012914091470978474,-0.0312105125265877,-0.0023406994435091395,0.031513429171783056,-0.00227621642173273,-0.003304358480032873,-0.051341308726021204,-0.01530937377374148,0.0750932966606297,0.07364478375072088,-0.02995572524355154,-0.06536497166770701,-0.021988018540920955,-0.05187311528793033,-0.00502951673109694,0.0038250102795557603,-0.005829143791065638,-0.027479605390106854,-0.030858161317015798,0.08224020702691062,-0.02310197324558102,0.23268103265604326,0.08395629653220474,0.10854710987202384,0.1324023145509524,-0.3658595465527465,0.8851466988439118,0.5278093064585898,-0.46917003480692254,0.5342773930356581,-0.8304165244668469,-0.0953290342652861,-0.9506412264389147,0.28820822331708135,-0.015334623034288097,0.19383581323293053,0.21812159099512063
32.760948181152344,2.1872024536132812,0.21623197628230753,-0.029744596617505788,-0.02709640715707978,0.023536942400247018,-0.07879126356846537,-0.006604548139816799,-0.03650632988754212,-0.14586141078560033,0.13845424743439275,0.0029131311003803007,-0.10470966286469098,0.013278251707608393,0.13096540387273684,-0.06873241931292483,-0.16724262050554708,0.008644063130092888,-0.09093167474523171,0.0706429885556189,0.06140496812015206,0.0043075117572109935,0.005780194702347904,0.0032095725391600226,-0.03100422483853001,-0.02351595929337642,-0.058357650018529404,0.029669991927443757,0.06939448842453994,0.052020508742418405,0.006842808650765866,0.07724018197580158,0.029009417680064185,0.04013625892620808,-0.06322088737622165,0.04243078760811657,0.03491095962617618,-0.04905132519310679,0.02841474906783041,0.00657485266878766,-0.021850831843384603,0.04579738935550086,-0.0001930528433999395,-0.03815829537529215,0.03150595883224717,0.006159381450328618,0.010836106397803972,0.050532885036724345,0.04354845314497112,0.015398062312614778,-0.03895913692864838,0.018084313737706102,0.0012542629398734288,-0.009798034576593848,0.008664457270526699,-0.10442696532249895,0.09493984555994509,0.004531673275305555,-0.0006894961050764881,0.007143811891674048,0.004805196733879289,-0.018461333283064405,-0.02283910441358816,0.01844492695853235,0.05395338110930197,0.013184228808377168,0.02286182617159991,-0.04893591867472544,-0.012310480015583299,0.04073571101034951,0.025440456152641934,-0.010742010577505068,0.003994972914972139,0.01745749753834853,-0.14774641238424507,0.05632534378367952,0.11049957355665019,-0.005294728983562707,-0.00020981809105972933,-0.023967617911277023,0.011171906120545723,0.07168031102717684,0.0255781872107093,0.015594356516861262,0.012886845331924104,0.060360208239348054,0.19810352376142615,-0.16751952726358926,0.23660937493817225,-0.0632147023961409,-0.03550612200401346,0.21894559729339536,-0.15768958203917577,0.3102518968822606,0.5428186969037878,-0.12083941003616398,-0.05476482631115263,-0.009028350579900694,0.07100278857408324,0.10706733327951898,-0.001960512478846022,-0.10210471355942602
36.846248626708984,0.9088020324707031,0.045137265088121326,0.0047911888933826864,-0.09100083266233494,0.1566056606263142,-0.025426306457002654,0.09112472258004964,-0.04453877781286207,0.11051230318763396,0.03159794221299808,0.09811473515041746,0.13808495155292802,-0.04929954670017356,0.1189282078934009,0.04840102325218912,-0.03645131624362387,0.07672511232624511,-0.04128417025021429,0.025365765344988602,0.014757004617642639,-0.013076167027688065,-0.06959122342369822,0.04064363769549306,0.02710454150023119,-0.10949507420127651,0.03605952189025424,-0.016207560618768383,0.05838912572134469,-0.035362305792100375,-0.006886304810078827,0.02202043394408452,0.048206047445924646,0.007941330157853744,0.06411128931234492,-0.011439953625703131,0.09189670839887133,0.017168130986090168,0.051349406948788645,0.018352417012491937,0.05013605097275889,0.03267217661231355,0.014564404622156218,-0.10067858181443971,0.002163963392644205,-0.02111482580214518,-0.06626161897189245,0.014246184179364001,0.046996269855153525,0.05171241727927573,-0.01932001445783303,-0.0016493803612992412,0.010410507931762483,0.0025601487499208194,0.0032506103503216585,0.10904993707653467,-0.013070455422460228,-0.008943507541294575,-0.020856430454302497,0.02438424209434664,-8.174506200525695e-05,-0.04103631275982486,-0.00012772236402309664,0.029336586771446273,-0.056521775367872604,0.012214004964532378,0.00047085905404485595,0.07298298726729605,-0.003701189124032225,0.04261512218142445,-0.001561709432604913,-0.12016129123248617,0.04728778533133188,-0.05061640122732259,-0.046963996380275985,0.030176319823555873,0.060413206968197325,0.01756166676126617,-0.010853753257988085,-0.05438519512412447,0.0207207493924696,0.11048473006274563,-0.00825709762993751,0.007622148288386764,0.015150873357750186,-0.05660302075104453,-0.11544029656893161,-0.4152018973344367,0.08141230364915325,0.7652789246302207,0.21150743592205046,1.009174909138902,0.03997275220970896,0.7027939208795702,-0.9523164389473853,-1.2792793979424513,-1.0927541119796362,0.8192296472742983,-0.4073780744955208,-0.11685741724628716,-0.031195569321529643,0.04639255417920746
37.75505065917969,0.9292984008789062,0.015449195258616221,0.005339914507016513,-0.040655673282376015,-0.25988451518877154,0.01714048659968841,0.03183750561762345,0.08178414395565085,0.11006889265941545,0.10254453748099139,-0.06003243625821002,0.25815786015006115,-0.11296112023760134,-0.23527395515347937,0.12437628083543406,-0.025893390905579915,0.1302119302108594,-0.07251814314703706,0.041111041288407736,-0.0029181594867402558,-0.06856692145009277,0.02110332974126708,0.008785685711140807,-0.0401136287285664,0.014836038429295137,0.019819543868559206,-0.006124059381010928,-0.011818748449641082,0.10138840396624134,-0.01047817024396609,0.02286840153993385,-0.10413290429865182,0.0043612652239925186,-0.06462947333833426,-0.006864143642011301,0.10511271999563832,0.04817607431340892,-0.013371724338785064,0.03410097018379652,-0.0335291822636967,-0.005026147175426722,-0.05623631520686936,0.05271331948995946,0.02004575505429604,-0.011621200245021166,-0.1228592817819925,0.03464346976071798,0.004163827358780391,0.010111760816240814,-0.025158393017447087,-0.036314391607996405,0.010572469361636323,-0.01143907346627103,0.05488297021227098,0.05976712832247669,0.021730318329514123,0.037011514052965856,-0.04163143813820196,0.06117652371652117,-0.0023745953083002674,0.01569498570530951,0.06336703051182704,-0.02087424418085368,-0.011890729635132708,0.10362391484532506,-0.03367489658503894,0.005349659866909467,0.022605757829009837,-0.04815947260612384,-0.0050763392841609925,0.029776533559556034,-0.02971204820213115,0.06025872149502905,0.014966712721995633,-0.0256750270764186,-0.012176445155746118,-0.04249707993112164,0.04110666086450698,0.03006239259242908,0.0320894726356922,-0.050417121544767185,0.0027804475893875094,0.012744526085637357,-0.011897254532518022,0.031281979582973504,-0.06488818869976488,-0.3342003550354183,-0.22852395212513493,-0.14645960235166766,-0.039766556948156395,-0.44708315607165927,0.1579317789209191,1.0038341709162497,0.8602671008618006,0.044152356447376404,-0.11134242820921882,-0.9182980937488519,0.4658891820991656,0.8589818349898265,0.08530628723144817,-0.15314030102542275
38.684349060058594,0.95880126953125,-0.14721695263085047,0.07335659598903126,0.017723689367911792,0.021313399298212014,0.0600089199641288,-0.03241158874992062,-0.0723564648525774,0.0030356619463326588,0.13204358037157665,0.06041706613373551,-0.03834449935260946,-0.08520984494905681,-0.07532748733457578,0.12303564054325644,0.12350702833236896,-0.02123659047926528,-0.08788547171973515,-0.11314607654971441,-0.05045017340565408,0.06825835801528086,0.02769670943321905,0.04814350321212342,-0.061128624375602306,-0.0018249758657866676,0.04898732490869913,0.014555164465294111,-0.052804499905726256,0.028678356507467653,0.021889432449534917,-0.01574973429020085,0.0074661455895048134,0.02104713824954502,0.001795098522796783,-0.002047352932535364,-0.05335569443071567,-0.044059320801277814,0.013609042791102416,-0.06477481130718957,-0.17573337632461317,-0.011593523277719398,0.07712370505064707,-0.015574050808991519,-0.002475171463510221,-0.05201034189486634,0.03997806593803403,0.051628095373553014,0.08178696948803477,-0.009478056284457612,-0.00016883601743179766,0.06534768167351884,-0.03801793353656837,-0.04232453811811345,-0.036035626431258794,-0.0024887062552404636,0.02385910586476224,0.05307311855307191,-0.003371167531328221,-0.0010418910290956147,0.00821201815952956,-0.02128896270748231,-0.08310515028547452,-0.03717642076972261,0.12412876655132235,-0.038887898103030366,-0.0018494307293760136,-0.0200937985495155,-0.0005048625981776828,-0.05995786492334971,-0.07290319571746412,0.023182227416583243,-0.03170947544160895,-0.05457367979666136,-0.09558741684909226,-0.011467674609157185,0.03711576564356898,-0.04186311161990199,-0.00012627532978696978,-0.008351300707622253,-0.05724535094130782,0.01697661739810631,-0.01016993158583734,0.060038289359826386,0.03282340636040397,0.03928945942875657,-0.0006755077439127913,-0.31474157418031,-0.1100295795840234,-0.4679578153300055,0.4429463151563476,-0.4780075026381983,-0.9567919161131192,-0.13325868290903467,-1.2958497097980588,-0.12023940852971786,0.38359657071534153,-0.24206754402961714,-0.050339875412728455,-0.06127208342293135,-0.056650170993351213,-0.030111104613629064
39.643150329589844,2.097301483154297,-0.04386215990140638,0.023753754574563038,0.06267725570481339,-0.018217967523637874,-0.06754036905601367,-0.09691037871433578,-0.07897433484735965,0.03321848395660743,-0.013835133778070831,-0.12516968278868154,-0.1278793953096885,0.15371101220815162,-0.10515110981432958,-0.0939925496761419,0.10671647043620633,-0.012899463331030979,-0.018846637930338042,0.05208375400129269,-0.01001587478098763,0.003784263786549014,0.11241555494871472,-0.0022782807780634354,0.07488912572017803,0.06128783721187323,0.04785995331957738,-0.0006262335221942734,0.0013092545855273759,0.07001324054345055,0.003733074865534927,0.038989364364966424,-0.027456356911627382,0.04470382388540925,0.015560886372238321,-0.10846439537352993,0.08511385354360827,0.008580892175249766,-0.014670624862318541,-0.04013175515728821,-0.04785321289112626,0.0021595592319936033,0.005688608364600601,-0.0754631490820097,0.006421261976625223,-0.006024813268801608,-0.018225765683822007,0.05968327915867549,0.034326116135432634,-0.01951926845965047,-0.011184258357151686,0.01169309550375049,0.03775252758895559,0.0724821052404431,0.051039087587463144,-0.09846841656929674,0.01888253386265208,-0.012706119218745907,-0.016772282642353708,-0.0287478280340311,-0.031809221412674143,0.04597729834893366,-0.022428967371095728,0.022592385321217174,0.02709559486275916,0.03512224997038499,-0.009406753860806161,0.03865175582254865,0.04143069182085949,-0.012305629728409874,-0.025912059670145718,-0.050056914699313275,-0.044665500729629964,0.01312623867105004,-0.06134505342718951,-0.01275991640487175,0.08995024711840179,-0.0301464988658932,-0.042154505650396044,0.03028486047746773,-0.01737362416606888,-0.06995457826708716,-0.12501909421074592,0.12331371498863901,-0.39614290725461093,-0.8375830854903764,-0.010594395410555986,-0.47959815827078034,0.11473610925228825,0.595200727746834,-0.1430587694983315,-0.7298411054177184,-0.747042838621134,0.09773397197797246,0.46720261418061265,0.5372019840731836,0.4351426520515221,0.1059893541838669,0.057840383254937386,0.003032615840872798,-0.052884860846074744,-0.29912382277262933
43.618751525878906,0.8989982604980469,-0.012412559594727646,-0.13508297086282398,0.1473301247945365,-0.08056046134749945,0.06507208984361626,-0.02969347247705969,-0.04090744625136432,-0.058527708965159915,-0.012572428571251308,-0.04981730692443137,-0.10590122268925335,-0.03331309759528264,-0.05400144338813502,0.04696738493552505,0.019334145753536806,0.016905565549618806,-0.052675962684382335,-0.1743760220665125,-0.035216322457157,0.028587600374156794,-0.05748889862512696,-0.044647545569728046,-0.04021915622657278,-0.08937922591509005,0.1013117299160014,0.06803730474155945,-0.05475144865767404,-0.0009639786994204364,-0.015977791120288055,-0.010065881325217407,0.11560670719923492,-0.006615435925128057,-0.059548678910967594,-0.05662885886688445,0.020495579558155397,-0.12787416483537078,0.009985591701404908,0.045675010038747396,-0.03528944379649649,0.011865172423063536,0.030527220618484202,-0.006314416628746378,0.06056508683519925,-0.08573214673984529,0.009069319576764124,0.022027963667979863,0.0010961006999837888,-0.02982730898390816,-0.03734864271060891,-0.004037366798203635,0.043534080572680184,-0.051971114064406784,0.03372033168293637,0.006204799936288037,-0.010277874643271186,0.009478094165260412,-0.08660147028332978,0.010137693523614016,-0.005482436484434172,0.06967588952218022,-0.007868099302881421,0.016855975713536617,-0.01807933383253349,0.050817434822223374,0.03211481219997814,0.004367275637626417,-0.06466064458205892,0.05377212143437911,0.026304801343837846,-0.1175356365670379,-0.03325841752493179,0.05303220718329393,-0.053770963153675175,-0.06091556817560982,-0.037155719731994226,0.006737019841341238,0.005036232785776039,-0.019484244644206707,-0.02100880281312134,0.016114938231888244,0.07309224352865958,-0.017193588562778032,-0.0596211285252343,-0.113993778983705,-0.23148321739839098,0.14905705085798276,-0.13707583096168882,-0.5829484214835853,0.07846587669922966,0.4051180555621665,0.22242551140736483,0.44696897800371027,0.9728905450184414,0.2625977038536747,-0.8534524347902605,0.005008481118951469,0.2903072165429901,-0.0389844161504643,0.5228086891568934,-0.31889720138312894
44.51774978637695,0.9388999938964844,-0.27438240125708624,0.1459030612696022,-0.18611878113732966,-0.026891559367597948,-0.03238427103064411,0.05250886288290413,0.03825725087913777,-0.11206619944943251,-0.08406229399624997,0.06199485572847606,0.2383650141040872,-0.08087907684838251,0.0068306687117649575,0.0003782871255662861,-0.005301619675002938,-0.03377203168123277,0.031019907383718827,-0.02468844663691455,0.024018645926401225,-0.008854918723878266,-0.04714176419283301,0.016894808779956114,-0.008117651717248667,0.06698187945656056,-0.016640505243262948,0.011746655069675448,0.0539104806843413,0.09756811179355135,0.006463473703228873,-0.057886555501469615,0.006621374377068206,-0.012461471423244991,-0.02663284768216704,-0.07410740987586278,0.014234651498184958,-0.014914881943177447,0.056582999937983845,0.012882413619079682,0.05093346987898095,-0.031009759143118716,0.03567421176001297,-0.019101626236318878,0.05865604557677053,-0.007888590922715044,0.046661146104481216,0.06280097418790322,-0.056320412307178894,0.03588694803739355,0.08071976060510491,-0.02115087449392558,-0.016926342467541444,-0.04110482394729474,-0.07362655480484795,-0.0006246087764239724,0.022041576472989894,-0.022659796227097198,0.03834031951372019,-0.020433277716829505,0.062208968216698586,0.006254603816361793,0.08494643726720254,-0.03465044603988794,-0.051403131903323435,0.020976163676741898,0.00921009605764802,0.013031683155311781,-0.06389152769155976,-0.03977814494957234,-0.09383979705902035,0.0030765177019204688,0.050033932764616346,0.004577560240192612,0.00043560663000808547,-0.059837154077259196,0.0036719926726493475,-0.007931779688211614,-0.058880340075057935,0.013625174886764246,-0.03397686647486539,-0.05858394494080922,0.0032025967193643284,-0.04892431502139106,0.1298753385571245,0.14604361062498905,0.201860621559798,-0.30212972101314006,-0.5768749157444564,0.07986925415328175,-0.20753570032348156,-0.09101808670498879,-0.3746828317643881,0.4647049536562014,-0.3494324110292531,-0.09424992214271491,-0.422240265415481,-0.5276299015767032,0.6757472168287756,-0.24057780490375616,-0.1114596250156453,0.09626012209293022
45.45664978027344,0.97869873046875,0.07765975531491562,-0.043961204754223694,-0.015640085317435243,-0.05597287191198389,-0.04371151307483513,-0.05075183981836664,-0.026144175255485003,-0.035790245951621696,0.12671434763279277,0.039894429939948156,0.20209321537406766,0.20058114394180454,-0.06933924549016994,0.07156659233098467,-0.02821210938597464,0.010870646653225222,-0.0542652156969774,0.07037679368980186,0.04112004472571208,-0.04720881439863133,-0.041216232629481646,0.004496439912573373,0.000980073225436075,-0.07126473174264474,0.0408513577804584,-0.00392711233888903,-0.018318854152584677,-0.00976012391590607,0.03783335360975196,0.00550344592079792,-0.015657022264152234,0.0249810397410167,0.004809488285384408,0.008064732025801349,-0.00483412029565771,-0.013531591318727245,-0.020263432953809495,-0.005232978752967729,0.012445285364173365,-0.008182173063395436,0.00396343538090364,-0.06603359882116727,0.041118481050599495,-0.02720718139249523,0.010095119271147908,0.004004767041576907,0.05650675890323913,-0.00753381954421957,-0.04815538560041722,-0.031735517297764436,-0.0015652764577185937,0.02885698124785978,-0.01629190286262832,-0.008713373913549944,-0.011403514378280329,-0.009577928695154822,0.0008247521969536363,-0.002759641307909222,0.0075709253232179325,-0.03619752036826651,0.012097108738534248,0.009916446898471945,-0.03560817600775719,-0.03865273051193906,0.017171986455438937,-0.000705621830254789,0.03558685903287642,-0.04274777892411584,0.0412670917606554,0.07576039344447723,0.038092397714021245,-0.003711832069740911,-0.024300851247901614,0.02014287562885843,0.001578070410506698,-0.10974862823182752,-0.04594036965652579,0.1012895191463336,0.02177064992965894,0.03001949801071347,0.015956654751524798,-0.0019121116045692716,0.017134966839378214,-0.006641295821125721,-0.09929470076227098,-0.34288164255773707,0.09055527598006538,-0.21294588711190207,0.31072933895169824,4.5262150893073116e-05,0.09992077940979346,0.8165668062420735,-0.6670253191293978,-1.0077117593236795,-0.4414147530325626,0.06945451833962235,0.22716753467034678,0.16587316669620306,-0.2443062361131603,0.19551892233929177
46.43534851074219,2.2375030517578125,0.19120289542558763,0.038209454991993005,-0.07465146608247393,0.12496408126002903,0.02102036792211699,-0.01574470395916086,-0.004288462294004728,0.02167292182197484,-0.0874520379400464,0.06608403670882645,0.09164372371585898,0.04104699928161525,-0.02980587917814878,0.2675751533305069,0.004068769026139114,-0.1445572570463759,0.03691596221668052,-0.07362673146129246,-0.1153505994749798,-0.04113145921026522,0.03264463294297114,0.0028009650346607073,-0.05975980395530557,0.1597116053427622,0.08082231899377926,0.029873888568724496,-0.004827742572308035,0.0032068542955127673,-0.022874321476362102,0.03075875474162568,0.019011254639485387,0.04635095531163438,-0.08388672204494968,0.014106284391522134,0.006710817768378101,0.00760275322121488,-0.01805279502726531,-0.026935374327450218,0.005164989309178602,0.006222311432922321,-0.023397067853893894,0.029584479467683368,-0.08973090178957388,0.0737333281059636,-0.042768688703332114,0.03483706088448882,0.018316685205934748,-0.032291965749346355,0.036571125097879256,-0.026800039824889658,0.024137639547536845,-0.0911112322546602,0.019861047006449774,0.012524340328204766,-0.08091115789478273,0.0010247848923614477,0.07457339117183345,0.1081450140607359,0.11463597490103153,0.0020054592552789198,0.06650618437292731,0.03823331232383352,0.05706355838822131,-0.03576109838338806,0.025955359422444438,0.035495054015563236,0.022723467623027425,0.009775619113808696,0.02014561893738982,0.015524253637595943,0.004303832332187478,-0.03408910666483993,-0.014385663659594592,0.013519569848147197,-0.07281976508476232,-0.058143471246253485,0.05612170160252761,-0.04911418934206313,0.07459046761307456,0.01804534915848216,-0.040773268808832655,-0.03512049476732689,-0.05395624252109146,0.0011677157682470707,0.032215603312201385,0.04930437558361194,0.03514434822996963,-0.14345999203969242,-0.031319318416297294,-0.16413793104726537,-0.6917894390634587,-0.4942448935693887,0.03239695592540726,0.28168745944482376,0.30126634149003223,-0.21754247471527052,0.16519065705121788,-0.06325295027612562,-0.025146165116003635,-0.045649689477145705
50.59095001220703,0.9590988159179688,0.004505994502185057,-0.07433518333625919,0.14343091742900405,-0.1186438711827443,0.09799044956018005,-0.040323815430834985,0.10058782399167655,-0.021991625853794453,0.06778823091074451,-0.12397996386664384,-0.06941189683421709,0.006345097491914934,-0.045345058430669695,0.16606993045351087,-0.005007599785850989,0.019295619614905665,-0.055280372655924066,0.01690057594877308,-0.04887113157936772,-0.07484376965289465,0.07164435209435559,-0.08578943335494887,-0.001216115405150914,0.03527131342002647,-0.10781456524212464,0.13801706140033815,-0.012471244815535795,-0.021816700587032414,-0.050631106829591994,0.006245907276680259,0.07590630295298709,0.016389108404574474,0.024599002388485544,-0.07560530694072536,-0.026833312018428944,0.022764904042920107,-0.011614045843304494,0.01088925884472182,0.011877381509681937,-0.012316449701683366,0.04742514076667424,0.05502535404086723,0.04121322648687348,0.10013955680799358,0.021330106539509616,0.02720243452403656,0.0749434030344156,0.031592743651033706,-0.06446575852423092,0.01591243112028102,-0.0038946404206123956,-0.0020901811878702515,-9.159847141181543e-06,0.0018631926784340204,-0.011760676853861484,-0.026335504722731017,0.06971443929197968,-0.018694369099336413,-0.039022944013407265,0.021333245056584217,0.07766300058790536,-0.03185406505765454,0.02368641764198888,-0.08453335855420986,0.08779446336818308,0.02208392745457558,0.06035852174938687,0.01342734680892687,0.010356310506604478,0.010966836557014399,0.025790509414141738,0.006468720006681722,-0.014302829527906446,0.06944812500594048,0.062095173809414275,0.07265344467600646,-0.10732151847386857,0.0019757712371825976,-0.020533333753801234,0.012786414897765148,0.013540019815115385,-0.04608854191764222,0.03749953935568627,-0.025223293127080902,-0.29693932525818806,-0.27196291116481364,-0.026941456730629768,0.4693053166505334,-0.08488623178913494,-0.3460665235457873,0.04650769141121654,0.16778037922077754,0.37789943250568464,-0.1262349061754127,-0.09662257816597379,-0.3912871071517055,-0.16879239178775035,-0.907355075231588,-0.35108778321655737,0.004146101323047491
51.550048828125,0.9687995910644531,0.10898645579190552,0.16503395614631294,-0.05912046387623683,-0.04608066520557331,-0.09002773405834429,0.04614582757092591,0.051636519209829965,0.253380983220657,-0.050478322849698234,0.018250104515318208,0.09618637939552105,0.056249382721149564,-0.1136074741948656,-0.18851181345236745,0.0539645682139341,-0.10664684608492986,-0.12084097052338573,0.010755471176548029,-0.04287338061208673,-0.0334947222185457,-0.027351855793060747,0.00764818558275095,-0.009669470683665037,0.03785812899385556,0.02348201912734156,-0.09280056544292593,0.02701781938306732,-0.005815542146684829,-0.022860959043791422,0.0232258020873575,-0.08485995989095413,-0.046981882277931555,0.021117610875637766,-0.022041540145602792,0.1299680955874751,-0.1772329000952498,-0.020793870290986477,-0.007617758815510775,-0.037484388977133486,-0.03311151682338792,0.033606340618182295,0.07018913810023572,-0.0074934380765557355,0.02287027205629143,-0.06273282688161559,0.01117474371760436,-0.0077431193545207935,0.001921032058680952,-0.007179682743689036,-0.08800875995837666,-0.01704541663065766,-0.09028732013202954,-0.024752075164227637,0.011747769158220126,0.024915991215363593,0.020373802970818717,-0.017852167151074273,-0.02376241861245737,0.07740779573460138,-0.018278829794417868,0.010155188220448834,-0.08813918810019948,-0.07090129776977391,0.040029147758033706,0.011172324460689068,-0.051087405143029736,-0.0031282978868220346,0.056997225900948544,0.008393857458615353,-0.06106813537655961,0.015408267722372505,0.006922331783260221,0.050579865787962044,0.03145448463773459,0.03843782584222633,0.027794177290117447,0.012859545722816855,0.0022358900557092713,-0.007851429017375334,-0.013272240685706975,0.03767391103778356,-0.06629299545950328,-0.059855760265064284,-0.19373546021657156,-0.10100298474069212,0.159221888267348,0.07046199809470824,-0.20539952755744567,0.07951511517331364,0.01968722785102761,-0.6382391204809774,-0.3575275732819094,-0.043411995680775986,0.1602552300820918,-0.9844114072782428,-1.973104544817169,0.11325532344378057,-0.3050870794678169,0.205187359738584,0.2248949617757759
52.51884841918945,0.9985008239746094,0.35541526255293504,0.08992433264385434,-0.08022137005799992,-0.13236807856649388,-0.09540260468971423,0.1584228462131153,-0.020514619647490462,0.022244067143051674,0.09572852798853904,-0.005828743605598815,0.06937737194588203,0.05611006321129926,0.0005249184612965054,0.00027466189614074044,-0.19718631563106948,-0.07809269634605932,0.06549317063545139,-0.030100434320786257,-0.0014535591750215043,-0.02204125762926864,-0.04325496046572793,0.00552902316658684,0.01809240523320888,0.03300254275686293,-0.022599070143769658,-0.04537488343988908,0.059260054458147846,-0.054921687102038486,-0.09053455965030095,0.003248553086443719,0.004556717757138579,-0.0031573957534054885,0.043451227444719964,-0.00011503519948087267,0.032903924781847366,0.017156374210688163,-0.00751234005794964,0.08585757593043271,-0.034429125019377886,0.01612228527430161,-0.03704095308150547,0.062262795322577356,0.11774370771051386,-0.06497026763314172,-0.0427348361599485,-0.02101876476627662,-0.004140999097071211,-0.06668723795168191,0.0159738633686613,-0.05133677046130867,0.018337571530391734,0.06764026503026285,0.062203384078814976,-0.04284135961866958,0.10289840934069894,-0.002296736983700602,0.002322331596078744,-0.0032133120835088867,0.05767618765085357,-0.014197733093470803,0.019987714256033733,0.0890966854678243,-0.023833544423242443,0.012539930975019927,0.027265921548584197,0.04345244351121633,0.043765912086075894,-0.010392576360525575,0.07320274482369873,0.07292315748160808,-0.054199606328726634,0.046624151274390936,-0.05121379144005056,0.02961936111171523,0.0025906558453488637,-0.11199195959416575,-0.05260199186063985,0.0018534881228486906,-0.06657366196619298,0.010531348050556869,-0.026906175538872062,0.07423553486666572,-0.18345516537971868,0.3555681424398469,0.1563726263977733,-0.18946724980687163,0.1999100459969506,-0.05885795650551832,0.1451230561437843,0.17545261319252847,0.3778919378278511,0.37307426758428525,1.0041910052611687,1.2119793718807435,0.06171590679419359,-0.14145641704478307,0.12508155643243762,0.5647029227094076,-0.01610996726800973,-0.3562817738760559
53.51734924316406,2.31719970703125,-0.35602864992173355,0.08504637050283895,-0.11947320430016688,-0.14675266140842685,0.17616160600194525,-0.019263032610279264,0.00614144151539156,0.08205627007818499,0.08114992527199914,-0.017004008518639258,-0.0633580428428337,-0.04672728018041752,0.07135846658793342,-0.07888574313276735,-0.006783328561155414,-0.04234900453861621,-0.0314058132283587,-0.0012704807328285522,0.040839779636517325,0.031047091283060296,-0.0020293751010712403,0.00844577637731498,-0.02163519756223249,-0.027952841108710907,0.011391465871527118,0.04142409461373308,0.044046732066122876,-0.015522688462844552,-0.014297206883440067,-0.016971339827461164,0.03168940901483794,-0.009221397590111943,-0.0004418821296626106,0.000359093183351691,-0.0038814707234336803,-0.014283669922176138,-0.035988966659138366,-0.013805135597998227,-0.00840408080181649,-0.020874674736914105,-0.02519054358324893,-0.018344988081500903,-0.009815781205423035,-0.007722967295477667,0.02223296067782997,-0.06015681423370206,0.005793376649582802,-0.07462458772631578,-0.00468000896403832,0.019142433082692287,0.10647244844837864,0.003255176462284349,0.006679498056771632,0.06725008003456923,-0.007769338655790993,-0.0251749072584417,0.06998815187685122,0.08667268830724711,-0.040062771117179,0.03545984041164664,0.11230527722347225,0.017135966592068088,-0.06355564845627876,0.047311030365970695,-0.0031941172546108045,0.04106135459992612,-0.030436036304218934,0.06901041021618241,0.04223793186182129,0.025232569726941302,0.010798834783883285,0.015461568502069433,0.02625126192386311,-0.012873416709524741,-0.07228053789175692,-0.08817008534605002,-0.2053290532803062,0.12910044612408791,0.026724371495594902,0.02089975032371573,0.0511321160175974,0.05762771252621104,0.11783724603859792,0.04887754002796616,-0.15147516820562892,0.5403952554050326,-0.04718237201927703,-0.05976359068467549,-0.11333249193810849,-0.2943833641541783,0.8529487769050408,0.40068953802870017,0.1704157935963401,-0.12420073859721806,-0.6495938043889383,0.27421974621825784,-0.23807219146481504,-0.2902399376661089,0.0912458812274849,0.12110958586542116
57.79225158691406,0.9693984985351562,-0.14875799819546137,-0.03319914201704796,-0.018207612592870875,-0.09465730632650193,-0.003900857887638016,-0.10467531714322455,0.057297133998571136,0.12509338022224423,-0.10531755749183454,-0.01811997710950914,-0.24013738918707056,0.022452700410632784,0.07032689167945706,-0.21177344388799116,0.06406863523253822,0.031523547130962774,0.02878212720890492,-0.015812461623459142,-0.0707203784014317,0.008852616275741621,-0.0097699428750798,0.0037251801951232936,-0.008530131822761933,0.053601251444008416,0.07514147681007105,-0.00047926007742900203,0.012911847220642814,-0.004746118731205743,0.04841519335536891,-0.02910252153098459,0.013483682568779682,0.009857646109997094,-0.021902226549334353,0.034008330569476164,0.011884839072469528,0.06984334339574935,0.029239443632221935,-0.049458109086355576,-0.03205896510589269,-0.005852734591712058,0.03764131747126863,0.10286859523182126,0.06460423398543494,-0.009019965348902908,0.0866623553239794,0.001531478367883947,0.09528759071255863,-0.04348592298857972,0.03754720803461765,-0.01923622049672391,0.026423783959931918,-0.024007478666904496,0.00337807414235035,0.01078084460345838,-0.023174644157335878,-0.001404619501763718,-0.041552711242580434,-0.01965111643376241,-0.01392993875374484,0.00561887883406979,-0.00230797949549688,-0.03883079064653487,-0.042835779918165263,0.022895118706006072,-0.010592555315416204,-0.053325252541815915,0.009202480964393099,0.013040258271623391,-0.05504725775225898,-0.012027490806791014,0.0453719274733826,0.00970508201029574,0.007256066229457268,-0.0006406729048904292,-0.049950315734398405,-0.08286130216577271,0.011620524265444528,0.021566150582208003,-0.04442166917999734,0.028792980265743433,0.028183418486760543,-0.04970262467540604,-0.003885643296876363,0.06391267398988135,-0.028931935400255446,-0.0626068550098911,0.19872151519478454,0.07248553676100511,0.45013943554881586,0.13103653703535278,0.04097491861356019,0.12097170173333605,-0.5385934476261771,-1.2836338567210697,1.0099243029025813,0.34053783326925724,0.1227416972432234,0.0647117760858256,0.5545773235617645,-0.20577387353653742
58.76165008544922,0.9388999938964844,0.11946621338376662,-0.21366266886724414,-0.013326485121052277,0.17938645744705092,0.03473696597110339,-0.06572047635522081,-0.12307705832866464,-0.08891250151146318,0.06808033823873208,0.028312586958981423,-0.1522444397993089,-0.06368784673390927,-0.10130584842593167,0.01426624244315378,0.06395236878602567,0.016287019736452968,-0.19001047931094572,-0.07350614519650646,0.0015728632483285668,-0.0038958682092519337,0.022065014268326487,0.007803450351454548,-0.0032296982155668747,0.0032812888763141344,0.007908269025346146,0.031084639188745797,-0.02015746449269349,0.011031579912517357,-0.0023110610690842133,-0.01151421171692551,0.07977628974480949,0.043391104104424066,0.026288324445712368,0.015788087145970603,0.007047969036320205,0.034121582857663306,0.015298269168122235,0.0202264081965498,0.034241101487710326,0.058597145895494515,-0.045435234026000915,0.04931666213284993,0.07207356929807705,0.0676373958511444,0.05907903990244621,-0.03613519421806575,-0.07769808808124877,0.019434717851400864,0.07466217016505103,0.09405529232414361,0.05701810760248515,-0.05745040160378384,-0.06032482485356876,-0.023178141652337746,0.03527976903614939,0.014052394341851855,0.004092958199359564,-0.07477323120735854,0.01082749800417542,-0.03472501777967313,0.015591721588224168,0.01026392887563679,-0.054157839658379406,-0.01238740524107322,0.07084449103265929,0.051082135935974764,0.044862338189781,0.06365968683459994,-0.07243922661429265,0.028968123556677314,0.055686010589963746,0.0611093437051299,-0.05430335658533311,0.042327666742301526,-0.08134645371147975,0.02404906653286818,-0.06473216847339285,-0.020242591129841985,0.000358354257313335,0.06508583125443876,-0.02643379496215777,0.01254265113644469,-0.0783624737125915,-0.012423833550533184,-0.005442572465081838,-0.12225278218570174,0.14267228849080468,0.31592753475614554,-0.39936825609759774,-0.10078730687211214,-0.331739449108518,1.1548458782424358,-0.21308232419421136,0.0859325551324262,0.39739598500681156,-0.4259028725624543,0.2036559775432399,-0.007647056485043741,-0.05095216388296198,-0.1882013679821157
59.7005500793457,0.9586982727050781,-0.18412380656173735,-0.05610817122674615,0.11044919835061612,0.00583259919263716,-0.09448650811768328,0.12932930855679964,0.03806228239099823,-0.06407508355808271,-0.04001186114162102,0.06965525286165856,0.14990346656113776,-0.0618106904496394,-0.022436327214968087,0.07882465900637214,-0.12189182654543018,0.012363243267841889,-0.07911156490572761,0.08989701548449598,-0.019297597301843782,-0.03163113953976985,-0.022169820172071322,0.012845120944094991,-0.003085638866983209,-0.0372962929612978,-0.10437552702930672,-0.04535917603056482,-0.06450910069857088,0.030775924686333233,-0.02928236751615357,-0.04592611244644825,0.0013967596349000165,-0.013039934194792907,-0.07413332638596137,0.04727628512889172,-0.03938388905990686,-0.07409375512281074,-0.0012979467876575188,0.03336695662062002,0.0181712109897482,-0.04671915167887704,-0.017880679484439395,-0.0020372824126316845,-0.07090741048982512,0.011447903874254019,0.008288816750522371,0.009898369097711551,0.047518607225881665,0.03336689010135338,0.0032775366821992825,-0.03311195511956622,0.01911766834937602,0.1348938939381692,0.025890129331793445,-0.10537529689245553,0.040021565407775,-0.08474335257849161,0.03377780038326869,-0.03855435240685569,0.028575421660805907,-0.0054557841217541675,0.008619509689342525,0.08261908385631318,0.018528719758448758,0.0639379471725439,0.0026747893592142654,-0.005410662081546642,-0.03949373228223567,-0.029251097023428818,-0.009070495829903958,0.011276927540287978,0.019629248114761362,-0.012731647529295684,-0.01877910192860895,0.04333000064373721,-0.036671159393458407,0.04426672864431987,0.07358852845349187,0.0664583973820652,-0.04719421989916184,0.06966056224263478,0.01802557648376264,-0.029827673760256898,0.11857936062398185,0.04794082288612543,0.21610306852746122,0.18982473050689797,0.2898053229796717,0.5391290035662817,-0.24593803244227697,-0.9377104507600181,0.2121197915140755,-0.6292497105122004,-0.4794382100586785,-0.45321058380723467,1.4396986984694624,0.4412097955125984,-0.3887145074527525,0.045121553465086145,0.049762995299014914,0.24476079166029688
60.65924835205078,2.3578033447265625,0.21836362058481618,-0.36056121976800726,0.010210498483500995,0.1997248690254615,-0.05875162172740186,0.05665732398175751,-0.017142411390516005,0.031196130499677385,0.0267574116124192,-0.01737130984560524,-0.2512713075713146,-0.040845051306452225,0.1487190489616217,-0.07430308438464915,0.046295635125964955,0.010719694259699568,-0.034642455489577305,0.025585151692227824,-0.04031625602698392,-0.03038728549824525,-0.01713905782450628,-0.0015042488212914712,-0.007803154579942384,0.05174378007817327,0.014566223539776308,0.0001037889469839464,-0.0008246235245949337,-0.01886648035409259,0.021499840229769016,0.06695488680820516,0.00583421983693111,0.08028857850118146,-0.03215286429260799,-0.023069307673254234,-0.00531537965711629,0.006783277412909863,0.007563404907642833,-0.0015133272610772647,0.047004572338250054,-0.010246314328786345,0.011040115035387802,-0.06958971008246842,-0.06869873395288319,-0.0005930064326329703,-0.011691081696325012,-0.02406438954442179,-0.09375738475888605,-0.006746319760500632,-0.005264145755794508,0.011421669599297447,0.022568991001301122,0.03505258613011644,-0.02050393858159241,0.05336518209054858,-0.007874194438136526,-0.015294575362350751,0.05100754062503017,-0.0013040142267501363,-0.001744671301730279,-0.05253011848969831,-0.07993049512744764,-0.013004610229147014,-0.060612203021144555,0.05911803941223842,-0.018848756114267513,-0.0004529623142225103,0.12082262679495821,0.0006438943606165998,-0.03127361175115825,-0.021280577507625104,0.011785920181932119,0.013542996020998614,0.07532061734309807,-0.01227912090430397,0.02055640379380009,-0.026255737170788496,-0.07118209304136383,-0.018643509942032503,0.22970881594732998,0.056203434516381746,0.08387278020214341,-0.030528695926863636,0.004022992968367507,-0.4846034609310283,0.12423922998033027,-0.3632897509012948,0.32771595594140873,-0.332481100702713,-0.259828587632732,-0.502935627187049,0.41111827602482187,0.6124795913133867,0.8019425487001418,0.48802790059569706,0.022663158887768625,-0.09613287495147847,-0.10073396487596344,0.04225418218534592,-0.08526033516807169,-0.01258350747035357
64.95475006103516,0.8790969848632812,0.1521969988774899,0.028817671071046977,0.07406346119420164,-0.08140139763888737,0.12550193220275777,0.0514240047795361,0.1295517839534895,0.058450567117594644,0.019124347176274648,0.011362075006020277,-0.09114128406413996,0.0720911873586857,-0.06838400499953955,0.09050410252634528,-0.07741932683693456,-0.026892162435280927,-0.024146523856544914,-0.019567986148234625,-0.1125942540055493,0.18614477857098247,-0.10566553676655632,-0.08401563204851616,-0.03803747594251875,-0.26763342592542766,0.19303254680828127,0.12496427647235289,-0.0736966370748519,0.00989374390373507,0.008753181835315777,0.03992144571617097,0.023266682947475137,0.03281982378963552,0.03531544684837181,-0.023942307044875162,-0.06591612886655479,-0.0655692130829071,0.016801258013203653,-0.07003957886083373,-0.03680387812636028,0.045031689156784876,-0.012701845676961707,0.002891783219104817,-0.015036405422670311,-0.0081864767879282,-0.00010628927915487963,0.010841324984009098,-0.009101096480445783,0.042349455376919795,-0.053688323505016226,-0.035367183706267874,-0.03313335681232327,-0.003424446331515829,0.005205957623432014,0.015150177207435929,-0.03513205401808147,-0.0847353554158854,0.0443840433840334,-0.001735647636569429,-0.008342508227569453,-0.016834980304599706,0.010123254792689659,-0.01957847510572547,-0.01900477423355169,0.06216998531300699,-0.014074688382094674,-0.13386814071937986,0.022888791545798856,-0.01338812880980672,0.04837718259597859,0.006571784637323843,-0.028276954677168512,0.029341696896827984,0.07726670613370736,-0.03660927543449102,-0.02345212935512855,8.352366768818887e-05,-0.011800955408726466,-0.01857222781219109,-0.020886602062651433,-0.013986755666030942,-0.01734077494683524,0.06951304511162018,-0.24522042368446803,0.03925742792670802,0.021334002047234478,-0.12979207967165063,0.4244819827176472,-0.28064772082133294,0.08121001616344228,0.49986092505878577,-0.1865630192849434,0.7921675822897333,0.1900103747295462,0.004957865890856644,0.5729953617956365,0.9085970352581301,-0.12158706348030549,0.9623504290570329,-0.8306539229334517,0.41048954076345523
65.83384704589844,0.9084014892578125,0.12894627468639497,-0.07209770785152718,0.06020066758039743,-0.09303352511310183,0.04510669986557177,-0.1106948338887483,-0.031143811115209436,-0.16773398823670851,-0.0795584597041884,0.048052446266030266,-0.19708013102409502,0.04904026825770308,-0.24556390980821755,-0.058886289306929934,0.14489210854824675,0.03631672225941825,0.12217996871887948,0.022058919756540316,0.010680875460561751,0.026418609566608794,-0.004047328652257664,-0.0027403408466397006,0.016347869520576694,-0.09868613709166357,0.029441796258187367,0.0669146663991374,-0.06686813671401858,0.07825270476517991,0.018667238881235337,0.03774962470652216,-0.0014560632146947236,0.102230532404298,0.05778571326267301,0.008111660455685706,0.12723909655081017,-0.037229809777849586,0.00515374674193196,0.15271564699237178,-0.17464801058105653,-0.0037633969313367183,-0.060364159865291825,0.06234296637277439,-0.05208735477299957,-0.02540623770367907,0.056389151178149646,0.03168457104263396,0.04534979775909072,-0.02176568536354876,0.016874892108187853,-0.057936921400789626,-0.1019140032652181,0.06483594771637294,0.07978018578776613,0.010789676649710086,-0.10694269981972271,-0.04986927160282803,0.02958904763364409,0.04721652781719679,0.008163589118228181,-0.01447466848725749,0.018002114084598207,-0.041390936402080636,0.12150335338986896,-0.1648993905645343,0.11744030189819565,-0.10716352845591474,-0.0021660024102177263,-0.05810927796887771,0.0030167193727381188,-0.016035082712162155,0.07289398106285827,-0.010846746098608953,0.04583324329525769,0.0551401154281492,0.023797432205551416,0.0018099845019149108,-0.02876291469701494,0.06999367283285976,0.06527286393700374,0.09491638253406032,-0.03869439618299561,0.1395321065227209,0.04817855595546984,-0.04331545212677443,0.5656041458470673,-0.14834962845023797,-0.242796811729931,-0.24778058932082375,0.2974697072987307,0.38914845317279445,0.1612630750702147,0.6092425428306363,-1.2148984091073158,-1.208891730014619,-0.45449602194769745,1.0137432346959532,-0.14112583003023632,0.8880746224443766,-0.5507674394581562,0.07467225728864102
66.74224853515625,0.9594039916992188,0.02126500673519849,-0.11602253303543274,0.00273987410671529,-0.17640160336571045,0.16481364585860592,0.18647842538094025,-0.09604727360117635,0.09712713925708966,-0.08066081404429688,-0.055920273279959194,-0.13931913062736326,-0.13309764548416364,-0.03515695451838844,0.06132604730501612,0.02684805644902358,-0.009251250164323578,0.06559841651910994,-0.06899924975497199,-0.006744345189454239,-0.03391911464086527,-0.03553610797925051,-0.024244913650599616,0.0022395379778748408,-0.004021629497023929,-0.014805120510701633,-0.05849284115938702,0.012411690788650247,-0.10871007026658157,0.008693359325633773,-0.007574514920149732,0.08262110834488305,0.027911512293444796,0.043033201608590206,0.05839311607381511,-0.03600827063441363,-0.0008371119503937444,-0.021626842979958198,-0.06487255011846384,-0.004931506993207787,0.010245681050894843,0.01637549570756318,-0.029007550084426396,0.0018719171441734363,-0.014765360017609457,0.01033427606206401,0.0378319926180808,-0.03835342125103444,0.03298050481876734,0.019345380764962266,0.020440083930748563,-0.04620760445475093,0.005722302599707516,0.005651937156577608,0.005991070317695791,-0.018227989507925375,-0.004611625640460127,0.06728228374553513,-0.003826413467554149,0.14649534329479824,0.06840781792601192,0.03195238030304873,0.02899951225539009,0.021640525427003694,0.04979447808606201,0.010046635961459795,-0.0657095987848332,0.03724905654632534,-0.027712405723862597,0.010843312704277307,0.030234623743121664,-0.025392248752893143,0.03936866829652946,0.07280641457092422,-0.019955880035434675,-0.035826997355158104,0.012533906663933605,-0.06092457878123437,0.04414063965397081,0.06274544988024269,-0.0334660352780913,-0.04155448267164995,0.006180202433780496,0.030127790253671613,0.1493930222315564,0.004308348569947371,0.21142131453772678,0.20858191064711182,0.02592232931179466,-0.37831978300503505,-0.0443817657948557,0.7737941283730617,1.1701975122089692,0.2606943495121581,0.3076712979873535,1.0658305502811554,-0.3583891337052419,-0.5669551765532477,0.31274238453543013,0.13618395701789776,-0.2840224458971011
67.70165252685547,2.1277008056640625,-0.2508011894420189,0.04141200698123862,-0.0485911349523519,-0.08235009276037406,-0.048580278282007935,-0.03150980974387346,-0.09274909484035332,0.07943510015074406,0.11761680276427644,0.15284940185880208,-0.09720954113487107,0.08969065141667662,0.10640306908301458,0.015278035080882518,-0.07439444672532222,-0.0849738406467522,0.06615078164215765,0.009626638649513257,0.04245647361389592,-0.034892645646044024,0.007562819266479134,0.014882164999202621,0.03197334151967751,0.04069040711754616,-0.043459077640239346,0.06843870161472028,0.060222771530153596,0.04383946826530459,0.028822367550204234,0.06985718217033839,0.005272495841952637,-0.026701374994661856,-0.09049830412773886,-0.022351988293355475,-0.02810572555013991,-0.04111768489612004,-0.06778354030834965,-0.06558092379174493,0.02663521205299843,-0.05054157127503057,-0.061288433336608134,0.0491290646004557,-0.01420132981770103,-0.07509283554801542,-0.01477332356872389,-0.04488025332465159,0.0930899620914462,-0.013004297286128647,-0.02399779941396972,-0.0013693460572620554,-0.0010248255048774702,0.02531136230633602,0.03712563887978495,0.01048776367908566,-0.03415705406989191,-0.03508174014838665,-0.004529519627281375,0.030743390151315653,-0.01609096053795164,0.030274947206122522,0.059116176129661045,0.023956121807533544,0.014528765188088374,0.053624009957332346,0.05144740984294691,0.003799031211959246,-0.0032202396243962463,0.0025239324821581836,0.0013638163253578855,-0.0169958169837955,-0.002932442394463051,-0.060849366303467385,-0.0024039658987896504,-0.01847051993823876,-0.004201278641674964,-0.021468154736206013,0.05460612167830602,-0.06451176353392198,0.12602553968295943,0.013698437403506236,-0.03081215248433455,0.05829349742372537,0.051491880762207676,-0.22010767114923085,0.01992354727042865,-0.18116051292074437,-0.4516070750540786,-0.04867477696708886,0.7095356004668018,0.9846314420413572,0.21765013114289108,0.03393577416312859,-0.18534963577427868,0.08304821274102682,-0.5500899199690008,-0.05525547756680172,0.14129952498899578,0.23909133064851426,-0.04178254443752906,-0.11354269113851688
71.67704772949219,0.908905029296875,-0.1259961512146026,0.29535515153302483,0.10168824456509719,0.028489664349573632,0.06792715407793579,-0.01048073419809281,-0.12337967754938671,0.23431787986932726,-0.089791036132411,-0.03549110022413226,-0.11802920410798559,0.08916604781692611,-0.1453950041971314,0.013451642594273243,0.15909847695807935,-0.03803654275196204,-0.014305373289523523,-0.028554138763240398,-0.029407299482846483,-0.031123636429594162,-0.03789335632941118,-0.012635207177737747,0.07131121457112535,0.0122410630041194,-0.040842356821830704,0.004833718374663697,-0.004026436302164451,0.007290145687330119,-0.00921943086570607,0.043212649881423336,-0.06079386962268335,-0.025793160715509404,-0.06622964067017656,0.000644024479413473,-0.010743221600045092,0.019297021220849215,-0.013733022850968718,-0.022804879102844955,-0.0918070964623523,0.012191651289221221,-0.005651428016030429,-0.0052812074939086505,0.07237051746502812,0.022936636149551,-0.041147336811388845,-0.002951958810831875,0.027345072990155747,-0.025541886158013952,0.0122080331483772,0.053071211469095825,-0.030623122325552088,0.021331289226215577,-0.03904040610024017,0.048552536491983794,0.036024573055477564,0.0592717717716998,-0.06668357708688967,0.01186510489733358,0.033482332110799276,-0.007547821258339676,0.08614157525134612,0.047731348328091006,-0.046785662178647436,-0.03927261142986483,0.025887713498967575,0.0368123623569474,-0.0023871307442691584,0.008087802478105909,-0.06566606964782339,-0.003472908746521271,-0.06958638759956856,0.03497378974226949,-0.07332215192951436,-0.09645155715257948,-0.05153008216028378,0.0007882044869063445,0.044005075963120165,-0.002288172126385511,0.003265247048255076,0.012895068329405554,-0.044058623185853345,-0.04900703182414327,-0.05864925474552686,-0.13093766241117027,0.29246974893843186,0.009149087252891356,0.13239885190295125,-0.38938353622164834,-0.006229793293490611,0.30008046953439904,0.8481223792591764,0.29980993776119796,0.12481210976874946,0.34329654850456953,0.06818665584235761,0.6839036546242983,0.7523072220073286,0.24729327039851334,-0.11097323632985456,-0.103804169996224
72.58595275878906,0.9188003540039062,-0.13328728760992575,-0.16511953804760046,-0.0127344657219551,-0.009349359405893376,0.0725217460703677,0.0635706546450774,-0.03359249472651784,0.014311669764556431,-0.10875698605558934,0.05725233213118598,0.2805473814844061,-0.19213057995539923,-0.07393131490697666,-0.02091659373884789,0.020808758192684264,0.11009109139592427,0.06665988993265187,0.06930815212844833,-0.024045759070240022,-0.032573630840479484,-0.006705340808526455,0.004098852269013492,-0.008016411349821718,0.006884147793836995,-0.050064042766528934,-0.002588741121829673,0.008487838823260447,0.011237477272097299,-0.04813607168188682,0.016090585776511075,-0.04212915977722661,-0.025364749121499955,-0.025325180612508325,0.09614062729795403,0.007975497706396785,-0.012717068523386355,0.05054403793437875,0.07738123287999076,-0.010775663342183045,-0.03976326076657379,-0.010063967060209466,0.00939723768292551,-0.04749994261785465,-0.009810538313612257,-0.14147028555176955,-0.00872791427561996,0.041748053476949085,0.07553487295408418,0.1034338075997987,-0.024027140308180973,-0.002237616534382141,0.007348361270793446,-0.004086824661849949,0.05325777964978987,-0.02539177674263155,0.06510218836911377,0.05714954029212824,-0.08252555522017357,0.006437640838818788,-0.059559792007174935,0.05738823528217211,-0.006852324285437484,-0.051629068876452446,0.029539327786886782,-0.009388900537652504,0.04360663863468292,0.1115782106240907,0.008868876619594486,0.04946398209217598,-0.08746830568920344,-0.003436648320222766,-0.016910803979412685,0.04825331096596319,0.06799492847058271,0.010717905908538022,0.029227367523752067,-0.08450741665329115,0.024448094861871696,-0.009959404426984689,0.015917131393052147,0.02004509213591332,0.018476666495455728,-0.02435358409460496,-0.09396078475732404,-0.1919807716758477,0.21341725466609685,-0.17635699099228722,0.22891265998173407,0.2098840147861134,-0.04631091358923127,0.36067074117969794,1.0804556213003105,-0.18877325179350796,0.14624112183274596,-0.974965151543692,-0.3705816067888876,-0.08835442454237749,0.1019598823963219,-0.0896699629500955,0.15482314838405853
73.50475311279297,0.9589996337890625,0.03318365632314857,-0.12101260849428679,0.004336813740670348,-0.05236873587330848,-0.0325813224083205,-0.0420026033148727,0.026357684912034388,0.032810076271354086,0.11792532758089772,-0.1353176828953791,0.11419888660053645,-0.10892773739504343,-0.03777716716244156,0.07273931387728552,-0.04729078150025841,0.08019570980421262,0.05492442637422542,0.0013760079787769476,0.036262609858215965,0.07288994874389951,0.0014069917667011414,0.012322319339239331,0.007357184529817781,-0.10153714527396579,-0.0768208068740996,0.06278872742741026,0.07854168349276698,0.0195087971342268,-0.05830723678356828,-0.05503960390328182,0.0508042269029679,0.0030511850386301916,-0.01446957175535953,0.0192441482572199,-0.003851197789079514,-0.0015881121179959926,0.11249332031951671,-0.06470179179882851,-0.007381630995361377,-0.0001739809706457773,0.005173961798377358,-0.0064226772158590545,0.026595923836733884,-0.029409411969922337,0.03900508462986885,0.01937357861807891,-0.04182221600064116,-0.011579471464348637,-0.038037847489404586,0.00346406343985102,0.005785349712285935,0.016593324457564382,-0.10741852078893072,0.007698149241203692,-0.002127859314346701,0.00011322412887034372,0.0017844873754563752,-0.031178429541560335,0.048221309293925575,0.007332188308275562,0.050965784072393217,-0.07156295180455073,-0.05927691475425756,-0.018364479493214014,-0.03959761691241039,0.002681624673227405,-0.001832400248360318,0.06754778014272579,0.009942990458354098,0.0577466558953043,0.023938824210166257,-0.005015922171017571,0.0028049706159600065,-0.040573044255198004,0.01274029130515171,0.009453711256762224,-0.0044143464098806845,0.009935137500396438,0.08877366998489529,0.06960145990495785,0.02595641814333735,-0.036499946167378824,0.4364824850158335,-0.06743483651841783,-0.10509845692221159,-0.6367297971670579,0.02059377994961399,0.6624098881176406,-0.03108263112545094,-0.9184444483760161,-1.2027284092612003,0.04405845199834066,-0.6374583756118066,-0.9153588717638501,0.6112889544846651,0.03476480218158082,0.26158978900857494,-0.05111952724085846,-0.10238527050791366,0.10439310596066767
74.46375274658203,2.3174972534179688,0.0935195094222585,0.0012738147855977768,-0.0725530219798119,-0.060891687896981246,-0.08025613019052613,0.011973749665701632,0.0629831492171196,-0.05476692032970263,-0.0007299981789259113,0.09066373592981324,-0.053210295961577794,0.14900037702414054,0.037666475344759955,0.07376669725649661,0.09773721961685612,0.003104124864548431,0.05226536844872424,0.04825780299687556,0.013590392815454655,0.04369750526188083,-0.028666822086121015,0.03118924188224142,-0.16334256755155965,0.01471983810245825,0.020575380433703026,-0.018106776102335853,0.004629135926645815,0.0009570300090073414,-0.007778344197018726,-0.08276644144823656,-0.013458071578696405,-0.007060087889330205,0.0017822948335269938,0.0013483086070110743,0.026744193662219168,-0.050838767891565446,-0.06496513156258459,-0.02008443700275174,-0.10117875403602496,0.06065577572923066,-0.055324090614603125,0.042977910706007344,-0.04127522903059348,-0.010449670385848438,0.015117398729154515,0.027987156417063428,-0.025020584392110443,0.061658221412859794,0.012514704647008481,0.010209496179708318,-0.08091705631546696,-0.004511365306483558,0.025795560161501238,0.02112979228993329,0.07119383507734905,0.0055589912321755836,-0.024325111746849086,-0.037628797881146675,0.06261873768996495,0.03572910173947552,0.03043237671045642,-0.030032570528477028,0.011813514532572227,-0.058857474824571814,0.07779537102543563,0.007602227557039974,-0.024111339153598838,-0.06678322344956034,-0.021879635568085035,-0.10075459261951049,-0.12171411422891822,0.030130876086882277,-0.010058523933502426,0.013311014027864063,0.009887376756537723,0.024279338210070802,0.07073765338584787,0.06903514273945562,-0.005147378967104394,0.0043374007419144985,0.0089819651550607,0.052547808597175755,-0.12223128644736805,0.023207136777042617,0.07595803717516503,-0.14389538667206567,-0.04056170290867392,-0.09097037165123444,-0.9436417392808307,0.32773772836064596,0.11946529769741514,-0.035407136583430435,-0.7003721708081758,-1.500000529340521,0.4413037070749941,-0.09987051681366005,-0.5870404096444951,-0.027746773029024223,-0.2322430499986335,0.010254109085495747
78.60874938964844,0.9094009399414062,0.07142418783763613,0.1308905927759855,-0.1587027118268971,0.04081555916226389,-0.043876225991139786,0.006536733987221789,-0.05069826597733425,0.19286775932003852,-0.16724950490858725,0.13002064042699413,-0.1568515751680196,-0.00583989235344419,0.10971789560608843,0.0640540939318217,-0.004343486396010725,-0.014007275271913344,-0.04920846167753631,0.011561092739160455,0.052393077661837095,0.020569754838992496,0.013355068195810626,-0.022455019045951947,0.1109611906880656,0.05494925419500877,-0.013792647844720039,-0.020648079142911308,-0.11713081432712703,-0.022297132543605002,0.02788750006218364,0.04487570094158131,-0.015138052688553241,0.03935936151582446,-0.0066716703252309535,-0.0019730153009532973,-0.019904566469843166,-0.029767546104539442,-0.014190867201582504,0.014167145600717641,0.006239713731819145,-0.0013037617438297919,0.09940742449945904,-0.014780294529372504,0.03930109455913043,-0.06870326050447402,0.13540133863179343,0.020247651877815936,-0.08728996673856648,-0.028251806659351234,-0.022701062802035012,-0.0007401204248464382,0.06296430085274014,0.08175695513330819,0.03128899693511923,-0.013517119165667071,0.02158895596054753,0.028557841720020558,0.021788891619528003,-0.04480110812636643,-0.026040933307480967,-0.05950862326006499,-0.013553843169607185,0.05793382258394036,-0.016859235056365687,-0.03518563872732672,-0.03679872691954848,0.014089734280150347,-0.003276541113942188,-0.030915885510941883,-0.060562412451394126,-0.0906199231802963,0.005421810073619408,0.06628326531451029,-0.009603050165132684,0.05340411251343824,0.0007948091204205295,0.04521897143150452,-0.007545591279874295,0.005436014427927743,-0.009333578521511676,-0.0017739077932337403,-0.030852380389302644,0.0017506801336444788,0.019986061516032824,-0.01708757771791724,-0.11232211130110895,0.2030935410468922,-0.03866699894561889,0.2398043781004647,0.9139816408902726,-0.2260646062801109,0.04937007268835178,-1.2542498506524453,0.014853968234009612,-0.9857502779239752,0.8535010710153151,-0.4537924462204398,-0.07951065839784524,-0.0366202911138855,0.26837772410638694,-0.32882443432155234
79.51815032958984,0.9186019897460938,-0.16177342269354728,0.3090133504219415,-0.31303285769955,-0.12737817761055528,-0.05568782487106033,-0.036279640850443794,0.04518149229331599,-0.03982674935273154,0.05639116548240962,0.08000357970165484,0.3167953033578336,0.04447110198651155,0.22197961415056616,0.07237761604206606,0.08623581991932591,-0.05953681137127889,-0.046841949912094366,-0.060484790631164013,-0.03583809788117483,-0.03412812394811207,-0.06522957541985282,-0.013154609583858015,-0.022243796438267675,-0.0001431938509000927,0.009788051718716197,0.046340872122008714,0.0006438241093580929,0.03748714364368458,-0.08026914862150711,0.003922468409395008,-0.04136683722454984,-0.05188065040622457,-0.010312172544056948,0.01572697161128115,0.0017699014803722833,-0.047003860239469515,-0.08491091111688404,-0.014376302751358611,0.06912631502846166,-0.051942276992521054,-0.03160346549228035,0.014376476519486727,-0.012118991411685865,-0.02549738366501808,0.05575316649801852,0.009672134624669232,0.022337870725783346,0.04448944065778287,0.05535998205868731,-0.04552160047918633,-0.04360247156916672,0.03870248279262812,-0.06158262544311689,-4.7024042836244753e-05,-0.014220964181852808,-0.029398922737640953,-0.029256832621124725,0.014100066606024943,0.0073336938028712145,0.07501281355620262,-0.024815838010206762,0.09009482422823714,-0.016156528602265675,0.0406751005237776,-0.025675247903571487,-0.042844289180006725,-0.020938074551576487,0.07355445670381414,-0.041509584888885884,0.05766253036663449,-0.0063509449040146555,0.10670441010500627,-0.019572838581721812,0.07054457480953068,-0.03752231594311255,-0.006671077988085733,0.10210784338851983,-0.01367790528338094,-0.01299301825669548,-0.0030582778972322033,-0.008222988455629562,-0.016831335991636165,0.37162041768656806,0.017426177048826687,-0.14124622328286882,-0.26779633940352476,0.2695024509802275,0.17258320012649525,-0.07459778058106144,0.15894587574175223,0.2602584759711776,0.635715743608267,-0.3649333710681187,0.34368318406092896,-0.6981117353464895,0.10307496459406111,0.1413492387214534,0.42843251831729356,-0.07144855506875764,-0.06646118844854992
80.43675231933594,0.9688949584960938,0.033157440889111225,-0.032707035494841684,0.043976437175021955,-0.010294413441471157,0.05593732583396349,-0.01883372402994942,-0.06436270534313701,-0.09454058150678815,-0.0060526087021015446,0.036580612363095844,0.016726178219237154,0.17422953080101813,0.12040327524846521,-0.07007277183853353,0.06558501616642085,-0.029892314638607052,0.1043172882137927,-0.01843886267572101,-0.010159886884093305,-0.01569571426856927,0.0025444400130211174,-0.01182438972365501,-0.001971575646932195,0.07338751912587949,0.14047777471585665,-0.08365231486711484,-0.04425345864487565,0.02335795566624603,-0.02587027440553509,0.09067451064318184,0.07524064376014492,0.06989885737745136,-0.0010348813169104298,-0.00907856375883782,-0.014215048004440699,-0.04238864210613687,0.02884091738924484,-0.005777286756689613,-0.09334803181824536,-0.024841099499595422,-0.006954797039838609,0.0904505539065135,-0.01503655548225501,0.06027415649231885,-0.05386206927110456,0.00784902378639938,-0.023188712338462942,-0.02322858948074162,-0.014451364171775134,-0.026876110313957986,0.015786442736826615,0.0055048744325601265,-0.05555901111638912,-0.0394613533784953,-0.07325212585883653,-0.0036029559171171094,0.03972206306292793,0.0381132597433739,0.005776011480821304,0.012399854727364351,0.04833385898829507,-0.06213483793325462,-0.0038294700957381047,0.0036159415151959147,-0.02291506490265048,-0.035204226490454266,-0.0017297928248064661,0.02875231498005671,-5.286052067555395e-05,-0.067768021512685,0.01638761707327563,0.0075270135758179505,0.009914833230000312,0.031177490619578897,0.035475116184238056,0.03383578076316769,-0.11877931353013074,0.013925920223500234,0.04394014833785186,-0.07211363024319214,-0.0020274768988332607,-0.03595763214600278,0.006621884804747125,0.06052766887130914,-0.23712675563364471,-0.058402943013858497,0.36203088132438865,0.1572875693188384,-0.0130242534247412,0.4684945141253084,-0.12563888767073814,0.8609679480101011,-1.2136859113210439,0.3888019969530274,-0.11914165961328287,0.5503009668722925,-0.050105309099555705,0.027098542331306173,0.01626771312688044,0.1922006796127883
81.40564727783203,2.1775054931640625,0.31247031405378123,-0.4737573716309672,0.5189261717938936,0.05589182687110792,-0.025875690471890072,-0.05419612628455908,0.029687145706583092,-0.02684234000387548,-0.026241454815885048,0.1010936341454679,-0.029069025872514788,0.038188482208963564,0.10023931107421014,0.1382937919542326,-0.0013050367133230576,-0.028324060637153682,-0.005733673999283446,-0.03315050408270931,0.02017977962663515,0.05440943471918046,-0.013025095226859056,-0.005579729705733134,-0.12778121538008905,0.06829852102255256,-0.08634139318338835,-0.09637979122781455,0.001661650319979273,-0.003948973931810202,0.007010645824590447,-0.02388933832171193,0.1574724164505216,-0.0338372035389453,0.047316948638495,0.03836913321118273,0.05184045993070922,-0.03273914409788053,0.01880703268693039,-0.002554905859588043,-0.02810599266798844,-0.033654259892936196,-0.0937122390703229,-0.09443536468006018,-0.03422095581471608,0.02524132219074827,-0.010307211982732444,-0.09768295992341225,0.07613365940309773,0.051718432085131286,0.03898666040653882,-0.006698361597211325,-0.08409436006313106,0.029032094829581558,-0.10324773453990133,-0.0027437877743286057,-0.06156339090218662,0.027236857753135228,0.0015541097100755226,0.0036323645366103927,0.004490463378284139,-0.0012451580806501037,0.051185969510203454,0.038584016629731654,0.05689574211368344,0.0911491937827345,0.11821539563611616,-0.0162492381386161,-0.020656086391213108,0.00604319329303149,0.10847362721340213,0.0011964478504234155,-0.015512105578838607,-0.015735170373677446,0.036039178957401476,-0.044346423679140545,-0.0950047503658063,-0.05714283885403071,-0.0354747740021333,0.08459659733663134,-0.12249633212383579,-0.03849575489927517,0.058870598937183424,0.048323246878868034,-0.08943346836252539,-0.3136984765446425,-0.24850549204691313,0.35017231608659355,0.14141118134703057,-0.05567537864548974,-0.2899754559238595,-0.06354998887538442,-0.1859120289423503,-0.509451662253591,0.006789785578788565,-0.0831251925621273,-0.20254546630526904,0.10311633560998074,-0.04306675746696951,-0.06366988960919276,0.0025887975683186737,0.10700414189794753
85.44145202636719,0.8986968994140625,-0.18995821768107776,0.03700640944270963,-0.024415608912383115,0.007245114062675672,0.10969000904763165,0.06358823377551469,-0.0003973930160138849,0.056280042334286934,0.010393119168814352,0.058149668587897455,-0.007067494910029869,0.0968278837230916,-0.18297458911969167,-0.05262723863496594,-0.0007028811722008937,-0.008729251347248933,-0.032449703391615355,-0.025613636940030222,0.047929547326807626,0.052204265008608704,0.01262470983354477,-0.04185735947819365,0.010888303786559759,0.014035557643919408,0.028918970338553146,0.0723433314528243,-0.019392886080127226,0.01017082723651217,0.05387545219985125,-0.01688405953209573,0.016451742783401686,-0.03856964458851141,-0.0019490111050657747,-0.008913363589887896,0.010484953818685154,-0.002344665022394467,0.0020115446247994666,0.04529835626476377,0.02337054287470188,0.12629684546296732,0.014270803636363625,0.00018298043712923156,-0.018623853837505006,0.042354168009325954,-0.017999767169838518,0.03626794993762725,0.007922545301708942,-0.04517246691982394,-0.002843537858548644,-0.03160974045053733,-0.021427179481392306,0.006115286014246394,0.018746407693195757,-0.027381164775461625,0.058127631270991666,-0.09774412359340731,-0.008483538718267953,0.008737052086501038,0.02847942604389062,0.010131740770346795,-0.026952804512025915,0.018637979828499004,0.02849960345615333,-0.07635310807171722,-0.024651167922178453,-0.006035440412764968,0.03483801972116109,0.009966045365663138,0.018352258964270105,0.030604493153695057,-0.06413182318157382,-0.013358329571871991,0.07189975892681233,0.002968099820062831,-0.025262526382564543,0.040108284664445194,0.09216737561416266,0.05344424686210955,-0.04509612504213285,0.030814518461179996,0.021191145844244107,0.10569318706825759,0.02466555377206698,-0.11774991927006069,0.044481848045774874,0.00911759585284172,0.451618891763415,-0.055201177116845135,0.1472977549429741,0.04626974342650589,0.9986159979605189,0.07361133885639434,-0.04111917304875204,-0.6173007101134705,0.40825585433445555,-0.36097200972314386,0.6769046776700048,-0.004314431845890698,0.11210611039384068,-0.12643587554396077
86.34014892578125,0.919097900390625,-0.30429177036258503,0.021052274741130427,0.11241298655216417,0.057196713709986,0.010198590835124446,-0.0753331932653256,-0.0534901307201534,0.04588905934978087,0.2993199498626307,-0.10839654052575552,-0.053114532660320075,-0.14918511267252443,0.21376823807024503,-0.02818433305293457,0.003957416223911856,-0.025446348901579666,-0.022908445628023816,0.02987101262083948,-0.0017101282706363887,0.06667599513303599,0.005122189584262001,0.013808057099500231,0.02545294320185208,0.011528834429252063,-0.027239475849931902,0.09259154518863492,0.0004109545049800882,0.00037932012969468223,-0.10441996035695167,-0.001768095050844422,0.06470323556873891,0.13406584683980213,0.01196441968573886,-0.0003664913342216342,-0.056303493168019525,0.00492721441943221,-0.017887433927397008,-0.02078491135028447,-0.028683842198319355,-0.004774842143464306,0.04465437425341425,-0.08649181765842387,0.05146486204863907,0.08852755702284126,-0.01904077948220409,-0.047675370160437755,-0.060077892750184436,0.013458723949148139,-0.028605645760698475,0.004224505240000942,-0.005050675294037252,0.014537403199603963,-0.0008739755606233337,0.08572083315260445,-0.0012491416641805869,-0.015193497976981163,-0.030498643486823553,-0.008894093596322442,-0.06975130934381717,-0.029867596913528083,0.010113040406192557,0.05548808878690181,0.05552776206259059,-0.00881663272450206,0.06534039709857992,0.018966886818048728,-0.0136510383250594,-0.06670818675397097,0.015530004862167279,-0.04084934676535716,0.06246046332478867,-0.001986785676958891,-0.017372198998376175,-0.056378593508180794,-0.026039951126400132,0.025802137035109904,0.027612455740935474,-0.07749500628001546,0.012786350928010115,-0.03995885882374556,-0.016675627469847285,0.10873361748117338,0.0391088493935616,-0.060288020304601425,-0.18667878669305896,0.21926277689554696,0.23473743062727526,0.0025096991237276572,1.0582528958326134,-0.08328311761700741,-1.2915663986633519,-0.3541835208328426,-0.5469186741570075,-0.7042717463656515,-1.4502987092832598,0.7685905024360485,-0.15244321818717396,0.15574946099006842,0.0012480625828927838,0.16717377735650446
87.25924682617188,0.9292068481445312,0.19109503454221308,-0.14006329067024237,-0.08232780481851108,-0.045297065106747844,-0.08344951608761494,0.10759875345447552,0.010555387761989884,0.2675830758867995,-0.026226307898319343,0.09800394532827718,-0.14343441632209517,0.04716139968007421,0.14499569510585586,0.011872888402150845,0.1154210962919332,0.030001155404710766,0.08306848594872795,0.00017443659014838896,0.02055527284315482,0.07616507392256763,-0.06663271635867324,0.11983894338983463,-0.008983404854223359,0.28439562815282887,-0.07227466936982686,0.48213466301670255,0.03381185757711466,-0.02261311720260949,0.022736551794295946,0.01798248173532084,-0.10286200273714405,0.031123390651577924,0.015073605435999414,-0.0031420253617627267,0.06699587866763343,0.017143592021416822,0.002215103578583284,-0.003917469152636965,-0.05346326123366497,-0.09150673209246228,0.015579774179924429,-0.0077303444434398474,0.013093852535980412,0.03217441018293619,-0.08616115034669172,-0.0365544425622882,0.03606025195744375,-0.013257101012437093,0.0641035460050412,0.046775497484300946,-0.01382025532564966,0.0013179269437420152,0.0036051915631020877,-0.003014190169202558,0.06642793374462502,0.054072215252177286,0.06351084521699361,-0.027040184161479158,-0.06896695518123455,-0.08885995148794448,-0.024412668282030443,0.013993334948616137,0.00142336856944299,0.009249518658720927,-0.046831875194612384,0.010432817081712977,0.08338195631607671,0.03837133665057213,0.012436533180217771,-0.0004281177572472289,0.09436225942814333,-0.0514157694635432,0.01014828329182253,-0.0248539774763425,0.04238110675251861,0.05297507125409186,0.016582979314537758,0.02106399829071216,-0.09372042401587555,-0.06417989502426677,0.0004879725610771931,0.016232209003506304,-0.05037673707684816,0.29377267761091114,0.12358885463551143,-0.14625221971316582,-0.35870206245502134,0.5095341859953564,-0.6235967058732108,-2.358666605260269,-1.1981968371820595,1.4539397168295707,0.5240579249286876,0.5553703717472526,0.29865622974386785,0.008462443203367004,0.3648532225686972,0.4328699851344833,0.6765228828154126,-0.0012451152224317585
88.1884536743164,2.1074981689453125,-0.06744025198048507,0.38204221193482174,-0.14529474196473835,-0.1461747319180814,0.05450820912238637,0.15932914430171488,-0.11936678794651043,-0.1679555189074296,-0.04303395276283034,-0.14277366014214582,0.12465732947960702,-0.37058949697185317,-0.14208716540602281,-0.022519547667235268,0.03165197391204047,0.0014144355497480304,-0.11117177255423992,-0.14898190622251428,0.3645684881064234,-0.07715327762678191,-0.033362750409130476,-0.34781958115373784,-0.6750704220300101,-0.19396514376693386,-0.13975595620356862,-0.038644210333808195,-0.008940777680157705,-0.026544437593864576,0.001627229526443898,-0.09635254401055976,-0.05154518598291697,0.10670580803075481,0.0344742270437996,0.033080400177472546,0.014037514983765808,0.008143648465400957,0.0001659234362434165,-0.09228694165370815,-0.0023570899221494706,-0.02396726161292862,-0.028668046963134415,-0.0058151201748374015,-0.03053877001922535,0.021765907092904505,-0.04760336806605232,-0.09298426185290665,0.03107812218957076,-0.040110821847396075,0.037985977501146385,-0.016059399685342386,0.0015676198494273229,-0.013459581232498196,-0.014896624984949237,-0.023854341757705337,-0.01860561220814671,0.04015374682945804,-0.022309120134936203,0.001098114615414644,-0.030998112704348147,-0.0002575569968075774,-0.016179699614989575,0.016574965321657146,0.048761605512112845,0.07919588180502078,-0.01582150976217109,0.05546760653677401,0.06345994884297083,-0.00947340387578785,-0.04924896863237167,-0.043565773580622344,-0.08222689872376225,0.04920991026118941,-0.009284769441578616,0.06899847000481932,0.06736784634884155,0.008788540828893368,-0.11789808408865986,0.07274040655872835,-0.09578905648453025,0.17404827830312591,0.1004580555306292,0.03105900089157177,0.06213434954061859,0.5085430633514211,-0.09067408393766942,0.39180064520417435,-0.15293012730739375,-0.030388052466882434,-0.029885729610476437,0.6714289826408122,-0.5792426060940149,0.3953063668516125,-0.05346248649936666,0.01565582237564135,-0.10113046343978235,0.3600932734698836,0.006805370120158114,0.08394180245498689,0.04272901380311658,0.06330199699315316
92.07354736328125,0.8790054321289062,-0.40508073161419467,0.3925189610807293,0.09055306370245295,-0.013558154820781461,0.10002962229960516,-0.03477494259624532,0.02769031652943923,0.08342307413878097,-0.046829914443782886,0.18011417430349455,-0.14571747763539825,0.01973771459652488,-0.008543400126764222,0.12333975257148626,0.04159425429455209,0.03601598275089874,0.0815342803161957,0.01736354845818166,0.01647991456013722,-0.009486429206665571,0.06636706753310574,-0.08259577967196884,0.09665870311845103,0.022555836874734586,0.022969076994894637,0.04468939750353616,-0.005257460374299886,0.047192911542609614,0.002160236331556275,-0.030594366766199716,0.012460159302724073,0.04143434568926593,-0.05567593804543934,0.024680309658001675,0.03820436790820037,0.035784411616743846,0.05480827654135132,-0.03179801272140965,-0.01766507276048201,0.027979692988351772,-0.006534612375598058,-0.01644550522607537,-0.013914241593622088,0.013164397560987329,-0.00814435254675078,-0.026011161969988972,-0.007170950009930135,0.0170186364036242,-0.027843864977269345,0.005584105269885691,0.034010622591312906,-0.0973253622159725,0.006710574591967708,0.028435230645879498,-0.03249283175167521,0.05051307455905465,-0.08030885756895652,-0.051958435883380734,0.10653554412930015,-0.005610882313574028,-0.005937661355587547,0.13144339578146816,-0.11281103997734457,-0.061054407812113354,-0.01723972704407808,-0.0009328106606865949,-0.005646152385556394,0.0418840684242464,-0.006491650903365791,-0.0422599389314315,-0.061796498044855645,-0.04451055125891537,0.017605300691846598,0.03614951787334688,0.06549391351177272,0.03829487733004577,-0.019041034219932952,-0.010888860740142895,-0.08839274615605097,0.07452087630552977,-0.006077338256247327,0.13543701724374488,0.14101044445437402,-0.10528000825329858,0.29207800975567044,-0.1177549783490833,-0.386743657783764,-0.6880286735561053,-0.7889491801568318,-0.0984216504612888,0.4263480535159665,-0.6201974273180256,0.6868877612934514,0.012250184843783235,0.30360717398543086,0.23098531974379666,0.3762175604613483,0.039158628910974075,-0.13430467303002852,0.5188877361868013
92.95255279541016,0.8994979858398438,0.301227106973891,0.15975028151742643,-0.3112375703481389,0.016236897066300608,0.0601297779255925,0.08447485468054575,0.018046218019591977,0.11181829375430126,-0.03374612248569513,-0.015994132491813928,0.15523158633787054,0.06506673639955833,-0.046532064897867216,0.07157308225209635,-0.0035760288040046443,-0.09634521340951292,-0.02045993732790887,-0.015163180974699514,0.07184525870782138,-0.02983016370318641,0.014956986162118461,-0.024812850736085173,0.018467981099553506,0.06829741798773518,-0.06508577024922,0.05165505253079346,0.015118706910884657,0.013144891346516452,0.0027608028181278104,-0.002544971619234081,0.050851771613200175,0.025755878496346016,-0.0030807712847136792,-0.002998618567027002,0.06804073499817352,-0.05563606260094329,-0.11106075662313043,0.043816198471505974,0.06664794127479524,-0.06446707177930891,0.1293545726486457,0.006750453070969026,-0.055010952620936,-0.0018111021138585825,0.05397895741003145,0.07042347545769165,0.031796255875009685,-0.033768847050595845,0.07103465454908499,0.013130810088481682,0.03064210209598023,0.018138841194751506,0.025821475639261262,-0.03395392160922715,-0.00836325146526043,0.0011702235197049602,-0.033550552210890774,0.08359591028287212,0.010725390684185768,0.067117137132189,-0.06917511697205163,0.0599171373541484,-0.018675749175016083,0.1075485924206732,0.00972241665312899,-0.06364178121651656,-0.09416609120669142,0.1004259879449474,-0.051592234146718485,-0.010899634586375521,-0.044478513983815054,-0.03525043089205624,-0.05396013461109328,-0.04626641431902788,-0.01114284415029275,0.19851212597444917,0.05597444900313184,-0.04697207075010192,-0.023440119516243755,0.007204890489008622,-0.042616209391034256,-0.05658018317226289,0.0030660604228100775,-0.15608479184065865,-0.028583700549894807,-0.13881597031384327,0.3487823758950825,0.02273364379274182,-0.047860035908081314,-1.3286478982014451,-1.452559974447981,-0.2558727538370612,-0.7820636902427195,-0.44933496628802183,1.2980943201950488,-0.2744288623936351,-0.3148604818280511,-0.2873756534954508,0.525468772656652,0.19344444900925983
93.85205078125,0.9484024047851562,0.2351317309590258,0.11054714914881435,0.0198576130370988,-0.11871412556022717,0.01760822939672037,-0.07322655964848915,0.2116813139440079,-0.06291121960887418,-0.08316622237756595,-0.04409396621132697,-0.05254392447693527,0.014015531767425581,0.005325878374057458,-0.00611024792799103,-0.07405536878807506,-0.08629326885241291,-0.0655021706950099,0.06481160362669544,0.004250846540249074,-0.011578455255373038,-0.05247251412356089,0.00681237696816311,0.014783142671329179,0.031998820208450844,0.012919383499273464,0.01231140733607353,-0.08485567288751615,0.03084009628116128,0.012268839044304399,-0.0027505301238557184,0.006282695525106876,-0.021246969053573907,-0.0065582675020995265,-0.04793058351635359,0.02034849908432111,-0.04564596069335586,-0.028207338372357324,0.044258113186434966,0.030558988849797904,-0.011130961954068819,0.08484300781323108,-0.07327537129355767,-0.06577573590901441,0.0031789845155763058,0.024185653778351135,-0.06482208060523835,-0.02745966149153858,-0.05150566331587768,-0.0348854173029063,0.00023410589684542835,-0.0033150764743239435,0.00019248187638587697,0.0004934735768821407,0.00010693494202582967,0.06144330465497488,-0.059013103356042644,0.0006150485359322573,-0.05045844626176707,0.03005378787314156,0.012400510810403484,0.04852619217062001,-0.015686410462038614,0.11962351285584617,-0.19718691862635002,-0.02826750986704193,-0.022151658724400756,0.03661374937970706,-0.03929095656614,0.051355313957380716,-0.008819024584359477,0.035491631056826886,-0.0516546986760997,-0.0016091878842172305,-0.004586872464650911,-0.05758076051682353,-0.08745048779567346,0.014149503194689272,-0.06263131763430341,-0.10226909861499858,-0.051828179464061944,0.00695824629883863,0.10707873584043946,0.018790718841551944,-0.22796769887252766,0.06827112339694587,0.0796410048573099,0.09377760095310915,0.008465109493837567,0.8249387788767102,0.18224763758107204,-0.0062028480954984255,-0.011282143909986098,-1.378709392868126,0.2438207767116583,-0.8660874223871972,-2.0752159219442263,0.6389901861392244,-0.5222528379113752,0.006856745535429993,-0.17031525770072525
94.80045318603516,1.9580001831054688,-0.1737282238379479,-0.011976253140551002,-0.15629226882561556,-0.09797467537686139,-0.10874469299125913,0.08751375542511575,-0.01998207317957168,0.10304522166760084,-0.005889566240964483,-0.034605092908546665,0.15153939417885523,0.013609567213435128,-0.022979819942493294,0.09255307055013719,0.1532664094930638,0.06126832170435774,0.07009961217622672,0.10036577953433286,0.01916411339161592,-0.0038409079416205517,-0.0035418724452890593,0.03478974266363269,-0.030288309473770092,-0.05953965030254582,-0.04613429037520671,0.009472389817088464,0.02752494874628949,0.01869115377828813,0.007746197964757707,-0.033289074316524635,-0.0048444853716562925,-0.016839101877008888,-0.032623800729681525,-0.025755110935911495,-0.024674916677046344,0.024864798389623757,0.026567921332074727,-0.025045208869401977,0.03856674001390472,0.07802033919537996,0.02913720129634652,0.09308126999191374,-0.02045324365735148,-0.02662240867562806,0.028849726306248366,0.02872606475046927,0.016056506182692363,-0.01193573308009012,-0.03699160606435691,0.025595155660131264,-0.08336240314700442,-0.05073060490283353,-0.04230398615722572,-0.021497995531433833,0.06508063128623127,-0.06222270673980719,-0.017088503960150717,-0.042112019406451984,0.07467290080968038,-0.09727508613821159,0.0038090757288738748,-0.14580070977178392,-0.047373965781982455,-0.04672055261562753,0.0033740202018520474,-0.035479396612267775,-0.08925575996449053,0.03680278666235842,-0.010785934160129131,-0.0024233976260145972,0.021896140343319416,-0.05291321501264676,0.09217702446812291,0.0867541371556159,0.06718593252673598,0.015796798305231577,-0.0833073378373279,0.06150889310108508,-0.12675860266602842,-0.03072565293075638,-0.051649489325911915,-0.44758196663364475,0.14894550710704627,-0.0966084527068355,-0.11765624462409846,0.31520413486568327,-0.3735565838438329,0.5414037353934578,0.05167968889023211,0.6065183144649615,0.4366698934533906,0.06995172806114178,0.27393582148016954,-0.05417869083392583,-0.4058935568463902,-0.0028001711784627487,-0.06691193473730378,-0.012337224340798916,0.03559279882629316,-0.07766447247144764
98.51685333251953,0.8788986206054688,-0.14294421340976038,0.01871997412272211,-0.2538225624045295,-0.08772414296367405,-0.2429705646171193,0.03450389100116155,0.1345894871704526,-0.19114568325387724,-0.0746310539106185,0.024078720895832212,-0.05586089124054179,0.02292567809098735,0.08295759547513157,0.11374714141957673,0.013500687333463629,-0.006573468959956976,0.002501679390869683,0.0009620367923098851,0.09274015020853826,0.015012433463709535,-0.019752335239910004,-0.019127954583157334,0.07278179895906924,-0.012309114125844421,0.033469537611696416,-0.020402781584735342,0.006228798662149656,-0.006937040017254743,0.0745781256021393,-0.046390777928232194,0.0772166036798443,0.06023759963181336,-0.026438209722857348,0.006866279167397797,-0.02674514818758866,0.018553199895840054,-0.009888096850566672,0.020947440641512115,-0.14187865388592877,0.012260260203982834,-0.047031490360733466,0.023340653900908146,0.010667915465789147,-0.02605336563748552,0.06821192513492243,-0.03202668328230533,0.033945331444379834,-0.04435931017382436,-0.06838221635842948,0.017169132690989353,-0.0426407391124179,-0.04344398577041326,0.010884051753891177,-0.015981948444790135,-0.022687654850031377,0.017209077850812427,0.04328255007666387,-0.0631319659612399,-0.0035582861754147443,0.00903666657060365,0.020579336008578714,-0.029888192085903948,-0.025764598157002775,-0.017969591728989223,0.0302193039478935,0.022607601654019153,-0.006287255627094749,-0.057415058532710755,-0.041490575752693194,0.04248762846373806,-0.016856013005086875,0.13127692210151304,-0.05543422289504847,-0.025923020894845286,-0.0006889767752856926,0.03712390745821367,-0.03531633095992203,0.044883920083532966,-0.007164767842286832,0.005845165421052239,-0.005303293067201256,0.07681781652553082,0.06587582985535859,-0.06557531701292481,0.2837382456675957,-0.09634136697540584,0.42898348016848825,-0.6080272770808923,-0.020799448861285853,0.940403672600337,-0.4880998317719035,-0.031482919414003614,0.1583949168456589,-1.4620130261915045,-0.8874168673081054,0.9084823531829828,-0.014473823903882521,-0.04719722925703719,0.1803695073600691,-0.25319866035813465
99.395751953125,0.9085006713867188,-0.27317763267474043,-0.3283710169072437,0.16240436896790061,-0.08171265515477637,-0.05492139438129263,-0.03438211330789535,0.1614097147744267,0.0345030529443424,-0.08610406465507783,0.16556498480264717,0.23362358617298973,-0.09242085080187504,-0.0038078494083475523,0.05240994989121678,0.09255671839712981,-0.047124693513960224,-0.02330378417998146,0.020489575002132346,-0.0068488919049655254,-0.007965580286092622,0.050346767670390695,0.07363256544597474,-0.015348907331856503,-0.012858426763970355,-0.07520511960064483,0.02283692140867505,-0.01037100432684909,-0.002805184199410129,-0.06512336090299833,-0.038513101465174664,0.016029665250837932,-0.13553401763727516,0.1534249486485731,-0.006459302804563188,0.049705648584035554,0.028206127017168434,0.02166021403505331,-0.006350845604288583,-0.05082474086189552,0.007949627775172692,-0.14430750288035815,0.005830536987407445,0.026052696897336927,0.004175668622668141,0.046746404696715364,-0.0066959707023555234,0.024079388186607223,0.030778269688540232,0.009397154679619543,-0.09822765567327879,-0.0667455177238081,0.0593656868572305,-0.06117182450999943,-0.00877977997304764,0.0011070123778170182,-0.03986319499243308,0.10358574368687021,0.0006596725929248191,-0.0016219081936423509,0.044921448020872515,0.02355352789415847,0.047014296424222994,-0.025403585873357195,-0.045033322240470235,0.0335353503720051,0.10700698469383062,0.07407552348920474,-0.02920148634389262,-0.04582604694796278,-0.0004877674546320926,0.015000248500505818,0.002306976700241067,0.05232410659467587,0.06841852213721275,0.015010837571497676,0.009467220443781243,0.02042557313112263,0.06339021443029112,0.00353409181394347,-0.004949808219180979,0.07236802951210947,0.024341455674417305,0.04013636919615492,-0.06502361580597826,0.2671045426800484,-0.014711263652242009,-0.2761957490589047,0.6200872613649886,0.48636753399818755,0.7642690261089446,-0.36117403175606244,-1.4554889409788467,-0.7452153277933422,0.2726152952930769,1.8068162274400994,-0.5882192977442727,0.34737546453364726,0.1263650945191973,-0.06913361734056404,0.1214392280706422
100.30425262451172,0.9592971801757812,0.10209220296758928,0.019008103888331754,-0.07535669623923705,0.04458751840017301,-0.026481382049113815,0.0041360281864766335,-0.2067324867894787,-0.1532622506528492,0.15270808031924987,0.019857828532030358,-0.14275506957819495,0.10339521898322215,0.04633902272182361,0.02507150743335818,0.07436876949247022,-0.08207606754978758,0.08215847350810344,0.010408033492355355,0.12013073323240461,-0.03778958342131171,0.1156322169827301,-0.018945712604483952,0.011481974527849374,-0.011890265591668177,0.02086057663748209,0.023823987488643054,-0.07471246222578756,0.06360562556522398,-0.00458108854212383,0.04636351376132619,-0.008276345974608423,-0.02360705545935651,-0.04666736076207768,0.04268835354107311,0.0562397991022963,-0.019030628894700155,0.04565848566259575,0.02059844020028854,-0.077276094791841,0.007784254634203389,-0.01300083151885482,0.09394611280173072,0.0038378332483747363,-0.0183605064790336,-0.04338794157641185,0.04378589112012374,-0.009266137082986351,0.06164989956553921,0.038250794238312714,-0.006065887633640177,-0.05942881076030386,0.004393822923873222,-0.02035476575852332,0.022098543022846164,0.027171688180616063,-0.021740044733032756,-0.006737205108092498,0.0021977685219974437,0.08330303165236863,-0.027532358837834416,-0.0016760696293213057,0.04107476665871674,-0.04302004477919825,-0.0004939870928049386,0.07047107995842661,0.0422441234500421,0.0018046442886763964,0.05753229480192184,-0.0678855424645727,0.07012365955675828,-0.0008324852405025571,0.0022613384551193536,0.017804888157085308,0.018163797006911203,0.05896358193652138,-0.010855537808364634,-0.0064064759015590375,0.002591728904017122,-0.005779420128509211,0.11054812669284371,-0.05871486626536103,0.1549503220569367,-0.10577673909128042,-0.09049494599095247,-0.08650804401363825,-0.08750506728707752,0.3280552351692838,0.27282181346884116,-0.002727992645403743,0.11511673836230245,0.28980801207997686,-0.6172641794155804,-1.2106639700592912,-0.06444038794778331,-0.03909831368501354,0.5381257956586558,0.40724537418010714,-0.579761616375511,0.26531609770537057,0.02079325266380999
101.2635498046875,2.127197265625,0.014411795967964158,0.050817879203442336,-0.09819193042002944,0.1355302876192147,-0.10181241744937942,-0.08123122446133096,-0.031380500738123034,0.08317630148534981,0.0210208548208784,0.08859403632590396,-0.1338665560785577,-0.04763261251900407,0.07481288007005923,0.055454434517166966,-0.007827972170684988,0.0016163820942168006,0.0337216210188576,0.007563169233304759,0.0010487052375345275,-0.010367143728375154,-0.003946839627680583,-0.06535542920366114,0.010128756299111454,-0.03070118714957358,0.025002845744156496,0.015124533620930228,0.012572337882097918,0.012236327315080906,0.008316832989016108,-0.004834750887966568,0.01966037124121639,-0.005218023467576401,0.1134893055945438,0.020897376230806175,0.008249006854363278,-0.0009993195598581228,-0.04616876278400968,0.028924231368808454,0.014946171893590265,-0.09168053120070736,0.016383031112251895,0.013303955766668174,0.010130828905635492,-0.0020727970388206116,0.017023059193599893,-0.053272502650217594,-0.042629606494166326,-0.0175668768904438,0.07040988988407845,0.02028222410782938,-0.01040031661356944,0.01379973439300235,-0.005727126836589387,-0.04735480834303204,-0.048953163006715976,0.0034717154662434607,-0.0460771636691784,-0.004737901142974225,0.058563865102704143,0.017516286902325227,-0.015287867091117818,0.0757969936819063,0.016221569350181292,-0.006852276764469726,-0.012832894616511197,0.04209537820354401,0.041034885886343686,0.03558270387425755,-0.04541928059748785,0.004748898402768556,0.022233075551010582,0.04895827506176269,0.05725110002314435,-0.039925001348286956,0.040368547874732354,0.0774133097631152,-0.1794254981134816,-0.13286290905778858,-0.05399032437853716,-0.10555618303846681,0.12403232625520587,-0.5744496044830021,-0.29362052333704547,-0.15373170304164888,-0.34150138759208903,-0.12383822764882468,-0.100260214714825,-0.3864087613284941,-0.21034278931926798,0.8111709830356028,-1.3173766579253705,-0.26099736144668395,-0.2884215853075407,-0.527566175712311,0.2825215479962512,-0.027960106117519534,-0.026105997123882157,0.008619857973264672,0.21884869978928034,0.12922411493021177
105.15914916992188,0.8889999389648438,-0.7754713204054524,0.43915106085196975,-0.07518083076937065,0.03493380343379205,0.02869950867257383,-0.03531124008301723,0.028813347510303806,0.20482586492810292,0.09300361538373328,0.03346275424055098,0.18674077354084195,-0.03532589662614601,0.022188863913695792,-0.002090883369432972,0.1526091710200234,0.027826716902625476,-0.005289221006639077,-0.023654511260341914,-0.1289053113087158,0.026740451385863808,0.04258297926753282,-0.002194103363348271,-0.04517323774724111,0.07632698038882174,-0.014177466691616025,0.025201403203936348,0.06046898846698083,-0.04964913236760823,-0.005655707276831198,0.004932367161069046,-0.0027736666283147055,0.005208596295748545,-0.0266815970982138,-0.08899741454182085,-0.039656342217846086,-0.004121587741559598,0.020816411593750108,0.04264535169166703,0.011368464303429717,0.00577497513066858,-0.018927961567643377,-0.0045659089929604435,0.006288136521238195,0.040730243438380824,-0.11776856620407038,0.08337260740611811,0.08883498229450415,-0.0016398084871565013,-0.01787101569023994,0.017290837691903677,-0.05295177623267004,0.00810054020837357,-0.09483230238800593,-0.006642866894299063,-0.007088603467894452,0.08663832531454337,0.00026252417206853426,0.012737529348172256,-0.013211075934919145,0.031629838288764645,-0.049168972881401325,0.04979462513420266,0.022429739749029842,-0.023756737031345995,0.028086562135048974,0.04367875237234855,-0.0602501019043964,0.07002702079921418,0.04166270394962194,-0.0028481332825993936,0.016101419821496522,-0.0556682255018827,0.060417038077705154,-0.057294347319567764,0.014416307552127201,-0.04705993705725142,0.02230122926696619,0.02077564787507838,0.07996315559448369,-0.02919144126967526,0.05907992809106428,0.051634507840762595,0.026844882874760653,-0.19249850479582828,-0.17735840409895004,-0.49685129972204733,0.2215643664611194,0.4458878372522822,0.5851270521646066,-1.1198015645894004,-0.5977692985645964,0.20549280351786592,-0.010449636535558318,0.04913542755911726,0.06444258527131294,-1.6979006586203833,0.4138933814468936,-0.720733558071644,0.8600960126855038,-0.38095245337738737
106.04814910888672,0.8886032104492188,-0.19082160374240176,0.07605537603307161,0.04184423404635432,-0.09524530994221721,0.04594202925900278,-0.139493575621052,0.09420237360906594,0.12829111780103106,-0.001926412277117151,-0.018064154878079153,-0.1492875242218889,0.16327142368857608,-0.20570123889768507,0.11351441899761511,-0.04125843844949641,-0.12169109609722319,0.10357361821411784,0.0817098948267596,0.0839844056444132,0.0019207069284633746,-0.0006796263561291869,-0.038147029460489416,-0.005881561326549228,-0.000552100518469482,-0.05017834469909283,0.024257464368303075,-0.09392581251646705,-0.044229978981686374,0.07738194009829687,0.025172218627234524,0.1053137427243437,0.007116301642521236,-0.030873977654681837,-0.07194781117594067,-0.011600035487904885,0.0383515715331996,0.0005838945686803693,0.07707557245775523,0.06628174794189753,-0.01860957543459976,-0.08397969722282642,0.012389294953498955,-0.040536388469058465,-0.06080702655829903,-0.09483188217781163,-0.007431027387136972,0.008258072768778477,-0.03801529313719081,0.052140946282123214,-0.001671444456291517,-0.0021308967885710186,0.009317196949841428,0.01675231675143575,-0.009499974125733451,-0.001065275413334399,-0.03930237040931689,-0.0594402737597381,0.009118857802363163,-0.013682069657051384,0.04641947099384525,-0.020247161297918176,0.020536444530796463,0.03458149755831616,-0.04400941696336376,-0.0016923529893512028,-0.019571549386433094,-0.03883165150934552,0.007068655450185705,0.06635706879554261,-0.021318916367795857,-0.06420006329046937,0.008701161585985148,0.007193210554253756,-0.01172886390816609,0.031594323711744386,0.013013754033073704,-0.012362685472132887,-0.002484916355990345,-0.0026307171432409294,0.2743657274301202,-0.10719930091474408,-0.03825696930393534,-0.03436573087864739,-0.23540936980123645,0.4062869872990849,0.026248596312320138,0.24163531107832859,-0.8260242588303431,-0.9707272915064935,0.08425908934789497,1.1191806346784838,-0.04009233470864078,-1.286064571282013,0.10286151456412206,0.8924102787392729,-0.22478356664873167,-0.7822236866812546,-0.23342310227170568,-0.0932415828167572,-0.25135608329395503
106.93675231933594,0.9492950439453125,-0.17027833650838167,-0.027254556821926307,-0.01504963982681582,-0.03669337268272478,-0.03358007912005198,-0.0931369913402473,0.06449070244019033,-0.10832429501252147,0.16661398225706497,0.07517566409332087,0.15662468422405335,-0.012401074015297006,0.006229903203611581,0.012101146249656443,-0.01332611327131596,-0.016421726534692226,0.016586671635059183,-0.03277813557007663,0.022263403916821436,0.008999649970736667,0.07194737963506591,-0.018218412725268893,-0.0016885761296603994,-0.0015221000387768153,0.011317507379309987,-0.029239884837231018,-0.06028705048976176,0.0800969116993805,-0.026442566633304136,0.1308035217971561,-0.1010703415685747,0.03439618141725495,0.04352332200162463,0.07996481747951499,-0.022304295298468904,0.04151480719648608,-0.06211660579431218,-0.02967219661849398,-0.024174292531816192,-0.013384225242688527,-0.025910072504791895,0.027345033634651354,-0.12355108773969897,0.0042134314403554024,-0.060265723495991144,-0.07747625895423851,-0.011938676722642847,-0.026357658270291778,-0.01998014170657359,0.01611515738151937,0.01670852941552023,0.018913731346800147,0.03175448751012636,-0.057371526819982775,0.014575413802280548,0.026676283948190535,6.910873942490674e-05,-0.008972403172695313,0.025111665296712923,0.019574244475123896,0.005910631704422992,0.04695082693798314,0.034188466772601206,0.01209215428039364,-0.034016411946080384,-0.11031195307870814,-0.0452393667254204,-0.013456265185385676,0.015153215135451563,0.08485489994662652,0.01628446927597553,0.02903159310143164,-0.10826919432428579,-0.06555829726737201,0.008485273122434203,-0.047754107812667826,-0.04005102610537774,-0.008823875346915422,-0.13949202138373645,-0.035574037181262175,0.018170467086366847,0.010463946935487497,0.10141048165455735,0.4293037562251655,0.021053626251198707,-0.05498088120749494,0.016378900493900353,0.3752518002297934,0.19431225048643522,-0.17946107772937156,0.349168873001209,-0.15216605689920132,-1.70409834670379,-1.256841522617021,1.8946267411215914,-0.18892980783807567,-0.21316976666440168,0.07373268712687643,0.059941700089243884,-0.39615072030546067
107.88604736328125,2.027801513671875,-0.45077221297839404,-0.1949213049245985,-0.006728722618699083,-0.027865202921235805,-0.013382134536265057,0.14298853336761522,0.021654448829109954,-0.2422745929512445,0.22988888928148096,-0.25511569150234925,-0.23115340638833815,0.03692938243613631,0.02470092557361664,0.028491993136205335,0.1681405698149464,-0.08013536978175478,0.014562900511402792,-0.03283972332064053,-0.11336306971554586,0.0025196611574161442,-0.006282255515435315,0.037959788061538415,0.002628998677444641,-0.03924447032366706,0.008340766339740659,-0.10602270329161703,0.02720883826793801,0.04872663593488322,-0.0345384459213393,0.00906617581486365,0.010993243977214134,-0.07599681135783024,-0.0015974091716236443,0.00013557088581113717,-0.04324645420070965,0.009485070073612774,-0.011065628859042474,0.01009951258642149,0.05333750704391482,0.021633143352859895,0.015353970887807558,0.04814202096315482,0.047310044093023695,0.025089055810446875,0.0034632233848159574,0.036072081417991966,0.10820454900691928,0.04326169893396867,0.00031758108163331984,-0.001756711582076032,0.009492781882517027,-0.01609793955251461,-0.048288652953944494,0.027573706603346553,-0.04634560529363682,-0.09362271897132131,-0.0023846082837838374,-0.017897291032283668,-0.07402037722612473,-0.042627942584846625,0.052790577294330676,-0.0773702176997586,0.06008977290728803,-0.020386575974233812,-0.0035894182027883083,0.037411805369726596,0.07516872883430203,0.0034456345427577527,-0.012297022468506589,0.042870483772732886,0.057915568166944896,0.034406124064736046,-0.03707739187800878,0.13029065171419266,-0.010386495131015253,0.12546608518148714,0.15152556668577652,0.12013239996761856,-0.02702267855521523,0.04955933647139459,0.02912832114896907,-0.0019265212251792646,0.352114723054537,-0.12980479639533438,0.9101207286117977,0.12379145738824297,0.17692483986562513,0.25434280231200085,0.3722974224003447,0.9816408730188094,-0.1017530839946379,-0.6072753729045427,0.2617851509433613,-0.016375556973729073,0.23079686045428674,-0.3200300029127683,-0.13499680799212718,0.0782868819289813,0.0005086138219580344,-0.04651717282813409
111.74154663085938,0.9088058471679688,0.15301375801002465,0.055323065445987876,-0.01313948252234906,0.059952852559697616,-0.05343977146674053,-0.05299458738234758,0.2702119208387263,-0.04895563183622004,-0.05968697747460448,-0.04014505692264583,-0.1285667683496662,-0.02377304126825295,0.07403748883110461,-0.0046489893523759245,0.01832922947176932,-0.0976297189311147,0.03404955259104482,-0.15454181019574856,0.05719978546978638,-0.12582292497087602,-0.09773331944914677,-0.05926327612573035,0.2105567467490653,0.12589656624864204,-0.19926752220160185,-0.07231717843992709,-0.01626793072597734,-0.10689837099002432,-0.08809791789433132,-0.011353141761884497,-0.04026077945119914,0.04277460735773082,-0.013142753513899194,-0.02987125594329836,-0.012392764013330436,-0.07929128529069125,0.007295872967768386,0.06407528146541486,-0.019880635481655383,-0.0729712286071417,0.049967665867544794,-0.026167510822862953,0.00560215366503114,-0.011253373250509012,0.0321291687476736,0.039588605248335795,-0.04541786152777284,0.024004345151331864,-0.02569341717031832,0.003105312332703081,0.009962938959067965,-0.0002558329563313224,-0.05674068845195162,0.015116146513204063,-0.0018226863477089502,0.02325363961091755,0.07556430875604762,-0.033287442797239476,-0.03767888057431154,-0.024287534682581963,-0.016900006114562466,-0.05551906789264491,0.021099982091181357,-0.1384021582456419,0.015724010491840648,0.09068548384497649,-0.004075247134487415,0.0006751843584194576,0.07775313212182337,0.03213399591180853,-0.03743910268536764,0.029818710056209285,-0.020782715795411882,0.011611028356755893,0.002711052597243368,-0.009488155398951663,-0.007409055124636041,0.026860032332074374,0.00932166293324584,-0.021965420802353017,0.06570093329593993,-0.051365504632010894,-0.17656510848357002,-0.031067209590290717,-0.05276426040692793,-0.13875997783669639,-0.07923926756240919,-0.21105746181084628,-0.60801096328772,0.5554553280063461,0.15300579309946177,0.24086268891147697,-0.2507548143657658,0.945362537893699,1.6623873891850245,0.497876110933267,0.43659378038691704,-0.11398778540662063,-0.001646335684436638,-0.4448617928155537
112.65035247802734,0.9094009399414062,-0.285973325865835,-0.24038556438985131,-0.04770751729623483,0.08925989282498334,0.026106793557648417,-0.04226955396162768,0.06690236044438144,-0.10331449849533719,0.05339495579868614,-0.02438882557195947,-0.09498287046176632,0.046642094207274734,0.04333654138707725,0.07476378788987505,-0.010896420310953616,0.014653756048458118,0.13297880415632707,-0.061419898924263916,-0.02400117045875133,0.019867120795307964,0.06342257662416009,0.05367566786399402,0.010608843042625687,-0.01272626068056996,-0.27604076411747175,0.07369408676147202,-0.10577299018849713,0.009277246367430188,-0.02244450837363118,-0.0008841316440202779,-0.013655300953271703,-0.01631908552419585,0.01252448332952967,0.003933955933184488,-0.02422491633952852,0.0018139349479688168,0.029706681156148475,0.11822441600820376,0.011894171169099441,-0.014926489992606705,-0.061371299529595406,-0.01003893943467194,0.03871570459735792,-0.026954652033903955,-0.03496714460989902,-0.06295882548107451,0.045412840652878886,-0.02469413125666839,0.020214199834539395,-0.04969268530267107,0.07189563705483412,0.0722997518988878,0.013790361664644913,-0.05659730503206267,-0.012733960716044167,0.07535853967112316,-0.02471568169360631,0.059626568923860285,-0.002475624431118305,0.04862769775013463,0.013701482130363492,0.004027321775538745,0.06266699037500506,0.025410571118098146,-0.0071629887457033,-0.018555591761517075,-0.11425977302046852,-0.02345667670512075,0.010617164204814086,-0.03293007643353357,0.025288401588588576,0.0632573132980231,0.03806714430166236,-0.020398304565966353,-0.008304981879494504,-0.009980784263563493,-0.0031416106931773063,-0.03550122736951812,-0.03507189798848417,-0.007268712405444549,0.034962069628803126,0.03293826274114629,0.023528969417067253,-0.0911966592535464,0.2330629424718867,0.07638237640725035,0.27297834675417865,0.0941277887860731,-1.0631313380466585,1.1487098506390931,-0.3577893244083836,-0.72138259657575,-1.6422700293906494,0.6176762081023816,-0.08925065944807126,-0.05818198292261442,-0.2633585614212106,-0.36291546616111353,0.4244662933855814,0.10355703309550435
113.55975341796875,0.9586944580078125,0.06812939151017972,-0.06731713695394179,0.16453376818204685,0.05735544817031924,0.15363634677540625,-0.060912026392018245,-0.12967173765649467,0.07343218826951156,0.019868741339586916,0.06654527083579401,-0.01514804817785801,-0.11962853536521632,-0.01953233128049771,-0.0741889678037126,-0.060300608580505045,0.05252594830584332,-0.037118562651871724,0.09284515605055671,0.02710752707681993,-0.009049334764175538,-0.02213349197668946,0.005681724256819385,0.020746394853462895,-0.06683701904093155,-0.048063855640729965,0.007834013971300667,0.003109585014535019,-0.03591879720943771,-0.09724642159177808,-0.06887068539941299,0.08032279816380787,0.06767998139420263,0.10007175111920756,0.07027652448886859,0.018575264538630815,0.05227298733251118,-0.044501257175482846,-0.006883127411475237,-0.003903341499897762,-0.04296513927259981,-0.009266234941482826,0.05831739337276853,0.01569436675811828,0.00017961597952602729,-0.06282041660473284,0.052880908833168615,0.056509118700240266,-0.04875550589645742,0.0027946467891633363,-0.003261916450267466,-0.005586054095822454,0.030904897068344185,-0.026130756754601553,0.009745258535218564,-0.0037429722801948246,0.003388791011911356,0.008320948039255196,0.00696676004922459,0.005936351303602778,-0.010406148772874069,-0.07741514178826452,-0.0633632615174804,-0.01754814065922969,0.015328840530358628,0.029036641123359297,0.011369660218018452,0.025969624622216882,0.028318091732066626,-0.026455817278539615,-0.005919242321156733,0.048563918342670424,-0.006335332021865253,0.007424304737916873,0.016237376966546667,0.025326542786679885,-0.028101230293829788,0.012341569021827672,-0.000630537440425158,0.013819753738134613,-0.05729293016292597,0.049728112527517715,-0.02877543335770598,-0.09757265161310327,0.09810692406343746,-0.09401236726579751,0.09464993850466959,-0.0013788272190029434,0.07946396813531714,-0.5955477073642061,0.15276613491878518,-0.16913807345229862,-0.37908041021405997,0.4947562577110522,0.5185034216515485,0.2290323949248475,0.1836169765024113,-0.7856105273333464,-0.17902292970131642,0.05896991510918202,-0.14743779173499355
114.51844787597656,2.1277008056640625,-0.15162698016583587,0.15231688460629636,-0.01660336635207675,-0.04084799067620138,0.018141118804582617,-0.0687002785434695,0.07416361506903088,0.00783976222644843,-0.006947131862422268,-0.09348496555034612,-0.12120483478863636,0.02659156227257729,-0.00042126481397148426,0.006555333896148528,-0.04464537202747681,-0.012139898293950555,0.02619730961512426,-0.09053192276146589,0.0805976661356731,-0.025678051458586967,0.1060883433183981,-0.02938531658143865,-0.03289131295147368,-0.008727021054990014,-0.0324444152683826,0.02281743921365673,0.10422336932529166,-0.004407016537224042,-0.0003317227750733964,-0.03913739472677605,0.07481824546778038,-0.01352075913111787,0.015334513473220821,-0.07054668611313485,-0.11629202219002156,0.009157077322537309,0.03824024001643142,-0.00673516258525353,0.011098192717997335,0.07118508279266328,0.026403780436725834,-0.036095477202377345,0.04514994572295559,-0.0020475387880904434,-0.011416147366631808,0.005189817567453177,-0.008006741411397674,0.011462160893569807,-0.008771402486082207,0.04453813933422281,-0.01522812057226778,0.0009723798164279048,0.00360178521620485,0.007873611207952467,0.0022181964535334725,-0.00708906967811306,0.0011573532021505071,0.012209906854491453,0.07618479119978218,-0.024998729585075215,-0.008373361734438605,-0.004670171495811204,0.03976198838111627,0.07233435669050413,0.03728690563575838,0.03562716307153177,-0.12323692538682363,-0.005116261418623416,-0.07321345913926096,0.04972390741911886,-0.009085302567050065,-0.008888145979450889,-0.04999876780979537,-0.04070985583387553,0.06154836197865475,0.046459176540601436,-0.005547563787703148,-0.008849173985846684,0.046621359752041444,0.04956021667181616,0.046225145875070026,-0.010628413503464247,-0.0171191163862415,-0.271064924856733,-0.26856412269690927,0.624138603214014,0.22687403518010454,-0.37954407904964477,0.6729432219034207,0.010597425125036641,0.07064516298354306,-0.5358536345471118,-1.6039282487822546,-0.6342315272649621,-0.9316148350919914,-0.6121676845449942,-0.07530551192009947,-0.011916276474124372,0.02327885889661334,-0.02763151656544624
