start,duration,0,1,2,3,4,5,6,7,8,9,10,11,12,13,14,15,16,17,18,19,20,21,22,23,24,25,26,27,28,29,30,31,32,33,34,35,36,37,38,39,40,41,42,43,44,45,46,47,48,49,50,51,52,53,54,55,56,57,58,59,60,61,62,63,64,65,66,67,68,69,70,71,72,73,74,75,76,77,78,79,80,81,82,83,84,85,86,87,88,89,90,91,92,93,94,95,96,97,98,99
12.264750480651855,1.8073997497558594,-0.007655688128623307,-0.007018001640456822,-0.010624718724621979,-0.09287263925254094,-0.29883531927398643,0.2464959922146278,-0.3625745133946134,-0.19487706544570757,-0.17453110431621843,0.11564721416197156,-0.10645509078028892,0.22213186557940146,-0.06806141492474982,-0.276458655954873,-0.11827502401430282,0.05309759476199524,0.2030338862959251,0.1078062398255119,-0.043113721619106864,0.07487682019146637,0.005838807397394039,-0.11763242431723399,-0.11585746164852835,0.11739463253193898,0.061533038163613746,-0.06555575306282595,-0.014589337804504922,-0.024275401745679413,-0.017563082855445968,-0.07383941846556687,0.0023899667484939442,0.051979908152788565,0.034501781655555064,-0.10509333162795106,0.08001633227908737,0.06647771267793265,-0.0635439679889836,-0.13572213256984597,-0.005598107154729616,0.04253498704773856,0.043357610777903156,-0.044439879089369964,-0.00036609203998669597,0.01607226622198404,0.03954026185183269,-0.08385639063700329,0.0953369816768721,0.04842301767289913,-0.02398091526753826,-0.07419434200428175,0.004034936455165294,0.006735455243036745,0.06188234120845681,-0.10766762265432818,0.02158916040203725,-0.03930864232438404,0.031508525073818655,-0.02631431196217705,0.007196356384087284,0.2495685320237542,0.13407595377920573,-0.06911589700361027,-0.01253539417160929,-0.15191015416348494,0.13250922592897132,-0.01878918459386518,-0.05354694203123561,-0.05149599320638465,-0.02283274975294487,-0.011309660695130862,-0.0042200628284997784,-0.00487977542154803,-0.04459161211840176,0.020443541481656335,0.001140716509323696,0.017957695627109662,0.1555083246614875,-0.0017122186880796399,0.13464653326232112,0.05188527563277289,-0.0009164682792919569,-0.0911269842355314,-0.07197656993622104,0.01789943514087594,-0.06167826347143336,0.02285123779371241,0.004043893014961737,-0.02729251141514214,0.10974092339195796,0.04199779919444571,0.020671822034581476,0.029345232759278785,0.04049238891226661,0.042627504635353475,-0.026594722298306197,-0.05794138115894007,0.018526341105102588,-0.026103025385274682,0.001177157833791743,-0.0031697871605180935
14.072150230407715,1.7482995986938477,-0.0011920416247136597,-0.005299992942828286,0.03858270847518488,0.0030348929699177884,0.06327208476805112,-0.006126346909759896,-0.1088945859880068,-0.005222384908211974,0.3037496769885073,0.010451668511455264,0.008522471644684025,-0.18135284120830705,0.20626513606311508,0.2661443426964978,0.2265459516986504,0.1900580541927126,0.08303820477418421,-0.06699067983954127,0.12485670877328686,0.031429668198577815,0.19528049103629075,0.02100454762234087,0.15262021480099575,-0.004788167588759877,-0.04249811152773979,0.03771810868998213,-0.05529432649955835,0.10709568701053218,-0.037745765867905824,-0.007246085311341721,0.028245308421369027,0.0103553066122215,-0.04384659118358861,-0.11485500684151972,0.012417186916388193,-0.008638625373864414,0.017638051710932055,-0.006515807182474685,-0.00031469150321627353,0.02563124363291061,-0.007103133904022451,0.03054302727013329,0.07436795025188697,-0.0058482205246999635,-0.055796416923338824,0.022966937826187597,-0.0795859488685732,0.0010019582733734288,0.06617375056219792,-0.08123523373276731,0.12195402016083992,0.08084014975768504,-0.00451301866799326,-0.031185517573071465,0.01228361483247361,0.07699524449669208,0.06411419241786603,0.022299727763373266,0.01325256031626996,-0.017930303456347343,0.07936350069091747,0.008107320693014706,0.15066451306685438,-0.022533604995943216,-0.581697909781738,-0.00672571618848922,0.19543388541704698,-0.7420577937150449,0.19523574395097476,0.0784564433036711,-0.08861710942697937,-0.0320346331088197,0.043249150522053526,0.005497252783014418,-0.11080295783516875,-0.01661416598824566,-0.004584366870014066,0.09015266321026394,0.012757181753381626,-0.11514706055142225,-0.0037455643313069192,0.041590695525550905,0.09925627450805372,0.022346123959800273,0.07790271958003392,0.11043171906292522,0.018145567167243366,-0.01809606865891185,-0.04723199887674738,-0.005826050171983279,-0.07966845708365322,-0.03243541898620736,-0.0031597851310237648,0.005070883784306203,0.07507948179861094,0.0239741728208897,-0.025365100252719024,-0.004270444137929214,0.051312858624738084,0.023530708169450645
15.820449829101562,1.8477001190185547,0.026907856176628938,0.03713909301193592,0.16399933846704864,0.12402038313305905,-0.1449513018923796,0.12967701353096778,0.07517340982835252,0.23560116614952142,-0.031059854344846906,-0.31382883401543193,-0.14881662836823448,0.1290218722615407,0.1501173147170249,0.17893780923428454,0.2018698112988908,0.18282939754822491,-0.48146479294575695,0.03781266649736384,-0.09541181894261076,0.05006825257978555,-0.11159438793373429,-0.01884950210124727,0.2605134348065559,-0.10092142360582476,0.06764911008607948,-0.09391234305039016,-0.3566423160556192,-0.12219206865040524,0.1004498164283933,-0.13772311551035363,-0.058275658331231016,0.03883215620905114,0.06285938951812094,-0.07246212781114034,-0.005739074962982916,-0.06017032429777084,0.17417238398024953,-0.05998076544661219,0.01619170437686451,0.015327641927601308,0.021004703360958048,-0.08245788188065661,-0.07328055462427047,0.002002248946061777,-0.003281786668255401,-0.0010269182548306164,-0.0023056348263390566,-0.02090890750557165,0.0318394685895648,0.027395353920125803,-0.0022147914504730753,-0.024410827592417007,0.038080954139012566,0.01744635085077732,0.009891796346717437,-0.01491945651307859,0.003047565543751981,0.03725979332910566,-0.06503401365512891,0.001071728662529154,0.008809601670114036,0.05100834764561171,0.22717937359188556,0.15463307574737606,0.16459545290571,0.567059252872531,-0.2096030567487194,0.014221936169161509,0.043301519264212135,0.07279544594163842,-0.005386042147580625,0.03286851457095466,-0.009940778234595146,0.10765140599316383,-0.011432655867100211,0.017097942250441533,-0.09885743076039549,-0.013898471715753853,0.12847387892646922,0.00973763379749587,-0.011158815586377928,0.015422681417771813,0.009848821217203233,-0.010817142791720686,0.1017720233415651,-0.10502699582282957,-0.051418441850908464,-0.0352703615914967,0.05438684667934233,-0.0975495725788191,0.02752033083266706,-0.02754735610181055,-0.026882378614462424,0.020472930560700982,0.019487369619461275,-0.024062304721964474,-0.0002734745059134302,0.025068312815348253,-0.032974931003384465,0.0038635699475124403
17.668149948120117,1.7679996490478516,0.004409223546926398,0.005379228668263649,0.04627146321717828,-0.057862917608070046,0.06680389067139626,-0.06394082544277728,-0.3519384213132051,-0.08789306240777967,0.12726744475597093,-0.00651229438783898,0.02931268008537316,0.08592990257065436,-0.0256904593976057,0.17671778843952698,-0.09060172994279442,-0.25806510563590435,0.05527853785937613,0.08120291705430889,0.09719776318139772,0.01768953213323381,0.28566764960953145,0.004940975706481629,-0.12194450021716155,0.016504651421793696,0.07839639515116946,-0.056506735519821306,-0.11479096650715345,0.036775467726090603,0.01950308946031528,-0.003926391786981558,0.02144992096958097,-0.20255597599783204,-0.04779233497549218,-0.03421840668671151,-0.23392481624053707,-0.054437995979122786,-0.05878104567090028,-0.013708502365349208,-0.02160913532924694,-0.01595640532327574,0.11316676107601085,-0.23538690184256256,0.020196401961020884,0.014551042671750423,0.0018165103831129265,-0.08591081245356412,-0.03319510625297058,-0.07805145329027185,-0.006655068725056097,-0.04252351416073635,0.09523682005278228,0.023216884009598295,0.009758316986172477,0.004642368734241117,0.013453352987396826,0.0025758281858656073,-0.0038206632771693606,-0.06992754192453979,-0.004824092199441213,0.04704723101332504,-0.0021691733369377927,0.031330241046005854,-0.0014281440896009954,-0.04636127454287691,0.002433683705452279,-0.17185680562565847,0.11432284088444719,-0.07856963711783693,-0.11397232069644443,-0.2793548116570389,0.3990015305681694,-0.11454425298205885,-0.169080574134414,0.019513241016282597,0.06800799204243935,-0.0442119734487016,0.011256306605124297,-0.045746260638006055,0.03902315675570845,-0.02179911927232016,-0.07633365335983738,0.02418664421832012,-0.09788547091084551,-0.06627224927747426,0.0799991431799152,0.0014861544277715447,-0.06423346136979718,0.09637949226750593,0.015508394391923738,-0.05515592433613693,-0.0015655585772405105,-8.885958460007771e-05,0.031021081652864973,-0.045859073180729855,0.017408804068554412,0.0023414756386573605,-0.02101651949801904,0.05350223446761132,-0.05105124556832298,0.01184891248673478
19.43614959716797,1.7180004119873047,-0.12709755774987275,-0.005511534935766173,-0.06150867701274399,-0.005676628957968291,-0.07377482088212028,-0.0035990335690660492,0.0921548728758685,-0.23079649692433513,0.06573284269693762,-0.10244251121869541,-0.040108121839568744,0.04430747804007293,-0.6335777992209422,-0.07887024668223885,0.0479558783346601,0.29662171395334985,-0.10951274613852954,-0.023729728865828005,-0.003981170252481044,-0.021152962018355835,0.030695383942718722,0.03445055301060953,-0.02013464945842638,0.08410011634846981,0.031198023507089237,-0.028746457721911076,0.00034991206759370886,-0.01797315022543114,-0.019286336675807057,-0.00314658302403033,0.0015037725551921793,-9.325667861775698e-05,-0.0002693750885038366,-0.06916969934665244,-0.00870279732089449,0.031037547962382003,-0.0032586114522571014,0.009717889868706576,0.0012870710575151282,0.009153787319314474,0.003217442639511053,0.017528009923231083,0.00249241310428031,0.0014348521578696118,-0.002955451847091782,0.0051980507391692935,0.015013592139578211,-0.049845395034979145,-0.01558362699267089,0.00094053469297101,-0.006722207485925729,-0.02324088003042299,-0.08566291420378593,0.01677291287091948,0.006740778759466309,0.012245135155399031,-0.1478992329323574,-0.010210850201572572,-0.007563238309171871,0.01422301368489626,0.0011108250691958142,-0.019998060154120506,0.01214076778678179,-0.1413937264383372,-0.08574471270862007,0.131429127218583,-0.16108258491780691,0.08234115760264295,0.14039572679867288,-0.022513259255603907,0.05600625394822036,-0.003301578544792333,-0.0045889195977547315,-0.0318991581577986,0.05354426468370309,-0.025257084973747013,-0.11907008797741699,0.02811471972168421,0.0072323509013619385,0.02768421051571242,0.0018520857070437801,0.055278698265266255,-0.01832841471948228,0.11741049352636906,-0.09181943327285735,0.04433301427810323,-0.002827279363618542,-0.06790859144701876,0.05416080709782865,2.9331074277083352e-05,0.004681452585002743,0.0044681939528878195,-0.00037071266452746445,-0.02692299635832673,-0.04339760375997969,-0.041984534167783624,0.004829175176051963,-0.036236904299324295,0.024907082236316394,0.005997986316164982
21.154150009155273,1.518301010131836,0.0053026480733268586,0.003066623728357797,0.040889973640948034,0.011060636756590003,-0.04446923201339281,-0.056053613128912605,0.14186959272890268,0.14327041801195162,0.12448940612809849,0.16419496569560857,0.1525061949022818,-0.09685011767081123,-0.2424462469398629,0.0068761742496872115,-0.12576355300681324,-0.0014381883606883195,-0.20212775504218264,0.3173316448881521,0.12357453201933219,-0.3979501660547866,-0.10126673375485354,0.1775045300159573,0.07777388394342127,0.07940988982376883,0.01840888480550751,-0.12889417284046248,0.024743067363098004,-0.11260540458495406,0.06082573514986573,-0.06468172895229983,-0.018377986167929974,-0.0056655184611326724,-0.05709229958898427,-0.02091309190513125,-0.122659628580148,-0.18311816225037153,0.06068884507238444,-0.03664111500546134,0.04378018541011996,0.07315076937595762,-0.014817413639342268,-0.05325976425102763,0.07036260008867326,-0.022683096036998363,-0.016887453300529646,-0.011685221180032294,0.02445468740664282,-0.014323390619804664,-0.03769197926840744,0.015265130864334658,0.007137557135366386,0.03162360139697338,-0.04069919116989559,-0.003006605271662641,0.04464347593291155,-0.022960043518826974,-0.0004331577504277758,0.09678833852521215,0.009206849266072946,-0.0462124087410201,0.027663815557587866,0.0005770353681634199,0.014887684258178376,-0.1525592712163654,0.001453558974237427,-0.02324392148684066,0.09834896758782873,0.0906180451196098,-0.046833415506552886,-0.030113189369511892,0.0016189684933047054,0.0017924014753370888,-0.0720512206953588,-0.044901032585151684,-0.0567722176126767,-0.04393937024662829,0.0462287560916226,0.12666986175423894,-0.0081772949238607,0.06049499731317441,0.10937712940461947,0.00300628800810344,0.028033160604701384,0.11693732050475603,0.09917781992581826,-0.06799607524260624,-0.08991650342307611,0.04983942189855414,-0.030742109899110623,-0.008761848287147527,0.04778757703939039,-0.04547654264562379,0.02530788441408513,0.00023887170867616667,0.139176302107545,0.04487805074885812,0.017915713718336602,0.02579483559274444,0.24179530662519857,-0.20522078646924052
22.67245101928711,1.5779991149902344,-0.06216121528153404,0.0656066098503065,-0.3247300718526075,-0.5119939254353474,-0.18893662744297848,-0.04440934315036279,-0.02941201372038251,0.011810592216907181,-0.006882196165491475,-0.007611810026578498,-0.17519972894426325,-0.010758291203060481,0.011807682227527183,-0.030495355489570407,0.007087076511267467,-0.002066142112853886,-0.09725548746762308,-0.028319389813303324,-0.008409923289442353,0.02683889863510285,-0.010366551017714457,0.05043468917004849,0.014355717845586442,0.06055406697981058,0.060573358465874264,0.002658004942730067,0.017560845533136867,-0.051031081873088295,-0.2897652531193346,-0.08284220632088662,0.047048763070940344,0.02957303479784589,-0.0192543097663669,0.08006987473294373,0.016366758989686363,-0.02738606770905469,-0.0027272044246792193,-0.025582356843233744,0.010714399718657616,-0.00808664462179766,-0.0006424927435972711,-0.03881577993246077,-0.0053486722941759116,-0.03458128338593203,-0.022930646583371694,-0.020353885360759397,-0.007994145961054635,-0.05230260526466669,-0.00763106367909222,-0.03793316747616949,0.022133735531623712,-0.08831073219384268,-0.10797633915732407,-0.00026302857467855843,-0.027108259030074133,-0.06369967496869101,-0.03605629033025609,-0.06355886554876787,-0.031405868878317575,0.016865084813166308,0.19798070898872555,0.3200543746632186,-0.3898580540930646,0.022381707559046185,0.0174991798054705,-0.29757421835316017,0.06307539575258961,-0.003436380585017093,-0.1270029547360787,0.0035890279085601384,0.07507254942793015,0.02671866118672965,-0.06550798284927759,0.05795244785669567,0.019651347796303988,0.16297591168339948,0.02124556245095681,-0.011977462414107428,-0.02064092818142526,0.016381304168252918,-0.01656147794184103,0.04144526747981747,-0.014758628159978518,-0.06996522914109835,-0.10446773649373098,0.04176702961834191,-0.00019988923671218628,0.046219979770808106,-0.03191089601437823,-0.004222626148433769,-0.07503153844516094,0.08741301538519616,-0.11334628157985169,-0.025150661044995526,-0.015538497221761831,-0.009316463816567973,-0.07014004670457967,0.05608043245602376,0.08771422495155952,0.021083789530074795
24.250450134277344,1.7381000518798828,0.02287397271266911,-0.0032770953252969273,-0.002378382421648173,-0.11704651231677435,0.15348349825338806,0.37639958639691273,-0.3191620549046311,-0.06860386701598019,0.10860735912386447,0.044503769827216086,0.01609307583329452,-0.17840161904298943,0.09990213623740472,-0.015187664397609898,0.07434645901120446,-0.03141212708731224,0.15017531354570238,0.2386491218866853,0.09147880891489024,-0.008951140932575123,0.05431264442733894,-0.08131955753379033,-0.04206186099922597,-0.04142608675829113,-0.0003728285851284838,0.024432175251197098,-0.037361610830573364,-0.019393219348811434,-0.025797750554027513,-0.054495493750532156,-0.009568997244102002,-0.022451933313037162,-0.015914128131062508,0.0019359036932213537,-0.011414387769176849,-0.0002019628608090712,-0.0033640400325962282,0.0007088246041836053,0.023591798722167188,0.06554890478965546,-0.021390227369595574,-0.0030534791938554434,0.0026745823581630886,0.05934612331395067,0.07051513279645877,-0.003693769306592388,0.019940811224485544,0.01779647635673033,0.07734293345725583,0.10980316312835746,9.044654286968073e-06,0.000834756528522783,0.0061365316487072274,-0.0008098844396369618,0.00048636811098474704,0.0030207616454536804,0.0015867241199641938,-0.02600259169115506,0.01527758073663505,0.010361454554671903,-0.07046765058618892,-0.024991524989078782,-0.05553440619842886,-0.07373735756746048,-0.016638816042126543,0.05085002757660808,0.03441607000615712,0.008328311379568215,0.007533909655284929,-0.02076161683554481,0.10201670566715282,0.03881494988968584,-0.014653754930758208,-0.05896564537773416,0.07717640426499017,0.03700928452494754,0.11310450913901468,0.033802057771456825,-0.01709680616218753,-0.07536342961403239,-0.0635501078433248,-0.02005588586638547,-0.008708850704056206,-0.13155056184363312,0.018400828833623224,-0.017149407548158347,-0.010069711974906942,0.09425798951371757,-0.006636607653523073,-0.024732466723508748,0.02028458431482796,-0.007596071105488725,0.04871160132874826,-0.078741043748052,-0.026318510592357146,0.14048379187844084,0.07230588972845188,0.03935087447910764,0.012042986170550154,-0.06166475612864006
25.988550186157227,1.6273994445800781,-0.06666983569245594,0.0037201759919630135,-0.023460330706703465,0.03292818923111302,-0.051632065498513985,-0.004548078552260802,-0.11915646957335123,-0.05401461659727649,-0.05585701648350755,-0.0024599737715150297,-0.03552074484714896,0.07328681586528812,-0.0007505955565173944,-0.05415875524079618,0.0017882519786077144,0.05067063183562294,-0.08446857172989576,-0.0011701391110797111,0.08349203821812934,-0.08588515689072299,0.04836679028407769,-0.007156754068791105,-0.03047263523386757,0.0021025144414443695,0.09459598247798993,-0.0005564583075512582,-0.04768490660952271,-0.049559176812917285,0.03986902124670399,0.08150890548744197,-0.176172872847768,0.2873143049388808,-0.22011615252150782,0.06616487878805602,-0.017768225257254983,0.6873980000338422,0.05688813163733486,-0.10409642368419876,-0.10183364874003285,-0.025048939299006954,0.0058562455721820105,-0.033760439522543435,-0.09968127171872262,0.06037605090856822,-0.010274025231877905,0.01773448593280179,0.019730420470004176,-0.014563385472626774,-0.022295178205754513,-0.02659765937357177,-0.004890587549568575,-0.01003551327881682,-0.009689900586895834,0.04482828326104975,0.012617116358119563,0.17105827877312435,-0.018138719732451816,0.02468566328663585,0.18448316713065616,0.071549738195935,0.07130762226010226,0.07732181522304855,0.41648793447116333,-0.02612516742069967,-0.00638919818056938,-0.05165587840411988,-0.008218576490306054,0.017629029757546533,-0.0039310614130841,-0.07483146514514909,-0.018481139576719142,0.07471878791422551,-0.0834614056899899,-0.010120869861747367,-0.014911369530035093,0.03130819511559997,0.009341770803799264,-0.04709838909884492,0.10089914960317597,0.031364311821683005,0.01442277067700242,0.0660265029434523,-0.01632296893041737,0.042881455214271225,0.04671274642600391,0.060467538540592274,0.01723378448466203,0.0355330135808275,-0.003902173226562911,0.09969781701883139,-0.04714673169354366,-0.03778957278145828,-0.05902953528258397,-0.01880988579314133,-0.05399564406255636,0.07760569111677466,0.05693956870684722,0.10857914724872235,0.014612212995587757,-0.04491093057992715
27.615949630737305,1.6783008575439453,-0.012246245612447776,0.15792042353966923,-0.42931397541652155,-0.0850516303503282,-0.07176696966884065,0.30803546294031814,0.12377310295344046,-0.012857830023415291,0.08113760570415635,-0.7848892907513735,0.25471256676434995,-0.07639399213253409,-0.006030195179710478,-0.10972366271021686,-0.17145567602946749,0.18612926441447247,-0.45314011527170084,-0.0970650327416497,-0.1703845693467589,-0.08636610019764242,0.06409553401088251,-0.05488438891324092,-0.1654646991630891,-0.0013977711162790202,-0.02283067794794015,-0.06872123275812027,-0.04768939304506431,-0.0680906486685383,-0.04251819496481191,-0.010854098125464532,0.04776412082005284,0.05296288906620958,-0.06182252302144476,0.020692170343254282,-0.04287425983633853,-0.03507943682718735,0.08868804952054188,-0.005662886823431065,-0.00639310019585352,-0.06168793912466269,0.017443624186949547,0.03329554708928753,0.004641329726940032,-0.08834070990510236,-0.016568860665804035,-0.03660374601649356,0.07795072567154987,0.071851763827894,-0.025897645686197693,-0.00520756143430191,0.03754036945612925,0.09137464276419849,0.009497362945445353,-0.06290762450144355,-0.038521373111581866,0.009996595593710089,0.026754276083206505,-0.010981584072934317,0.08418000280945755,-0.028968278002220054,0.01903214400045948,0.1044006247515285,-0.400773614573629,-0.03627431981014305,0.07950350947477515,0.007383528123568569,0.014923422094705707,0.02411532361061998,0.008759397261783819,0.010796229861589247,0.014928223361355068,-0.005878423928606342,0.11928264981219155,-0.06003602281082683,0.010800319012229904,0.02045584332965416,-0.014677194350197166,-0.045733035038425005,-0.04094494580876644,0.0007637575081550084,-0.022120261364869602,-0.03005300457827103,-0.018712469678035804,0.06327816858812654,0.05491110391589739,-0.01689356001144869,0.08532971198812186,-0.07832551475623256,-0.013344475247135985,-0.06348206879264078,-0.06986493249528618,0.04099969397054674,-0.045950320481396634,0.007700084082459958,0.06301999727297686,0.08076121134865719,0.21443972659322103,-0.15850141705404408,0.0477200575394686,0.18649430868627032
29.29425048828125,1.6879997253417969,0.19557580695618154,0.3170434013397257,0.33669768274827744,0.16378203090739749,-0.01697487164904347,-0.23809054119412232,0.03815002966929727,-0.14063604492693385,-0.11921307943566836,-0.033513906371453,-0.1355303357813739,-0.08577713137804983,0.07738041684955346,0.0840771991903949,0.03817402359526825,-0.019200176846715634,-0.1437682747064568,0.0583816905843069,-0.06236105863500509,-0.2493046163537554,0.025720857171194808,0.0873550069143101,0.06488722378815667,-0.03806098794500295,-0.04035953530275113,0.009747982876235302,0.07592697696954144,0.05936705731508782,-0.010006175164049332,0.02675035108940203,-0.038810840948426836,0.06152969869719686,0.02047808815776055,0.02216744341787883,0.046054485268272445,-0.10185696665648915,-0.015053109680436405,0.02473803409174538,0.04178272993867845,-0.07334731903839259,0.12731666152532758,-0.02166695957844114,-0.11716740737726616,0.016387827502178605,0.07712643306899641,-0.16561876623969607,-0.0984556974282357,-0.015394517041487952,0.06596779725771895,0.18188416741346874,-0.0040271692761099966,-0.03831319732468353,0.06038772146476054,0.02394112885333196,-0.06576962607360116,-0.030562164736362807,-0.033395304011219665,-0.07499324495201123,-0.17031951177488844,-0.1739646347487337,-0.010755874154780548,-0.20415275013951614,0.17954935782806897,-0.051020524595222355,-0.407547446595182,-0.2650888988014868,0.017409314413072294,-0.02297840483564463,-0.017489418484140342,0.051909425408913926,-0.015887792488838752,-0.01531125372186781,-0.10849087353990118,-0.09326880297489136,0.11477096181171548,0.05351529330057132,-0.14758418929785816,0.016385601539025685,0.049339285322394205,-0.060735581876417644,-0.0861505284562214,0.018099337155803925,-0.06141776612165132,-0.0226122580989772,-0.012963876311148877,-0.08044620154416983,-0.17237416210989098,0.07668802025947852,-0.02623211736824041,0.006181614778557889,-0.02482496365079166,-0.006139540240232481,0.013213940113896941,-0.01618363400278256,0.005361580074971912,-0.03369401927640703,0.01814683061367434,0.005977864060531442,0.026520165460729887,-0.0026922072411143696
30.982250213623047,1.6983985900878906,-0.0026817055557185523,0.09906964052732917,-0.07653047873728307,0.0008411178482399025,0.0867605289055514,0.17082270498960572,0.43258480397347476,0.12183955231803198,-0.07548528378838847,-0.024450272110074334,0.026202463034082323,0.3351535037742671,-0.0864910575826621,-0.17259388780766172,0.09513795377588115,-0.0494483851302492,-0.013399543092109008,0.09453656205900066,-0.0038488081506484802,0.006113120664136412,0.01428425343952984,-0.010829699468443137,0.00841296670322507,-0.009910379900588281,0.0020297047446672873,-0.01719969376630709,-0.004618998839856628,0.06501996750827618,-0.08650312429565682,0.02031787767641683,-0.0007412994446227222,0.005394232686354675,-0.05852096614639777,0.0012192362198495087,-0.037100660250084364,-0.0006149616415779963,-0.10387812115737273,0.03999397363594229,-0.01035761419820223,0.026180042336629506,-0.028530454138046665,-0.04669177129159839,0.04363018223704457,-0.022001348361094842,-0.013785065410691171,-0.004928766304053449,-0.07658910993419177,0.009867479585780183,0.00022786298987502907,-0.05261835757100228,-0.08478944891519674,-0.05722128373166062,-0.02297447111180458,-0.04333701181421412,0.05304538187330974,0.02070845776961614,-0.04522765222250495,0.0013883365821140523,0.022961948632717326,-0.1414108829679092,0.3062583423201371,0.10142819438074184,0.35941809770352084,-0.12168182727815446,0.42631076691755887,0.0385887927378951,-0.09510456996018266,-0.053193730212042566,-0.010778680370639528,-0.029150855049303762,-0.014154952691228177,-0.07394142498319452,-0.08612080235177806,0.05505318184903392,-0.07574788963224915,-0.096642798875543,-0.09089424010442725,-0.010369159438251448,0.08948106934195124,0.05684040519928183,-0.0006586444874013586,-0.016170887660975134,0.023219857572767927,0.1033440964163828,0.1662191979598619,-0.017722176871714745,0.0363845100478431,-0.01501532882416623,-0.003082597339987683,0.007568428424199986,0.013427619061568865,0.03186026957060063,0.04508813852897186,-0.019334738362117236,0.04461854548743111,0.04466606327153905,-0.051355768203720675,-0.04393356601107686,0.008744332229370488,-0.006360402946921039
32.68064880371094,1.6382026672363281,-0.011847324059671186,-0.006543793455152102,-0.07210715196945836,-0.46874501648031935,0.31814457921490635,-0.015258740842424371,-0.16455302907615016,-0.1342530697853832,-0.02705772935318459,-0.14588284446176264,-0.14599869424427153,0.1242851056030093,0.2670600687162678,-0.14084742730201794,-0.11171274032573887,0.002854268979518313,0.1281419235114248,-0.15377280938052193,-0.004076700844061148,-0.0885950279210635,-0.10862549215630478,-0.0020696599712184825,-0.010448664619211566,-0.05893134725932741,0.001366305536789585,-3.201687912516288e-05,-0.011471956638907677,0.004319282866697943,0.12741372693887237,0.011371923338914076,0.007297937873287868,0.06992719538015044,0.05422403115238511,-0.030649430511606516,-0.059317742903831266,-0.08960944140661677,0.004060105310077806,-0.00017979973329420944,-0.00032362844402866547,0.00047413234197819635,-0.024271573106734026,0.08078944565913698,0.05509113643239805,0.045966070547641465,0.007184577757412021,0.10306716712476921,-0.03791524668976155,-0.07223576028557058,-0.06702169876115366,-0.01919098854895694,-0.01645051459706673,0.009881241197387005,-0.0016953404609480881,-0.016270458912956958,-0.018716396784850226,0.0047490119889480415,0.0008079679000330502,0.008031986381380044,-0.11362879478063252,-0.002289640965506735,-0.18166734275653493,0.08054044345670774,-0.17469017011071886,0.051082965561629196,0.27485648170805255,0.01353585198135718,0.03589404896042966,-0.007211674019981073,0.06048297796266862,-0.02754368991953876,0.07589227240225546,0.04443486144724309,0.024875528293481608,0.058119140407368625,0.053274270895365045,-0.04021470983922201,-0.09225936494186596,-0.1017949722558256,-0.036230051333937634,0.053362696013357774,-0.008896755797860709,-0.0006491806317627004,-0.02431568383689434,-0.0027234406088188223,0.00705481458010251,0.01872548354802968,0.03242887785035968,0.053150567665441066,0.03400018196365037,-0.08089261677850802,0.010475178686618729,-0.005046377604648736,-0.010036428654575491,0.05242947005280617,0.05622483310477565,-0.0004463333145137472,-0.013738972643266276,-0.028266135337374387,0.0026017710762094018,-0.06696822985133699
34.318851470947266,1.6778984069824219,-0.06792452197629215,0.0899386700021279,-0.16080426069725778,-0.1385608597092886,-0.2260866634071392,-0.22164012778527797,0.21974251128523764,-0.02750280426340471,-0.005466571017367056,0.03020437027634818,-0.2227680882021953,0.08756566773293675,0.1605065511693582,0.10110570231446567,-0.11596703356362066,-0.020695874263756863,-0.08165466854460363,0.08331461898711344,0.023793357290346543,-0.053938885896604206,-0.04793136013550871,-0.061923510408796185,-0.09455904949185268,0.18475256971796727,0.01601114027710377,-0.031077433300751023,-0.037989430783415296,0.07347306287940217,-0.06896507003970867,-0.049715184346066664,0.010473323782741548,0.10752575747198645,0.03360278061639334,0.05877889032851543,-0.04759320806062533,0.00844021613615908,0.022173324451883664,0.04393590760676516,-0.0013110512303533273,0.06841260966706743,0.09079261665216247,-0.00043549552839481503,-0.04630284210986555,-0.0338511975446332,0.06315438250792776,-0.010786698038606757,-0.043087084294600064,0.07632730864247954,0.05476813625004408,0.07124470305368345,0.09025982863828697,-0.017054353901168398,0.040305932186873616,-0.01278764203091109,-0.0665770561669707,-0.03602635489922982,0.004664625877043981,-0.040881204060950825,0.09108907831359156,-0.034084950536251574,-0.13603278016050635,0.16335277334782847,-0.12843327137634278,-0.0213243923852932,0.12472852756178311,-0.04624913194306537,-0.025592126505843416,0.004991555220785978,0.04779469526308891,-0.017967543327613484,-0.02302380765298051,-0.0342516482906765,0.03775793967178765,-0.025404323071610294,0.11105911515526033,0.11463358746680508,0.04688876294346894,-0.07540962064580893,-0.03567353395576373,-0.019836961066685116,-0.0095113087041929,-0.012463751909125464,0.0037491969658288854,0.06107245315063241,0.08784202661759008,0.07476599340214665,0.03993405576240633,0.012147823469986708,0.02845499192516938,0.021273632196306902,-0.009376573379992698,0.0015264504600730805,-0.05904209606896576,-0.013449291497150578,-0.07095031408613517,0.010962385816282352,-0.0221513443738784,-0.08679464277317035,-0.056438637547496465,0.15638449601853624
35.99674987792969,1.627899169921875,0.1451584524231884,0.09626542100435852,-0.07424742393303564,0.1300505877198733,-0.21670938195412282,0.11719292786522999,-0.0064688907552008235,0.022501762747096213,-0.045284979702677496,0.0798948869962631,0.22174747522283098,0.04982076246725386,0.12490190903853023,-0.08130000614640166,0.18435326947703287,0.043269984435780194,0.010569951590296415,0.030090469005436972,-0.002740771188763769,-0.004082369634662377,-0.022861492843707587,0.014013632084063813,-0.005708695562650757,-0.008810522356492444,-0.03926745246078875,0.04514852531894789,0.07801555830851087,-0.03706465870795627,0.06239008398537804,0.006032295428798856,0.008951400020391178,0.006558153968104892,0.014031651950478619,0.006167332585537379,0.06837923930876438,0.013045675188479669,0.08279794669991404,0.1017553450915058,0.05029510219608592,0.043544637856963817,0.03168890111261593,-0.0006461187141101376,-0.01452330417778841,-0.09218600539376368,0.004944663761874696,-0.005116541322075205,-0.00427922536409265,-0.045388101843289765,-0.08605774783772333,-0.03213479617376278,-0.007131473862629523,0.07642284053169793,0.04808469568713437,0.038124027304339336,0.04295319130210437,-0.03915060087626819,0.08233513871042876,0.024946171919029585,0.030010343398519216,0.0036764134110175073,0.0757604027310822,0.09588397809276825,0.04508326934420924,0.04016573193202814,0.11213518840638574,-0.11375180714469939,-0.3289456387400897,0.12895511941712098,-0.1792778292866132,-0.1202886692224985,0.1878129566524595,0.13688227717833176,0.02642285866365307,0.09051261987973899,-0.07732208284536587,0.0618889289361205,-0.007454412503739397,0.1433025829174793,0.12093488142414498,0.014283198217112367,-0.20261032373541055,-0.01132404565169325,-0.09771893440065671,-0.14152431718923017,-0.11001160309932194,-0.04457828881345942,-0.18990808381865823,-0.04099652516186002,-0.058498976725564415,-0.004974946260246302,-0.027789347633609497,-0.13820767780866003,-0.15769893742850596,-0.013796998442838937,-0.10888078667354505,-0.023935067595942806,-0.0062005748271183065,-0.06357232010281919,-0.20221580180910528,0.03715332833206797
37.62464904785156,1.6183013916015625,0.02618899142054649,0.21576748201151089,0.1925521398242325,-0.26222195019841954,-0.0017139068118294872,-0.06921708201641721,-0.020968609840525277,0.0607146835555914,0.0728790379187569,0.036094939753688646,0.02442529813966382,0.05186460756017641,0.0944730590414562,0.11206913606888534,0.018783114426827646,0.014158862192976296,0.002198171107356361,-0.017517265819596887,0.07953728558245503,0.04225148701966619,-0.011469232995744769,-0.012760765705267222,-0.027972090903994263,-0.05624394236011611,-0.03680785460028801,-0.07946784181712259,0.021458713994146457,-0.09964093872034134,-0.03430522426441153,-0.05815102592135199,0.07806077523195618,-0.004970810067355094,0.05945548951795018,0.09887238843115356,-0.0224798769109541,0.023256624734844647,0.06268428040007124,0.02509388185552424,-0.04683659098802672,-0.002998914638577129,0.05872003360664396,-0.0452977354523821,-0.010182960035620105,-0.08986516310454719,0.061563171520726045,0.037080379697840664,-0.034032911854777276,-0.08075003838834852,-0.026638106200870995,0.02508092748480101,-0.006010697977186123,0.007169801821979841,-0.06733026905100875,-0.1298739163580032,0.010544447935524429,0.12841269925451634,0.09306135715532504,-0.17703238495974255,0.58005810772838,-0.19411680461968836,-0.06851383699224135,0.27489000887838333,-0.03005276160487508,-0.05401123617496764,0.05278303722297573,0.014068043635007063,-0.0007537902433840666,-0.024860688615340167,0.01744875503680668,-0.05005567030056768,0.026223228639831064,0.1270598822374422,0.02684567902075455,0.07565217276732937,-0.05995823599455049,-0.07583007920333142,-0.040559030304479854,-0.028465797215504494,-0.08817080374313103,-0.029181818702428516,0.011316234611507261,-0.12135452333434092,-0.04824880966180285,-0.08030345606205073,0.0031660113741319405,0.008456487440416825,-0.023401349558513026,0.06809606640084381,0.004147117838741285,0.054347127235184235,0.032832082675261415,0.018694532184594607,0.04606624348975864,0.06372600234935895,-0.0005711413472422876,-0.03130316802065327,0.012390556506595646,0.018116478190048736,0.04822746521665817,0.03613795926877025
39.242950439453125,1.5181007385253906,0.029528282782940125,-0.003930233066765155,0.057768539638639656,-0.3272014848197638,-0.10237411073745542,0.07238525791539237,0.1872435686860158,0.15172864363207736,0.06577918183130674,-0.060391202557301446,-0.15167516489056593,0.1319817832266705,0.08257442901554736,-0.002255926728579688,-0.024820557103560414,0.050390583748450124,0.01521554542954795,-0.03309397397398761,-0.03280101514871074,-0.07830960007348609,0.04714858680959113,-0.09796080290375432,-0.1180108171473358,-0.004492461181022649,0.0013935679123770923,-0.016191024498385193,0.002665738211416882,0.009918865456837183,-0.06904819128169098,0.05878476695767276,-0.007665976376164585,0.03565503111637881,0.08105929828142538,-0.06421860264813228,-0.09100636278389418,-0.008061477234408771,0.001931182007152271,0.04537600051091955,0.03384819088900572,0.010310724883977012,0.07387624450692985,0.04252254801593186,-0.0028797830323997586,-0.022648760492932206,-0.09068449075639215,-0.002868848762549664,-0.05448852582808655,-0.07686959234229766,0.003925835121481193,-0.01068188207035077,0.022735701744200434,0.02695178696424437,-0.013224778872975811,0.09964589786099481,-0.11173993757536942,-0.03692052601297436,0.08687897113215826,0.002180848010872706,0.03222785354912365,0.10577458621278649,0.015590160512764715,-0.32244715546273084,0.0439362413662853,0.06377851931748287,0.08486939940134627,0.044636243368578105,0.04052273174458133,0.029729509588642372,-0.030154921541335266,-0.004311456290250136,0.03578253008147182,0.03713292843637394,0.006014328853753699,-0.046273269756706176,0.025996800827216407,-0.011405922707071196,-0.011964257543971572,-0.005549250999502681,0.03842231587762347,0.05068281511821417,-0.060251162038109055,0.08904739784141912,-0.2014640280429053,-0.0010782558667536482,-0.04213793680078728,0.0014132685774540237,-0.08535520021349863,0.0893603240107915,-0.005042858856059458,0.03917649663052409,0.08926993554593808,-0.007736491545513334,0.019469125370219914,0.014371369913093193,0.003095148496452485,0.04766504803173456,-0.11919151709625696,0.01815857122134609,-0.07974001382610361,-0.06567949186758121
40.761051177978516,1.2386970520019531,0.09295049664176255,0.004720911480634436,-0.3517329106785678,-0.020430881044419535,-0.19536946620736312,0.15843987981282062,0.17421778702076912,0.03763733505356166,-0.04828736767873453,-0.016429559321340062,0.010623099025643679,0.00778550952300393,-0.013771146124929148,-0.011748571708909666,0.10027803800908608,0.017411507548238173,-0.017470468558178246,-0.09515453549148103,0.07770554882913411,0.22222549804384348,0.12598913589894217,0.04501071927138228,0.03702113915704223,-0.11685137650943865,0.2608464793260456,0.05889199560625197,0.03670929553499767,0.0029400386966119446,0.009017506814715756,-0.006070151218157557,-0.0009999916495238772,0.0022214989584104367,-0.06049657387625059,0.014335030310607514,-0.0004188711085101006,-0.0014618119149863568,0.0721976069277235,0.05774704904047184,0.023502109192245147,0.0001704140900726297,0.0010033411954705378,0.08255996975508373,-0.05714375790904544,-0.051754942549961304,-5.533167400043298e-05,-0.0003892290922387138,-0.010119189325627432,-0.02354949240215566,-0.01775854204219731,-0.09505107871868207,-0.06607807276593623,-0.00760538810438457,0.05712650915183495,0.02517832702858775,-0.00912214777626436,0.002692439468235885,-0.02691666497463458,0.026772506753603584,-0.01608744859080366,-0.003192072641960015,-0.012314540820990785,0.012412942881363704,0.0050717652579743075,0.043536786500715956,0.05785152897054417,-0.0415062147059541,0.00022000525002971363,-0.0085836633439612,-0.07940799691924612,-0.004151878400792333,-0.016310473929211023,0.009846146511657038,-0.008864467085063568,-0.01417642833146654,0.002181253951779894,-0.06490606839026623,0.03979183456871168,0.04724572316297981,0.006143316874272262,-0.00975127559756477,0.0731648534615465,0.0408895130389456,-0.027869150039380272,0.018390497872215136,0.03444678802217647,0.0224773104514818,0.12492915401761107,0.1617696504798732,0.2364861733329515,-0.03600470911616464,0.07995556062228838,0.08038971997148422,0.048067051567478536,0.05497488039970242,-0.030291450790462693,-0.04769316422040142,-0.03823256931596029,0.15364380304326494,0.05267124499954901,-0.07007549012833755
47.04384994506836,1.6674995422363281,-0.017977265197430786,-0.012437835458727427,-0.03636173739797482,0.055665232651609074,-0.024650131315726076,0.053074813982989154,-0.039651064491429924,0.34652402671787225,0.10587913808221543,0.11963956712194866,0.22472533467095368,0.07172903461919741,0.08684893278193984,-0.07215925040070839,-0.08768043951877987,-0.2703640634522263,-0.04688806931054762,0.275338837130861,-0.09030838421916446,0.15288237465943091,-0.0502712876340802,0.05012779313809145,-0.15345218596429183,0.13497686145796423,0.19515989391465588,-0.14704368570067403,-0.07957664893296792,-0.06586582869751338,-0.07780927054069489,-0.09053579448558433,-0.09366498998367542,0.03549167488589546,-0.07745981213461643,-0.012850315539689267,0.10750721143065158,0.0022343275251976748,-0.09263116017628759,-0.05268419638192895,-0.12670826204280214,0.05817280478583333,-0.055822426640742634,0.19000055446162553,-0.053525968047376415,0.07503211714684792,0.03045737067439228,0.04308868146326607,0.03148172474927239,0.025011761067296988,0.00941975757501809,0.056800367760094964,-0.05304861124537799,0.01892999011619013,-0.10190608792168496,-0.055067078053243027,-0.04534207365515184,0.09295826403629807,-0.05613086989426025,0.02142614607213768,-0.00022077715416723122,0.0003880272965177637,0.013613293002676599,-0.0012246116515408339,-0.010931894904527256,-0.24485136131272295,0.15591003705532636,-0.08397248469007292,0.0592258839835796,-0.11168207023673157,0.037700686134009176,0.020147481150193894,0.003926615334073797,9.51729835620592e-05,0.08708476383824743,0.06545067148192474,0.08043211071215693,0.03232861505828645,-0.10408867239319881,-0.06274135423069635,-0.010668513408256865,0.030477429431628338,-0.11932284191919347,-0.08426546664913717,-0.030139472422056914,-0.05250742207319061,0.049131489916018456,-0.0025551576649924367,-0.011934522818685995,-0.007825829665112975,-0.012537332049232783,0.01126122527317338,0.04336689586236346,7.427725522373373e-05,0.0013672611814912975,0.023321230260439835,0.061818997529548524,-0.009397969153951448,0.05257464556974993,-0.04308545053739939,0.05672549728037268,0.1286524784016133
48.71134948730469,1.7383003234863281,-0.014093283923830892,0.05015222256377771,0.007362824662570135,0.04667592569542404,0.11621064449973265,-0.025564919631955244,-0.026748113317320535,0.06005657678086228,-0.10991474739756232,0.03069203525657601,0.06400774202749251,0.06714013045611153,0.007106567679447451,0.00936758554259922,-0.10483573802466062,-0.10071223343382764,0.145468433741367,-0.202277539513943,-0.05634682641029174,-0.09841443702324196,-0.10474844239841198,-0.04250662234348877,-0.20143510814709886,-0.0477435870447704,0.06873509542463323,0.07959588246140546,-0.04512160938335993,0.037009656691941006,0.04180159429861282,-0.18538070550878644,-0.006491624875378396,0.04004967532398416,-0.02968351802940701,0.04802508601724632,0.002035017816329492,-0.10648818598475526,0.016994732135729076,0.0035520966596059972,-0.04044763768428709,0.06359982414262967,-0.00044812878268997436,-0.06790826620997739,0.008763449711084607,-0.0016315119100149085,0.02065362548229834,0.0672319193373412,0.14403360910316293,0.035238446704007956,0.01421474810404146,-0.004987414632961819,-0.07599514054300589,-9.528988445394891e-05,-0.029712638195994998,-0.07022188745834254,0.043859652892419373,-0.08487901941724918,-0.12295535120545938,-0.11953355507680247,0.06921983240189301,-0.3308992820503541,-0.05390252514379076,-0.16124894054055583,-0.05292416156815312,-0.024238602779418802,0.39153766653637545,-0.21043027226446992,0.001147507691934156,-0.027276644834418554,0.01778670657945924,0.020672436514927776,0.003361858272297389,-0.02323038933150552,0.004825109980475379,0.09630658837939035,0.04955695819173174,0.027668771492127035,0.08911971809553967,-0.004786971368642808,-0.04648361209385825,-0.06874445031575539,0.19016284181045565,-0.019741930909811373,-0.07171575561072929,0.0031699589651617783,-0.08193493326293823,-0.11669161836350464,0.03689350271918854,-0.00510147641084871,-0.05156992106517392,-0.051732330326269164,-0.0010467550809329274,-0.05783746667116374,-0.018005446306294644,-0.028298010778294844,-0.0658517013104871,0.04658450453948375,0.027553912590557596,0.021680483668476545,-0.01771108786370762,-0.061377691082121016
50.449649810791016,1.7382011413574219,0.0884773158138091,0.021720771596149175,0.15745227270832413,0.17218633218848883,-0.41537617603543436,-0.00932363762913621,-0.0526532368717353,-0.023061703822327344,0.009796142797017173,-0.21879450737820694,-0.19106849041928245,-0.03392948410665663,0.06510856698490425,0.09137722839900661,-0.10587561694355054,-0.09927390743532577,0.0146691921403887,-0.03234986210497662,-0.15354847446959421,-0.004707628676892606,0.025865172262281955,0.00828423108958629,0.002467982933267307,0.0008011642293031513,-0.0026721384106902467,0.05534093735155747,-0.047254856137100995,-0.013637559695165374,-0.05403259398845505,0.10341761939468304,-0.0389088854983842,0.06137357883415684,-0.048072422620955346,0.11051694588819205,0.09262364182450179,-0.018520547183553355,0.028146097323786482,-0.01196452302892382,0.011651428184255063,-0.027029211862089404,0.06551721710179353,-0.03180247937514424,-0.054213744535912545,-0.12505578352532062,0.0495085477972613,-0.019702655752155164,-0.03468689823204536,0.020376218018692313,-0.01795985618990001,-0.043564653013649285,-0.04930714909171173,-0.03065977381305337,-0.06844451115393742,0.0724596160274853,0.00594815135351368,-0.0365010625033155,-0.08508566186519838,-0.17583005020934245,-0.0965409747693114,0.07439247483074973,0.07704485007907594,0.16240471421839,0.32907232751357063,-0.0855036019476015,0.11248084716760771,-0.25412489456334597,0.2900354382711474,0.15759793417766324,0.12985257144015103,0.005125317646913617,0.06593910407655482,-0.059130469708602224,-0.048324552435059065,0.07072264414872446,-0.04439139189711419,-0.030413987364476397,-0.09060669548943685,0.017886789764850503,-0.12196782248088406,0.11566219214264732,0.018306026149837343,0.028554988771729066,-0.05122137686566791,-0.08180914848980264,0.03561821455018348,0.08665028353404196,-0.04291888329250898,-0.07725711039798444,-0.08607275713109369,-0.0022137161260829025,-0.06574746174366318,0.04879945571308532,0.04973299070214127,0.07069469806299916,0.005027486778254009,0.020054042316287945,-0.00504000848558989,0.02322166446521243,-0.04939308524902511,-0.004508804933475406
52.18785095214844,1.6779975891113281,-0.1433327369594788,-0.05446438723302611,0.057600791474079385,-0.10354813564870521,-0.17578547240131326,-0.04253623687850777,0.190981526287252,-0.01511125712857763,0.1254603895887321,-0.09513156958873914,-0.05575961254224651,-0.012435303022001305,-0.07189605986631672,-0.2575596375443368,-0.1122611729840034,-0.008096805605235367,0.04418122283785089,0.34212701183705235,-0.16898438131050725,0.09019347864685326,-0.08833687794919169,-0.2798917699662529,-0.3944513134463275,-0.10831687178958738,-0.06524759353786119,0.047112879162773146,-0.05714426050736098,0.11102151389727327,0.07744706434099356,0.16110212339334365,-0.021390985697373216,-0.014186640498197976,0.20794510602977662,0.01790833354278319,0.010670947375047299,0.14905296576162175,0.14662313542323382,-0.2877660714334384,0.03686752954685783,0.017460936069183988,-0.1821177005911311,0.022682919274973644,0.018299013593405862,0.13941405652171654,-0.07376775536896432,0.06131292190617844,0.044455501223947605,-0.0555317099765725,-0.19158555879862021,0.01625934706621969,0.06138026694525541,-0.07357589746769247,-0.05549249309626969,0.0375203383848591,0.037979138647019926,-0.04023406068572051,-0.005099961211084972,0.009530829223602072,-0.03564165129386575,0.029035504677376662,-0.017417993287820007,-0.021878069834188604,0.10779604910090188,-0.013259775427933163,-0.15043723905799433,0.013068819783150606,-0.013703569797923145,-0.10973718531228654,-0.06041081085560511,0.03837397699224347,0.034571089355468335,0.014727439584370325,0.060756638374674515,0.041854600426963595,-0.0012266102120948828,0.08769226258244806,0.06412609985872486,0.026001157436049107,0.06318458356010517,-0.07589259141956103,-0.0014980904322834275,-0.014306974933008657,0.0627486012196049,0.06490039759529259,0.12153276845653592,-0.028682920135319014,0.04589388380727666,0.03631411252784294,0.017966946575940237,-0.011892900949547557,0.011520978980896875,0.013662518084126614,-0.052310827196410864,0.023985317121261528,0.0013994758056589934,0.0701184392567427,-0.057346865853466544,0.0007918710645453851,0.047033164317189555,0.045061282479441106
53.865848541259766,1.6279029846191406,0.044868479273682774,-0.034272886259258076,-0.05637126571513783,0.03800432813482276,-0.06296487384241788,-0.19261190170662745,-0.24225361637973064,0.24047071770009024,0.20340660360435214,0.06397733303954077,-0.1509260168067804,0.1221160278960424,0.09266372425909489,-0.2534085100928915,-0.03496283240249065,-0.035048000959175186,-0.006107196545703006,-0.153930415572563,-0.009539683054634207,-0.07135552838218813,0.1770931621854978,-0.0032158496218497347,-0.012470706238244715,0.016891453194433755,-0.10797385559980806,-0.09230083154116861,-0.03940726525987916,0.009962877787131875,-0.010524202906693222,0.06073821426771311,-0.06138387630023456,0.049702931707532885,-0.02651070685848963,-0.028035831407539864,0.0009433936482571557,0.027817306161518923,-0.009675715687655665,-0.01709866513285345,0.06246807157691188,-0.03543698756539118,-0.15492972144046657,-0.011204560746928653,-0.01803823958059655,0.009228036093098425,-0.012765772764799644,0.002982748970708515,-0.030715968813066607,0.026914372620116814,-0.0019049404436818145,-0.07096611135582037,-0.041555421441559,0.0008917671358996593,-0.003457587834123956,-0.05206189756972434,0.023339530331321554,-0.004059324060389258,0.0981666549508869,-0.04602863603634735,-0.12487720917812795,0.004746128643203328,0.00494388243409258,-0.009492444513667627,0.19377525509904173,-0.00559831020256572,0.28753118011386875,0.06630770794439321,0.07055853855933636,0.04151352561316671,-0.1339950072105332,-0.05572780235269286,0.15712212107706747,-0.1376663095993929,0.01821330722458285,-0.04141803253999467,0.02396248116124145,-0.1458472832618182,-0.07771533587623537,-0.03273751996257976,0.002655456824300205,-0.0507820131274892,-0.03344726887039635,-0.09763999467612106,-0.03375026673637175,-0.005990289478522003,-0.1858329786428439,-0.009889512427373492,0.045677974479064805,0.07651808101311332,-0.017453559922691163,-0.019072701187995568,-0.04109631534336913,-0.026815092381856157,0.020715831584101597,-0.03030087990951185,-0.05081467298264333,0.0038586900806067224,0.003646033763939238,-0.009814863935449676,0.06071561367051137,0.01940268348653883
55.493751525878906,1.5281982421875,0.023814471247507428,0.014081896190706706,0.004967598248588719,0.07501200482790826,0.33961127062887464,-0.17775586814261285,-0.19442718070774773,0.0012121165565271794,0.11404319535834842,-0.39193285265804817,0.0009835901262058608,0.06034844792338842,0.006995120996441535,0.10597676843058065,0.14866877046376298,0.33951534280023205,-0.1572241717520941,0.03618589150406612,-0.18190605950289168,0.020380871725250466,-0.229883965163168,0.06408287579651077,0.07914190607754748,0.0014364734967650707,-0.03727210209244314,-0.1405438165707145,-0.04277320408111981,0.07115597401198465,0.024267928533533167,0.18665837493694742,0.000151467198489562,-0.06098940294982951,0.12923677342352835,-0.08113631165894161,-0.03906420314911893,-0.049509869013549195,0.058651585331351376,-0.01500421212934978,0.007487803742532405,0.0008869920867910939,-0.003683196590950569,0.018254506518491018,-0.06925798737668036,-0.0456526631343174,-0.014012452824229471,-0.01854908403921894,-0.09367200178495408,-0.08266389052206233,-0.0008102218055999169,-0.012521070284425163,-0.10970626496522874,0.0005052799384294706,-0.05742230190379485,-0.00184653732324852,-0.047130006783242404,-0.007981190907977505,-0.009901558006206382,-0.020036462786751457,-0.08771831910998178,-0.030278895059219074,-0.009680437317760504,-0.030145875522255627,-0.013671272588823027,0.17396502838450978,-0.0597679121098612,0.038332625532382196,0.08765833383884594,0.02229780905516877,-0.024294233627199194,-0.030199486621284754,-0.04581042349528665,-0.0014127498524065026,0.14777001213227098,0.05043169258282944,0.09866206420751909,-0.020703722302647606,-0.08844884073980057,-0.002235574460674017,0.14849479264952026,0.1155320549924323,0.06669995026272714,0.050292276724476156,0.013355576335732294,-0.005666440367358484,0.040542080563533575,0.10417020586238854,0.07509990674273655,-0.024978599716806705,0.026546585271433318,0.03148801946124044,0.12041302475513273,0.010533982863507771,0.0012328908596141094,0.018060966980371164,0.005130557642105872,0.050497884912287905,-0.09984975482932242,-0.08736283611103782,0.11624472065892927,0.05302100574502164
57.021949768066406,2.86669921875,0.030623402531736253,0.17421848591070105,-0.17758819856364694,0.19219543487806995,-0.06652700728335455,0.11286921171203187,0.23119588104995042,-0.08547152582156659,0.20525670921024045,0.009293493340378224,0.26849132802965553,0.04346317601153063,0.42390537879840084,0.09938731781538726,0.11034431545806309,-0.07732281741820983,-0.014409797238445071,-0.1210415944691467,-0.014934480623531234,-0.043569673473418946,0.05902741036198958,-0.016803266004549948,0.014299989748071562,0.06682350395354676,-0.02486489153217848,-0.0028441270491778026,0.09744171745844743,0.08501726233880705,0.04414282379179492,-0.020214905609195068,-0.008750008253662372,0.0017630756004385142,0.08398208537686219,0.02968201736604956,0.015914577145516192,0.06367442778871363,-0.0437996834425889,-0.028376902907235324,0.006865139434317148,-0.017001851493465822,-0.02657719776617944,-0.029311991620213564,-0.04753496650852915,0.03171766123514669,0.007052333912491974,0.002326325490084954,0.04361707239637681,0.031916610729026476,0.020079017691761895,0.02957081501180965,0.03432484250723629,0.0016729014329283642,0.01663477505364139,0.027995782520810412,0.012970442888311628,0.0014784639340667681,-0.013227452463644606,-0.004920913406339416,0.034648059728839956,0.04992769501990656,0.20270719946161353,-0.00013215036235063218,0.04318366175617941,-0.025871777342716062,-0.009123057185471878,-0.05867466501719099,-0.0035059746427413135,0.03530733907506861,-0.01572284619197029,0.03263799037914978,0.004925811270949653,-0.028251733035556212,0.027509774493996688,0.021692413318413206,-0.057874093664453286,0.109153408731864,0.17100546271794811,0.03253648099712465,0.07474987174720331,0.12796520458549884,0.03943983874933471,-0.021123837879293957,0.006851033102487967,0.029526081191837618,0.05978461347086626,0.04927258545186916,0.16806162479092943,0.022223657023051163,-0.06349398743202625,-0.08403077670342173,0.01378924817075666,-0.07647754534783302,0.04962516869272814,-0.07536817776540988,-0.08227942073656527,0.07022280268837831,-0.09024193731503619,-0.005223266025367346,-0.029143182796146378,-0.06415279560578896
63.04494857788086,1.5083045959472656,-0.046149644435755005,-0.04511316902240544,-0.2818982031112587,-0.02371823328175866,-0.2395849256243707,-0.2776776741200774,0.24502433394507855,0.324237674784356,-0.321262139338965,-0.14265738348025642,0.026271073118049035,0.07555753194153644,-0.37459911546061686,0.25072547505605264,-0.00733101601478998,0.08825922559856134,-0.04735077419597218,0.001111117307202386,-0.06309367541377046,-0.01584228759199947,-0.01941864544875367,0.011018209431606191,0.06799872415394145,0.004552416720740294,0.006199952407098459,0.02653365185569473,-0.07105887576855799,-0.01541733522968699,0.016688402043916795,0.023515630320444805,0.06324724055862378,-0.015634163736821884,0.021631146858976984,-0.007866890782639881,-0.06928619909654982,0.029047338515997626,0.017910025900821903,0.04197042614733672,0.02701596005000397,0.06824035036807588,0.09183537047360103,0.06429927990053513,0.042436256308642124,-0.05398946962654546,-0.09277087490262499,0.05466174891934694,-0.01908364169494557,-0.0026839659076214467,0.02760841654387273,0.046064220196016234,-0.03914535160864754,0.032557931831559375,0.07801540772905445,0.01130100493141143,0.04783717480581709,-0.03740568760253793,-0.3895151117396397,0.056225253829012514,0.3007839840496772,0.49617149418795314,0.5189012202024056,-0.04022676255077332,-0.41946760652067183,0.19488817168428108,0.048223111219830514,0.016630509694195963,0.0010887383933562643,-0.08181542549707305,-0.03924811608460761,0.020784206187266084,-0.053494144825026325,0.013753006142434701,0.010794944484054051,-0.1258887195099829,0.025894067796269172,0.0006751013004007746,-0.09340479598000327,-0.04917498262591547,-0.010430333586932287,-0.018991776653489806,0.07200278498804813,0.05532285783763835,-0.01146563488291816,0.03367269017114253,0.011905481372609175,0.05087692334324523,-0.0004981637503983962,0.009603872528682078,-0.03246779307197325,-0.12742994282033848,0.022976368233907127,0.03221126000244709,0.02702758214305446,-0.005633332078791085,0.058308335829348745,0.031778353906223286,-0.01874599544490095,0.04764319309579841,0.08816889813003582,0.11987087462735749
64.55325317382812,1.6180953979492188,0.1101986251356907,-0.13741626547643054,0.3312380976481419,0.004454308633904662,0.040984358159863336,0.4158114390231975,0.17224264424172187,0.18246720943655334,0.15608510641230633,0.030540557338528874,-0.13315653985509346,0.022617716006413865,0.014044361661455791,-0.029703395436021213,-0.021746792994838775,0.07163720764828503,-0.07741586883303658,-0.031238861797045634,0.000490814198911291,-0.007517256260657864,-0.012950377067007347,-0.06610378417829965,-0.041919622876074786,0.0021847845934088875,-0.004562618299207982,-0.0005651066932451073,-0.05940124751739828,-0.11741576927684551,0.0032143249368344886,0.027823497174001507,-0.03446126175478138,-0.02489435798493123,-0.05494109218088987,-0.025422260061589225,0.01871720043324348,0.02484545973255534,-0.013569036267012877,-0.09402214213000612,0.023064043542031974,-0.04210485181799305,0.006754846533909206,-0.0016587337606459329,0.001504264200789762,0.005983786800910446,0.016057573560896946,0.08368973344719079,0.01866683299446647,0.06290196540701326,-0.00396639459798602,0.01597021268366528,0.007906441638941435,0.006781202107699699,0.025609214179487888,-0.0028128565701660245,-0.09008699820063341,-0.02658378874523482,-0.09565241500778225,0.17487914175238176,-0.17632680656018196,0.14583846435408201,0.1620016355721395,-0.10074591523271269,-0.044007105867039424,0.05667073006731271,0.06296679135884099,0.035737213279174826,-0.008298296554512625,0.00012087664673053551,-0.0055352831797218695,0.003596617648407495,0.10085732863141642,0.00901369234256673,0.013982470524819811,-0.02573435436955074,0.046371699632268205,0.09770679304729521,0.01677902342712933,-0.07659810145862522,-0.003854650039491566,0.05315593978304345,0.027710916324769498,0.0058029759527425655,-0.11635742365477005,-0.17454522397652422,-0.07477263079729402,-0.0028459810274140806,0.06589113721639718,0.02409905164686328,-0.06214105891347184,0.017933423202619224,-0.0442606905500748,0.07227676855149057,0.05427265393257459,0.02461200920882466,-0.053404753739416465,-0.038957989310856034,-0.14703475092905133,-0.09361001870732338,0.06464638933110592,0.12674631460860275
66.17134857177734,1.50830078125,0.1290129357961697,-0.0574204180981728,0.07442790636582401,-0.3830225112918619,0.20439684639674688,-0.04316178783236596,-0.01873977293774835,-0.0024931192068613495,-0.03456108801335369,-0.1442779280437059,-0.11057662005623783,-0.10588323732199768,-0.04845005486842911,-0.05624079184374718,0.03184626113893058,-0.011396218052370219,-0.01237490176790605,-0.002191961367874815,-0.001294134296981695,0.012753252366232615,0.005289985140091124,-0.08113463743349515,-0.047614219382184304,-0.01170593397502534,0.002929249941937078,-0.009237268915786908,-0.0588535126503801,0.01713450749792246,-0.23595668379357046,-0.016781772817831844,-0.0551512603008771,-0.046814268183454466,-0.015718150557800112,0.04607693961944008,-0.016495490040399418,-0.05361359064074915,-0.10022684998058654,0.012026182497702374,0.07341354436941144,-0.013930855450802093,0.1302298426056606,-0.025795386178193037,-0.026524004348969496,-0.12965378844331382,0.024407825151728967,0.04308561708398916,-0.007012641366305659,-0.06674637139112508,-0.013437710309050138,0.03597335654663176,0.06634727916951201,0.07237410552526537,0.0005495153142565743,-0.044718424398242786,-0.05924719889943304,-0.055125752232572406,-0.04818656169596312,0.05414506406421392,0.12560923886679762,0.05963186666098015,0.0037323457881721714,-0.09803450346766966,-0.15810450161756875,-0.006955107766573779,-0.041367669626697724,-0.006027982808959329,0.06951439773115162,-0.0053179642078087655,-0.04307362257952587,-0.0411363835675277,-0.02783983702511807,0.052899546580642325,-0.036527942010395546,0.15063040004499353,0.01323562677289375,-0.09537858844003516,-0.11636150380829302,-0.01431448135699472,0.06616393336650969,-0.009450034663043477,-0.026402215299686935,-0.003470782358346622,-0.11895585495598064,-0.11170286937903418,0.03299782443376013,0.043669395957157464,-0.03388615020447919,-0.10779737428799312,-0.05601759409609265,-0.03950072490928772,0.07292298525859724,0.031616265638137055,0.012749503832198528,-0.021217520602742266,-0.14347298237576767,-0.0410726620690313,0.054931585438672076,0.020551172903167367,-0.057578339868423145,-0.24181575629653881
67.67964935302734,1.5381011962890625,-0.2239877368298881,0.09586697713452738,0.28503172631816576,-0.03308710469012274,0.17369157969333165,-0.16129337190895687,0.15616692488414707,-0.03451254406536616,0.19063599999486966,0.13333158710239715,0.12098717533902988,0.05750517146353061,0.14202810569411625,0.008876847026924602,0.1329803551169187,0.22161440935006493,-0.048445109475454454,0.05228173317140884,-0.0631631804172097,0.093019707172738,-0.014849621920928122,0.0964434356598894,-0.11103804458326344,-0.05794798021184884,0.04081127662250462,0.03660534117556982,-0.053975335338834134,0.0670280999073661,-0.03520300991825636,0.018308425798696844,-0.0795117687441376,-0.04018261434549726,-0.01210219390322679,0.0051571970590239945,0.10834690663426005,0.14904248437257428,-0.019157101556777384,-0.02610795513301191,0.05276203001043862,0.016642924968073004,-0.07586587645766618,-0.03555406810312019,-0.05828326689651416,0.12085400756306577,0.020338915412089875,-0.039614436122059886,0.03071136212983621,0.0006205570372805717,0.015057651998825455,-0.0001469469293184654,0.008978426783697478,0.002366194611087664,0.08139507687725332,0.08872836942971853,0.05380326477957953,0.0323326693010752,-0.222651357058532,0.077546124389313,0.09050606418139177,-0.08782948135732449,0.304424834706871,0.04004995994641595,0.14921739925730163,0.08942857766437193,-0.13211203837958985,-0.000706009435208696,0.20596228219640664,0.004563224520473459,0.022198924026915465,-0.05512626806156318,0.026377433138546028,0.0030754973131326864,-0.04747406566794077,0.07397597542573967,0.029447016693309555,-0.03550981356387836,-0.0818765517603034,0.0540526370314143,0.02822063523079402,0.011764984057501208,0.09490046463178123,0.0029817305868025637,0.05169761769658773,-0.02519856433323691,0.10232493860761735,0.06571003376422109,-0.023101167599614843,0.10696390696022388,0.0526357000868375,-0.027693945350966365,-0.006787880269311736,0.005744419020806806,-0.04178130358303795,-0.09856531126382442,0.026656013105829334,0.02102488664986202,-0.017243013574086856,0.06471255339366573,0.08557289721701278,-0.10577461836135367
69.2177505493164,1.7280960083007812,0.005754857357725962,0.040233757734153275,0.0947066479517631,0.28466139177360267,0.20215988001519095,0.06578942891441576,-0.0018892302168999342,-0.06694795599579545,0.03925717351137914,-0.08493371940625462,-0.10690869670033977,-0.058140497821325854,0.1423618327385592,0.12509903289768956,-0.014249698400053152,-0.26697671112309546,0.0234709496649247,-0.017508275839261272,-0.05392341221002946,-0.08588542597490574,0.04984346639448023,-0.12362890907583238,-0.019137343193557692,0.0035383332400796465,0.04397310780561499,0.06063264673805237,0.03228875836600636,-0.07660125734371502,0.05406649919114516,0.06145595393671835,0.038867038362119743,-0.015172617659296091,-0.0519220316398356,-0.008419195388063619,-0.15227655322980893,0.008074983079760666,0.0647986432666308,0.06867906954199338,-0.0252601916445981,0.020150333486315227,-0.03401534242969585,-0.0741873020203251,0.07235315864808631,0.012576192185675211,-0.007494102212185716,0.038195715929183194,0.00922685914070896,-0.027365807523080876,0.017113527432193694,-0.03678950249606559,-0.022441266445675748,-0.032094882924966955,0.012319761930849738,-0.037363640280630266,0.0022043295016965572,-0.009714583116656204,0.012668904171937799,0.05608435093763711,0.1265650198312461,0.018129552499740742,-0.0037771854497970422,0.06533222677640275,-0.03890390539416312,-0.25862759555263004,0.06830650641520697,0.005649038880598506,0.12006029917828225,0.037695344072788906,-0.02479146410576824,0.03411954440292107,-0.01874137070632656,-0.07956516015547822,-0.11403940471231673,-0.007319823581912233,-0.046183609003420945,-0.07985133442391976,0.008194031273577233,-0.049815978066717,0.006126479692298146,-0.07573628731814379,0.03423450700943337,0.01663694623856333,-0.07525363655981594,-0.059572945650723186,0.02121272675956641,0.055276565188837126,0.059714278479147564,-0.0030684301721233403,-0.08683280766048386,-0.06838121775007493,-0.03972850091896139,0.04661185507882999,0.05957115496420553,0.009750330234002184,0.01828996918084802,0.02612727587257197,0.009724905924371294,-0.051717174900868954,-0.03782016396962769,0.08550910889773845
70.94584655761719,1.5376052856445312,-0.054270324529705066,-0.027647055716856633,-0.07353366696778921,-0.09584652360986984,0.10875923681849836,0.04098388776679823,0.1179641253423937,0.26914778841436104,-0.04284315618222689,0.14480387134515021,0.17993500580134886,0.3020754568720051,-0.06842339364263483,0.22578041765818618,0.03907270028278661,0.1755093704968792,0.1766214408941942,-0.11324847412047102,0.13161375263567907,0.1814135906738661,-0.09090121646627748,-0.0625713652844545,0.08819863228842309,-0.10826886876215817,0.07156462310514791,0.03482558990572972,-0.04708214156627595,-0.13028148154888702,-0.0423940799647783,0.03757961520217549,0.009845723925365119,-0.01398191809336194,0.04998380923115545,0.11089317093629639,-0.04423985693497206,0.16934611431532826,-0.12348962996395323,0.007325245820591811,-0.050604842889816135,-0.1420530884280629,0.03927492048748798,-0.2271841607413667,0.13404657599266862,0.03392785985456105,-0.05312462104476517,-0.04959865525660756,0.030745366169938726,-0.037861439675691694,0.07751550500344209,0.015861654658941352,0.027693278079924492,-0.003108023738359474,-0.05515086611696309,-0.0007788044114196784,-0.013551813662592328,-0.056384557399813816,0.0030131384454046718,0.004075081723511927,0.029209495165108935,0.3130750793904814,0.09819102678347404,0.18676641439809824,0.17832577217482398,-0.24609608366321345,-0.26474792613919934,0.2768501165603517,0.173457482007091,0.0397388088841352,0.021115394167037973,-0.013224598588563176,-0.013214779214646828,0.008540889924650586,-0.014827207709481753,-0.046516231999610594,0.036635434957570094,0.046209584331368084,0.08218198502050714,-0.05222555125225893,-0.052751121413120966,-0.03456843463147048,-0.03186107517383044,0.07310447280204647,-0.0361218157804642,0.09524161006727146,-0.016971975958812856,0.00010199005008791617,0.02933689073111513,0.04081615818498687,-0.03319088706186687,0.004246534460730802,-0.015527729251717595,0.022108096526641512,0.015193904208607924,-0.022077082475247922,0.008421465120027845,0.022580616825737893,0.01846801411297805,-0.026496022000103345,0.00038747231097209056,-0.009638374027083903
72.48345184326172,1.638397216796875,-0.01122689873410436,0.029845471658612836,0.04887714629612183,-0.021048130383159353,0.044740039057170305,-0.24215586558561247,-0.08355002069011344,0.07619724955516735,0.03641424043010904,0.08754253653476364,-0.01096469497893894,0.010142947367642834,0.024164102939131973,-0.08013500474080681,-0.022477134700775288,0.11453963588383007,-0.03663497088926236,0.03656856329497588,-0.05115784043122061,0.038530771363638916,0.003847617803982431,0.02525880954419079,0.06362919010841661,0.010066472845543458,0.04258611773484184,0.05429535922255606,-0.04260498781964395,0.03489977398495051,-0.0077416052806873765,0.08824355242682283,0.013577437446405922,0.03468734735713287,-0.026369676261925514,-0.03213009916851034,-0.08506777788630565,0.010973952331540764,0.003933037367580737,-0.006261987037236688,-0.06060252379241729,0.052791515118564496,-0.0013048041288619056,0.0005074240059709208,0.05279160697320783,0.02140462967005795,0.013012632575129149,-0.04652323558107412,-0.0025740005630817773,-0.00013677653435081562,0.00691103411141611,-0.04957661425063266,-0.11017837278425854,-0.12369042723861393,0.04977132885483846,-0.0038207406845214703,0.03129983311976604,-0.024305280907024853,-0.003384702210339133,0.013377638283382055,0.09653510077090738,-0.05114769488965779,0.02015823899818199,0.45849246526618725,-0.13691673115577382,-0.061175749282696555,0.1275861660026597,0.0012799102478464632,-0.0032156892900777425,-0.07086646166065246,-0.017639837889161437,0.014061478845924402,0.02964287902278354,0.01626131895513394,-0.005012846566259542,0.025197578542141136,0.025294822388924908,0.0853251197404157,-0.03496359083384066,0.04213840289109168,0.042698809904257895,0.012617683431835034,0.11631182878911323,-0.048170157584322686,0.03141100891352233,0.05330586098893687,0.055612106083239354,0.046926618839014875,0.045104745301406596,0.06839537165857561,0.028748394031470892,0.049381919769929776,-0.0149567228499346,0.06689122191488062,0.09271342634134086,0.060594292563707776,-0.08630558562637042,-0.3060344433181938,0.07897433086035568,0.0266974062301786,0.0410827726903864,0.026826481423913806
79.42565155029297,1.8378982543945312,0.05023282110477128,-0.00438167662287972,-0.005946668153867118,0.16849080002991798,0.07111000521818943,-0.290989905685144,0.21646325389780327,0.10909438849282818,0.12242246815942823,-0.09646125114598314,-0.23565211778281397,0.30700001389694187,-0.152970619629115,-0.2279491563186934,-0.15386389688073532,0.04021254755405039,-0.19002568591704755,-0.001194198635351973,-0.0703559846324884,0.05683158038810823,0.14392367409290757,0.06897929083047961,0.130728608390296,0.01256602188554571,-0.0324876724583807,-0.0002655808962546423,-0.17542529291429554,-0.022075790492206426,0.06378778804454532,0.0004671481830948259,-0.1023732407751243,-0.013525811203273251,0.006054857542860094,0.019816679328928825,0.003970568110988888,-0.008152234087518626,0.01765071647093916,0.018515070158944477,-0.07652536180576033,-0.05324673345381481,0.06851804412553238,-0.0003644190748841635,-0.10952740774066941,-0.11568628272741016,-0.13600878144689735,-0.12421786395598532,-0.03624513179944096,-0.07236994655707885,-0.023696374071803115,-0.025704106786474806,-0.06344790542733995,-0.04040709817193861,-0.006241822635215882,0.027316086534973638,8.130791912928123e-05,0.007320903747563186,0.003950505538627782,-0.19671171938897614,0.024317275255179554,-0.08308308662725167,-0.022803094861589122,-0.07439058237573004,0.01424320374479716,-0.18309588000474472,0.11371027538669107,-0.18483227258696466,0.10635682816815677,0.2857373659943978,0.05429010851864186,0.02782621683833648,-0.04603312720974193,-0.004013978486559039,0.09249198552425061,0.06815455159158049,-0.1501993671221527,-0.2388234517537808,-0.028569998227083605,-0.02102349487730868,-0.034195980605464166,-0.17423212609757396,-0.18655631826259475,0.01241394546249839,0.07749710157703946,-0.03191804018200235,0.05450656551271894,-0.027235734091053086,-0.00857920381420261,-0.033696092832340416,-0.08007069159673601,-0.04543498522334377,-0.016358093966755263,-0.014398844792594312,-0.03573691449727157,0.050582320543643304,0.05195520255217984,0.020308099013571935,-0.00526126935031719,-0.027198852665759568,0.05080294298825526,0.045394559840070355
81.2635498046875,1.6880035400390625,0.04739993734260131,0.056782980879827395,0.07587279999971712,-0.04293825556207649,0.03826168391411653,-0.25231560943154,0.08752227877330446,0.09451813658889313,-0.12503270491722004,-0.12151754593009832,0.09513507876087468,-0.23403621669255975,-0.03897349057931472,-0.11024336722402148,-0.2245593120840977,-0.09772943809667557,-0.03299354920228971,-0.0005059088093754278,0.043814237502462786,-0.014965074273525494,0.027121772860943964,0.06692912924158011,-0.02532021711438994,-0.021002977791156348,0.01196608432158607,0.005586321347046447,0.007118091806550225,-0.006243661923855025,-0.049850207686145905,0.05487776737997401,-0.14402604056438265,-0.021032595345554524,-0.02257040428969294,-0.028939586738755498,0.05182100293560375,-0.014952873611498649,0.003331940485910337,0.024396230742637092,0.02990852755157136,0.02771819642722866,-0.03931305335930832,-0.04124182273862849,0.040928192528460444,0.1395620063943866,0.00798637462248502,0.0551588136142954,0.03757255042225384,0.018150669084922466,0.08294772472523594,0.0151586500744152,0.04825398441954834,0.041876242404543886,0.017021044806793607,-0.03923795886312356,0.001096556481628414,0.06452666559339752,-0.01381905322053704,0.026796874367770465,0.004267856090169069,-0.0005160872035772507,0.1155290443841745,-0.08177276882307219,-0.005465761029847679,-0.16400085952209073,-0.05854174728671281,0.018157545245628143,0.005952738986796187,-0.09440725016284174,-0.008207616590520089,0.05589907454726614,0.07311857504177884,0.00031103071204175174,-0.004660745856450618,-0.04722253025449895,-0.011794922490874979,0.05200085020987137,0.07418873822256129,-0.006371680390838693,0.16661315512756897,0.11981372018769476,-0.009720018480570886,-0.0025170900230826734,-0.10351332255935378,0.06200253281009248,-0.02732105587757006,0.18319999618667843,-0.01127253820132891,0.003385112505779171,0.08271552010023428,0.032190001399456936,0.020779263570888083,0.02145838369237997,0.018932858593694195,0.07256652563078839,0.022248891625112413,-0.007326704823487457,-0.002572162341394244,0.05862154309429014,-0.04432636296122702,0.10770140328462295
82.95155334472656,1.63800048828125,0.10809859051390311,-0.008605613314639705,-0.13851937316511842,-0.044872665653435756,0.06347948808294245,0.06552754319249622,-0.022329872909985983,-0.0610901582391887,0.09410532236073613,-0.1187860717522916,0.1658155299344568,0.03375227886390775,-0.004274976463336675,-0.034736626191148715,0.17902834672244283,-0.01954395727179807,-0.014675267468691317,0.07044062175003694,-0.04013797821718727,-0.0370617855703788,0.08207641276361263,-0.021220473964296646,-0.009833361879115939,-0.027171134126283233,-0.04066999754706286,-0.06749333951955268,0.009625486643456058,0.02264740873309563,0.01078460537049123,-0.006272738858190727,-0.1224058458653659,0.02033990040944289,-0.02272296693524025,0.002415305637013097,0.03861035467864344,0.07601931087090211,-0.03754791670073996,-0.07478747757029298,-0.022951891818721034,0.014218588804097246,0.016203920692766785,-0.002817764464087814,-0.0022312361505343594,-0.058878767465638866,-0.05653050041815601,0.03663362272784727,0.0501107114976473,-0.004124783171384674,0.038223206022173065,-0.015671830767343478,-0.023703601979490462,-0.005168462024016435,0.01258419714112326,0.0062217697055630145,-0.07913447746826459,0.011900411453815249,0.0852191948991487,-0.09878348841018196,-0.04601211469007118,-0.07784915883000856,0.10164939574600414,0.020068936845682082,0.024677318819884213,0.0664544169868567,0.11159733682895749,-0.12641749866727287,-0.02717324520310148,0.04500020685620465,-0.019783751692776207,-0.1116201901911347,-0.07528774592499364,-4.8133368828723756e-05,0.10987612138878936,0.0068673993925380435,0.07727763884405509,0.04010783628916887,0.06990118854751273,0.02511549982269007,-0.08159680354306799,-0.055103896504337745,-0.12050390892645346,-0.026776992384502523,0.10051408207669124,-0.05265000150289644,0.03828973595497694,-0.13598383247362003,-0.04021602026292571,-0.012403133082898529,-0.030016964000746965,0.0033643776499448245,0.017083281161602716,0.0480430874222749,0.016518116350173768,0.019707099430403822,-0.02475272197116484,0.05152126579510572,0.025286560568743663,0.05362575187753595,-0.12345425534152539,0.27345413902390103
84.58955383300781,1.5681991577148438,0.17188174737228606,-0.1759748160614717,0.052636539131480864,-0.05244588430428859,0.019500680962939096,0.04603698938128459,0.050606970066872356,-0.04547114610420225,0.2797127146801404,0.11750600101109326,0.005391063308607448,-0.06661058592692902,0.11663416641993388,0.031632911153102926,-0.11080702010569675,0.020889268921674753,-0.0376644133222199,0.007545690198579311,0.04382241360404916,-0.08297188922517368,0.04068709251622092,-0.004921614173545933,-0.03437067874489085,-0.03524590380942315,0.033516688903168654,-0.0008761638391117238,0.03495947658568552,0.0479708506545481,0.014017450038799794,0.009477688387138564,0.061285365005014664,0.006545717491405414,-0.0103223929583303,0.007364605708438768,0.027936822639371493,-0.004123059854026893,0.03582489336718458,-0.04453449297558844,-0.045339904471946066,0.00859330064040098,0.027947447523666277,0.06400329916382139,0.01166022780578449,0.11467755075311135,-0.011990649619626852,0.04306628411315551,0.01928511066106445,0.049700900294138775,0.005645744789605835,0.019252416332035584,-0.004756717246904985,-0.008973122047475609,-0.06296267767907356,0.02744255885117848,0.011884073985527953,-0.001414054068285408,-0.09546275888550194,0.06258597938568075,-0.11750837918539699,-0.053632448329672504,-0.11809974406036497,-0.1058780268879163,0.04037867392424057,0.183447131966383,0.08988458224379493,-0.042422427826802146,0.04051520926340026,0.038207795414215935,-0.03073045991114338,-0.03408681662909579,0.056636555974782544,0.014752687610481954,0.07075637756703762,0.09537852335428001,0.017225889177228983,-0.0942036319711518,0.009132745835389243,0.04222146583550144,0.08545402554440418,-0.0008357772074869236,0.0038333826013777603,-0.1333372485431541,-0.15859183550867004,-0.0068541724795248855,0.09128399805407249,-0.025718478224548567,-0.03963678482058991,-0.031827901466933824,-0.0461736323873798,-0.02178981004453358,0.021389001457413192,0.0037333329979988617,-0.005102289676993743,-0.02506096580060558,0.04615077234169425,-0.0071055550141386255,0.015896907191099204,0.003624637045646502,0.00012768628740235033,0.06283456140034023
86.15775299072266,1.6475982666015625,0.06437557323625828,-0.027130605077360957,-0.33488341355966417,-0.5698579587789266,0.11627502199727124,0.15342749837692685,0.15068278214277767,-0.017006973746494475,0.11290548288202965,0.06632221353049612,-0.046321257076303635,-0.050436343686074615,-0.027023008498750056,-0.08330788052669723,-0.008605540092191399,0.12989441909906738,-0.08876183026274359,-0.08224482200965626,-0.01287435955572152,0.12157737919853111,0.04736555336593712,0.0005695704555340881,0.0066473065570145295,-0.004150884858676751,0.05867189870632929,-0.031686659573332165,-0.008368876840180117,-0.0466528880459854,-0.03956480239104576,0.02280822947393227,0.02137386641551435,-0.012935670638047132,-0.02163523046008845,-0.012048354206375794,0.07599364891088149,0.059538076773150005,0.018126099453972703,-0.016115919493759363,0.012716595511132607,0.04917617630612275,-0.018737888488398188,0.07392722621526894,0.05006672801017939,-0.008194983153054888,0.03986892562882254,-0.013068163625926249,-0.04828350405458939,-0.00773891331440158,0.00456965523259993,0.0011598490762485777,0.014548648343599957,0.012642930034836884,-0.030829107346122916,0.0008093711766242552,-0.01068032910284286,-0.017028644920237163,-0.003961768010492187,0.009862374777516489,-0.002917789484490295,0.29584085332707083,0.17831216816797557,-0.05428925361743572,0.17085522973949546,-0.042663074442855116,-0.4009612533585125,0.06771470831530978,-0.020124980701172093,-0.14152788726664214,0.013571700374671581,-0.045979272443643686,-0.05452246427846996,-0.06454743166258699,-0.026382789614635763,-0.19297775151371854,-0.1043451219248387,-0.06624177558314277,0.08975872000781432,0.055967747209600995,0.012255949030774224,0.0023306435343393222,-0.038892346397794895,-0.06388698372495535,-0.1013651860532991,-0.04374423010337951,-0.05815818126577272,0.008455327902309736,0.0012647089224417784,0.0025171930131640072,-0.02451446401112079,-0.047194005733813466,-0.015585819904197629,-0.0011381340128119779,0.10239110136999888,-0.034736571137778435,0.05093697116493803,0.02851985946473668,0.035064776717342434,-0.062031752037798725,0.01619322929727779,-0.013159278368348622
87.80535125732422,1.5587005615234375,-0.015593364127643155,-0.019569340424320826,-0.003624592787557099,-0.27707867206817116,0.40457714320427524,0.009096716634522009,-0.02845310185422959,-0.050422551109905366,-0.005005410460518852,0.04078702144172162,0.008124072016060649,-0.19290271844260282,0.03710112381628174,-0.0517219587168725,-0.019627600410641113,0.04110638861976443,0.05976521727501623,0.029186351671460258,-0.032238947154690785,-0.005966145420957321,-0.0007494480457534441,-0.07005513224473775,-0.01999005250107022,-0.014517239827807941,-0.0072336708718013076,-0.012618566530170136,0.06669023414499345,0.09206565030855017,0.014226331832480118,0.08520001594337356,0.002359228146608802,0.02015721007422279,0.009881120628920714,-0.0008164128295666815,-0.003123291296554588,-0.012734630792443361,-0.0010706449445684852,-0.07357491926578885,0.0882482083006314,-0.00017805837836159025,0.021303797529098903,-0.04081943374363338,0.06529101229956832,-0.03245568502222365,0.07001207950508394,-0.006674713855089323,0.007576806599378785,-0.060943061079811595,-0.011999491980411954,-0.06848291667296225,0.04002544058058391,-0.0017116057065571402,0.012928085201274671,0.02298874767622531,0.09275990870847772,0.050392805200253125,-0.002073787699094499,-0.03266621245117562,-0.20715464676087725,0.06633361777271088,0.49443709676311043,-0.03849777670430363,0.13038964333495076,-0.03633827432588879,-0.06041157158807679,-0.09475154409622678,0.04795353675939754,-0.0844987204614436,0.012450236960333656,-0.04276233856299832,0.04913333255622267,0.05281598511278524,0.022200769539011418,0.010760974499743827,0.04155292759771347,0.02907283491306042,0.006612909848495956,0.02212050832923383,0.031097944146219598,0.01577881998572006,-0.012092060017186998,-0.08519443086640131,-0.008217253724753053,0.13543607845223224,0.028152511130197275,0.10891639047997803,0.03985990257854159,0.06326914772580008,-0.03863266064058644,-0.027190513496686986,0.03915676074469939,-0.006748594576500245,0.07496010644536918,0.016507289749192473,-0.0257644961049419,0.04592157021575817,-0.024754476406383355,-0.006101855096188367,-0.07805665281105854,-0.011406072483780838
89.36405181884766,3.2957000732421875,-0.00918707083372508,-0.03450346467436223,-0.06546538354506384,-0.29601335815221963,-0.17817521694095734,-0.01901603595883894,0.08506118294885581,0.1469782522894942,0.11794444321771515,0.014962393354696638,-0.034038778873614436,-0.0884135027331765,-0.15384292587133347,-0.132540279408493,-0.1367808423250134,0.016404963472294316,-0.022008155997735108,-0.012564391556009483,-0.2211129475688327,-0.1442401678521733,-0.057155580619635715,-0.036253943203670785,0.008649487845691091,0.04629927238175728,-0.010767758970878727,-0.1273286598665477,0.005825099405889777,0.005252297409052038,-0.006959320707977965,0.0025880086402627787,0.011139314432711387,0.09199227002336996,-0.020848332850071476,-0.03895430395208596,-0.040528104630336084,-0.01393969144236302,0.023678664097497942,-0.003927785036888454,-0.003812037290420862,0.033893011114408914,0.04848885504464621,0.14934198851152936,0.024952733516615692,-0.010451602566081105,0.08840312888028826,-0.005165308883690894,0.02167961744341454,0.07151557100911228,-0.008768103287875162,0.00011138722969631916,-0.0339222403762925,-0.06858488756201715,-0.13212329658791708,-0.014869975279529192,0.06891376873158547,-0.04650289085466527,-0.011911297915207984,0.017889008748916125,0.025542964955083434,-0.129287379306961,-0.10093774432366491,0.10462780806412325,-0.12738110717087264,-0.032169537640084865,0.04391509294809767,0.029927454072634814,-0.01909508434146114,0.017968105872645176,0.0028788620427620763,-0.043641379956931264,0.03159077881881964,0.0016011382724867643,0.050816442696742875,0.10765512395785978,-0.09471472571186337,0.06540916174942797,0.01468609784787563,-0.08873648855660056,-0.08861273545038244,-0.03919505784028124,-0.0826810961609823,-0.012176615667665074,-0.00014598307104981374,0.06253117904818223,0.0225059771178494,0.005835698590738621,0.0241170172523923,0.02296879145384785,0.12376427794090177,-0.004242754814726146,-0.024321109480927323,-0.04499819195181862,-0.08478511379879089,0.13459260094131129,0.03459117816878211,0.05348512852287199,-0.10403141539030039,-0.038625419534761694,0.10837046215859548,-0.050328920155022425
96.02625274658203,1.6778945922851562,0.01911339653676733,-0.17520672620222602,-0.023482811454504995,-0.17434218373804886,0.28029190958601774,0.3013817984776747,0.1310208265307332,0.04038888438680385,-0.017999593028867666,0.13016484169523207,0.5025352907636246,0.162061473463841,0.34478479996671124,0.3072942862507436,-0.029059476787294175,-0.050863875541341946,-0.0010527346922162178,0.08579295209391931,-0.1813052975759761,0.053430791827642724,0.1059393093752349,0.0053668794878449395,-0.0014287444371517775,0.061543385271972305,-0.025813351975950825,-0.05245685065598741,0.008831264000494925,0.021683036964432533,0.11157212999989183,-0.3410970784678508,-0.016184978796269286,0.020695398699535145,0.0458537396455402,0.025912556253779237,0.12048314681809297,0.08457629426750285,0.06076408364228788,-0.047696659186997295,0.016629263450687798,-0.1722872845676608,-0.011328895955912813,0.007142518001341863,-0.005470337517290006,0.03150030755562222,0.03214985288735676,0.09544805544065121,0.0028169225507210655,-0.10970436712878362,-0.039773376723586794,-0.07810528982580958,-0.0052695252210350485,-0.012307434789333249,-0.05118574243194632,-0.16602693077471886,-0.002590037528833986,0.02477252155222042,-0.046498435931282764,-0.05769976927535858,0.017383441643052902,-0.31592434605221165,-0.01018025209693192,-0.09568108901492371,-0.42133874038722613,0.13744470307974305,0.13458131604651363,0.019457280544263558,0.01543417169269836,0.002656787099107426,0.04011898292659482,-0.00545662270153667,-0.002763001403589967,-0.07093154033289549,0.032483713265445496,0.05580124200598904,-0.010816225212200267,-0.03643419142232496,0.03922714124107686,-0.07042635581980006,-0.07161990743176158,-0.041383322951252466,-0.10164746864607375,-0.0797017603365927,0.0292083854480822,0.016158233958954493,0.04307589687413002,0.10935565235265966,0.0451193189751912,0.0014109378147160612,-0.035054510154187285,-0.02579920638633851,0.03778994185944572,0.001416014503443599,-0.032716010809676836,-0.0417925870772986,-0.08602045361665467,-0.08034609906327067,0.06040437320965662,-0.012026668309915603,-0.014805456470878848,-0.04038464506605275
97.70414733886719,1.7379989624023438,-0.0516645133135635,0.14457328955731794,0.14446782569048863,-0.0059814242712993,0.006136609638638126,-0.10911422894485799,-0.4718488657763226,0.24388327210880859,-0.044844288910954794,0.023532197590694425,0.052310453311444946,-0.08746762619485286,0.06581560489459197,-0.1127914684837189,0.038975833518213765,0.04130255860869457,-0.03381443215994654,0.020364313878832793,-0.014847509564059457,-0.015050666113903896,-0.00800960590624555,0.0005574962501173977,-0.03291118510939795,0.03060443656108255,-0.09766860257769881,0.07122182149619338,-0.004170121617154063,-0.0004539413795258651,-0.05307554020085242,-0.007846166766848395,-0.014784609150074143,-0.09901769876836726,-0.17451691902473396,-0.06129154669464217,0.045215431281733526,-0.08626924794374571,-0.019029840203934376,-0.040300423749686634,-0.0023637214513046734,0.05549259697418038,0.03891283318813507,-0.013958071768405071,0.09999034188307107,-0.021244740862940092,-0.018667394668360204,0.04721702739390213,-0.03385981301907556,0.06196061139414904,-0.02794772913264061,-0.02048313750814992,0.07828519982814709,-0.006966352121553788,-0.0039388780085289786,-0.015168531067028151,-0.0030017735411472096,0.034457211670210944,0.0008914084018296302,0.008399804235159881,0.025566457250480613,-0.20905365919520547,-0.05172782902480521,-0.005771083330001652,0.2725211921858873,0.002191559417727404,-0.16482676820706174,-0.3315074378020112,-0.2986422875236219,0.1863147957273721,-5.684775080051774e-05,0.004569477088920556,0.02559063339104324,0.056343416171874855,0.10320590452222807,0.026277217763014546,0.10353874035673641,0.06525265155662872,0.04937976101259636,-0.08327642017765484,0.07318324622171508,0.011519358079734716,-0.09383766738468127,0.05767285041245206,0.02589995111647948,0.022570863355348768,0.01328907536116914,0.06973023123840215,0.05022606575942251,0.04111702882386356,0.03781558641127215,0.0603669554099783,0.06509713953382486,-0.0475310183989366,0.00023301964369464977,0.014345680876383477,-0.09778661828598596,-0.05861775234688507,-0.017952723079636676,0.036741314358526525,0.0479376638034641,0.21924594830682156
99.44214630126953,1.7780075073242188,0.26043042897354846,0.21166059193275735,-0.024333262515911405,0.1565837229552015,0.062288785290562636,0.11043751127242907,-0.05114115898266121,0.0033250659106207497,0.4240565126501494,-0.4012588135667094,0.014357951114891266,-0.2016012557389699,-0.006067509736602375,-0.06585481712713637,-0.007323529805702687,-0.18542861391205925,-0.03074993169622633,-0.041192891318698695,0.027216245087195917,-0.023463467927416284,0.036444961996926935,-0.05526612731916046,0.05494263085503193,0.0422030014654561,0.024507823608393278,-0.011177176588710327,0.13921288771820614,0.17121558008179225,0.055774770190281577,0.29498106322803086,0.10023260262497248,-0.09901430847370613,0.0427169276557892,-0.12307019778089945,0.014740981202790457,-0.001915714424160769,0.01494576977066897,0.04247972402722773,-0.08023971710314551,0.04995650988539082,-0.06475931244148911,0.016589543557885295,0.10783269256399594,0.015019476952381473,0.0642162728984778,0.005882653930320555,-0.02608428030282987,-0.024437741928836576,0.020457313359781966,-0.14607556018994788,-0.020164704239177628,-0.08784280903192054,-0.1064492858842046,-0.0014466931653607665,-0.02212947121833405,-0.07037073153396481,0.038856727756878436,0.036686469001064856,-0.1099798949406236,0.04058584246160815,0.14695639281654327,-0.01204849952995067,0.15479428733571163,0.03601388458018548,-0.10067877997768084,-0.15839751690343312,0.0363242907475993,0.015620721185193975,-0.036193166286502904,-0.02592008064105833,-0.0805259507335002,0.04131668081190464,0.09524803389701347,-0.029689359329406747,0.031084415356655376,0.0013129760552650432,0.04051441568712645,-0.024626333308025383,0.0471136634804476,-0.03062702962170679,0.034085458789532376,0.12860492453354394,0.02827894056284724,-0.049239155122591374,-0.02986889643516699,0.09541392440725961,0.13084233926542024,-0.0008153728531809461,-0.009056849028645148,-0.019723711588922874,0.006300303812544255,0.0009504655465176178,0.028800531388671217,0.01654811534726592,-0.04876657840631976,0.041856010076311234,-0.04211203221890637,0.03702404916347213,0.03905193481796921,0.04027245540831557
101.22015380859375,1.8376998901367188,0.044279821698882504,-0.029577644499622663,0.1609306315953799,-0.33518593642401856,0.03294079792335851,-0.0751531769680617,0.02903729785652319,0.10974315976509247,-0.17331425204234385,-0.38261571321594956,0.012144100351581285,0.03808371876944651,-0.002559388903264348,0.04656018748349347,0.07169380179971788,-0.0833327024500296,-0.07280997229930973,-0.029616526147364326,0.054140090156033535,0.035609929356291425,0.05791740882732033,0.03894409768418178,-0.00034576106672872377,-0.0002818527612530272,0.0004926623083353337,-0.007800341444699544,-0.006599218122196271,-0.0003122172417111797,0.01024402432920144,-0.002835355060979305,0.03769164748581496,-0.12128252294545198,-0.021897944704900984,0.02853839413930373,0.003667997960984469,0.00560640323133946,0.014555149382930276,-0.007973097060944942,-0.049331478669322075,-0.07022544414702647,-0.01813810532832471,-0.04027028812445193,-0.015532037520874294,0.0319396155259024,0.01110838726239186,0.027198749176008598,0.0018510750125092556,-0.0002067375206599718,-0.004304319336034729,0.002850804120737953,0.04625928124201339,-0.00319656806259109,0.04984732391160298,0.019827293212235256,-0.010995125306258763,-0.00801111354099504,0.002429985737949003,-0.09896682403724356,0.06791907888857565,0.0253838266107332,-0.020488963513971392,-0.04204842358724759,0.013160503149923352,0.03579750011860181,0.16380638770782807,-0.009132837886239281,0.10514238651587816,0.23729489191659742,-0.03778750287677109,-0.06706538390294005,-0.00044562840734104023,-0.010786259488710918,-0.029462623250969485,-0.029767561580222486,-0.05316830869958621,-0.019483082399743834,0.053351067317180284,-0.03823001349822005,-0.12759418678246925,-0.007321472049086301,-0.06996990075547112,0.008090704773294677,0.018275848069894192,0.04986364397295073,0.009431197298673161,0.029706606206210365,-0.026440792451073114,0.035503552596975047,0.09207557338122269,0.0783019863203625,0.06706697852347027,-0.03091940182581382,-0.02071886644218416,0.062000573131003094,0.04679141007738566,0.00576554232957598,0.0351977816692872,0.044369328321237175,0.004049759902616217,0.09259373754154519
103.05785369873047,1.7280960083007812,-0.045038811916457,-0.012559940825662747,0.059040747818498995,0.0018367506748585014,-0.01060179672434813,-0.006815287145489699,-0.004012478664907022,-0.11078353967470042,-0.020565719014368246,-0.008136457646650634,-0.06442000705573163,-0.18539547084053115,-0.2766868899716906,0.4533677497630739,0.10106731850895578,-0.12078740670114789,-0.17180332467431644,0.31252756495710415,0.10038858791160107,0.16465979797242242,0.19681295028194257,0.0016125410702620964,0.02380921511072753,0.03053361501262692,-0.040215418255080626,-0.02360321003333756,-0.011304234357133488,0.02057334262201095,0.062190317213283546,0.09815224547181174,0.06249366541136881,-0.08883984561647812,0.031645343620299804,0.05277880889965966,0.01533510885896947,0.032551105461746575,0.03858042864954394,-0.12609182103018002,0.010058710218768151,0.09093323911424381,0.03251723036841896,-0.029478341355617735,-0.026083657501856698,-0.003966354767607367,0.058731318724932154,-0.02461915756988333,0.01760610638733271,0.007020437940652963,-0.05126524641308023,-0.21304744183640273,-0.03821313877363331,-0.06076772056752788,-0.003978150170055287,-0.020047601648444314,0.06986037024685204,-0.009415961246643872,0.031449203056756796,0.06201685195797649,-0.007469714904671759,-0.0013015081663745771,-0.012183597746590922,-0.02202221714757029,-0.008027890631648063,-0.020048911932433633,0.23793995163095144,-0.015840853076791908,0.01637481426456537,-0.09784020254698589,0.09172153149233596,0.03525989021033366,-0.11014188211777552,0.007839882968821515,0.09729730556910053,-0.11194451549557734,-0.11715495731010027,0.01965627663571447,0.05138195203430438,0.060949856448275,-0.021177662065581238,0.018832074436238584,0.02993431229633554,-0.03141530831070559,-0.0663115242591932,0.10482905973200923,-0.030028479387044914,-0.020987607415539088,0.022372731103031958,0.0052316031565126375,0.008141421982617594,0.002298818858709667,-0.03922131578526159,-0.03955696640771601,0.07550936461182522,-0.04123924700641378,0.04036124742238942,-0.03949032686396939,-0.02016337675896317,-0.009868093106997676,0.057456527716294996,0.08282028381875432
104.78594970703125,1.717498779296875,0.08705990564611765,0.12809846090050003,-0.37954368150548706,0.2624915110507827,-0.1785987227556119,0.07542785987552361,-0.16299374945141526,0.09366669289704091,-0.07593419481689655,-0.0020286224051724,-0.10873899433369746,0.08235042235039364,-0.3031592775338727,-0.2575813882607703,0.010502700478061065,0.014756289009950824,0.038155518938690486,0.0022446097784709425,0.0004771296170284791,0.002608428323901913,0.0035679973053390217,0.0049468343800621525,8.803153857992629e-05,-0.016689007919992015,-0.014477842229822695,-0.012024505118185036,9.413266173048749e-05,-0.00030064825458556686,-1.3163117547458664e-05,0.0022608869998253273,-0.014999282087061132,-0.0007753367551292523,0.010706739617963625,0.030258232542088384,0.011601809859431721,0.0036042070148090545,-0.009913830672411073,0.01952667638940326,0.029566331558474893,0.0023083721392908206,-0.07388499434278306,-0.002043934708184183,0.06371638983553927,-0.0336684696747034,0.024225935809998815,-0.008940339100615513,-0.022596993288551137,-0.011086219270392349,0.00026384307045419395,-0.0830993194929876,-0.02712663084272384,-0.02894739428408221,-0.023727947043658052,0.03326643552249534,-0.052349616964389736,0.05200482052382768,0.025263271513731915,0.0766468855469728,-0.10661098904780986,-0.24689533061229174,0.18010545452985588,-0.03659847992062794,-0.3370057264503939,0.04601820638601912,0.0435260726933429,0.21061291235847857,-0.09647746182859339,0.19761986080843152,0.043775141681459226,0.2336094061165042,-0.06386719104355726,-0.0008352948973382006,-0.0006076639837929837,0.033391578198614484,0.046813684343142974,0.07148891687133382,-0.04016519466473035,-0.09446778361063805,-0.0023184978114347532,-0.04233823195647232,-0.06122575543275936,0.0863053947181323,0.061245524199577434,-0.1330902281938929,0.007484746058226095,0.025467829646546855,0.05610683589263654,-0.04716005628590953,0.014107506252315816,0.08679878983366968,-0.03005592400887569,0.022965685256868498,-0.03307195884853107,-0.056135307086107374,0.012313445395699122,-0.07224741730583253,-0.00958631457445911,0.033699189152037824,-0.08631203755849953,0.019901638934247803
106.50344848632812,1.4785995483398438,0.022777006089383905,0.009316990151844267,0.09592875654789726,-0.04191261173638619,0.01830181731880111,-0.367663508929716,-0.06516916838134497,0.017993932383093294,-0.008172489429606628,0.0517504866721012,0.008809740961435684,-0.01908730897972833,0.07762775625070233,-0.10184258093773703,-0.1385698655155013,0.017726240764232935,-0.06127180780711671,-0.011945374371768415,-0.019903332057666173,-0.07784945971316282,0.024384186435968902,0.0015465570944255339,0.010660239830325713,0.0029242697748497605,0.004605476772182883,0.07662726068654682,-0.1127276580812415,0.04263445569726429,-0.024678519803204006,-0.07658818098669337,-0.03605636804262201,0.014415382248245505,-0.024735966362845307,-0.024799578679503102,0.05257637126521848,0.17075884794262736,0.04183630469671947,0.11721700760921103,0.15563547421346732,0.16895548488716994,-0.03953702174558846,-0.11586560275467463,0.08354059505608469,-0.044618440597604746,0.200692864790312,0.06570156004391207,-0.06612844501992995,0.032888299307837376,0.2229359639614673,0.02313989332829666,0.03866969247363127,0.09081208997326747,-0.2897008976639261,0.034411724088586254,0.020219780745387606,-0.05529804961026323,0.0941453825261285,-0.01432977258447651,0.13785045923026754,-0.013677532254109885,-0.0247990144901029,0.10137484542640586,0.11918195280353694,-0.6951732192010021,0.08873827735565536,-0.06062502696184655,0.14841375937480591,-0.02925223828990548,0.03045389212716372,0.018950020275176765,0.004719297130983399,0.03481133394083869,0.09858958492557793,-0.012969763893488173,0.013306367670711666,-0.06480719488609868,-0.00016855246802059687,0.039909853468184806,-0.05045243545859611,-0.07861371769608821,-0.026818449909230657,0.05202806591852075,-0.10414592374770702,0.05545090090592439,0.02533718776143289,0.08534938959428061,0.12578101056895163,0.07509587524732854,-0.035221161957871575,-0.11124405607498498,-0.02660725287088242,0.010740007870772485,-0.034402470952703684,-0.028262840707064585,-0.03093701263829903,0.036832158185143765,0.017533364324265978,-0.06699104228758379,0.12925225560425227,-0.025933044838964248
107.98204803466797,1.2582015991210938,-0.019329933278055614,-0.061212760764261846,-0.2008202849197772,0.1838103851816512,0.18997467292292924,-0.041423649699095344,0.020286018934585662,0.130624480949279,0.3382517424085132,0.305212227763842,0.13128959584260091,-0.05435336062372289,-0.09421370518796099,0.15401430148652015,-0.04120503310553314,0.14575283268536313,-0.01150893702363559,-0.0004919579882937549,-0.013296910748935726,0.020368194439872034,0.027639094181294357,0.005034903735383072,-0.10773659244356322,0.030498630455380357,0.0010373192311845208,0.0038112679611846693,-0.013676867053496371,-0.005621668415427755,0.1103591321321241,0.032273258326777174,-0.031295469450360984,0.030668822530966307,0.018644277066215454,-0.0021563737984268234,0.00019460973144357923,-0.00024468658840011475,-0.008257763497434473,0.08184371130028698,0.0023214462808195425,-0.010242220639354574,-0.007290378799760005,0.0003183635416355416,0.0046920658603549345,0.0015043236897015885,-0.020694652563618555,-0.02762758290660361,-0.07804615737900673,0.014042927729525206,-0.024855809870308814,0.07706414093947456,-0.004098501585642535,0.05404581937198375,0.038090811756711536,0.03496885026179774,-0.06632531099833992,-0.018776511660825692,-0.023158419272980707,-0.026609912821480106,0.01278661662611931,0.021838809188924363,0.04166979698534481,0.1570581797882374,0.37638454210632494,0.06122708070362702,-0.01860321795168474,-0.04812879947183797,0.00840323338425506,0.004043572786391856,0.023001909289003662,0.02527382775818552,-0.00940598462489842,-0.005923100227793274,-0.04474468907923975,0.07027529132715366,0.04788938395775482,-0.054858719695976194,0.0751493803997282,-0.06293082907732479,-0.1991863992007103,-0.10746905545793162,0.06491412730032213,-0.07982867163359322,-0.019215188115939245,-0.031029988667177672,-0.052899419383600876,-0.1247777261207068,-0.016222827906245067,0.01587700328953421,0.0023164764492773285,-0.08095540489090865,-0.15737617050057828,0.011722900983914819,-0.14552750246733115,0.11795726225948257,-0.12041643839424003,0.28188801244212874,0.27258980667000615,0.15161551369653192,0.11426510765232271,0.005493307251361511
114.71375274658203,1.4582977294921875,-0.11563094426086835,0.21512725989638845,0.039351354452549316,0.06988435651002498,-0.09127883072807222,0.4486411016129002,0.17591959895052225,-0.5862670571372063,-0.008772520379552525,-0.02843107623030812,0.08659376176237364,0.31331280600094064,0.03249726681088831,-0.2785480473376844,0.015403109497701163,0.025017840557620834,-0.11111615556736068,-0.031482846734077266,0.003059856490204964,0.013327735067586902,0.0017523490855028986,-0.0063595893559198514,-0.019722139144729842,-0.034291798810145886,-0.09302055017800015,0.006869031046135292,0.0004040484475160899,-0.01624545190527962,-0.01835089154380411,0.003570194019169262,-0.051789680206073455,0.024777910464936555,0.018416392280785586,0.01547292802775041,0.030705327041178846,-0.003569573339043494,0.02341482924036495,0.06552997804595379,0.020213830161839932,-0.016045477855488703,-0.015236339439074405,-0.005351511835690535,0.22426457557293675,0.09777435476489979,-0.0575001440073985,-0.053158158129149174,0.058373492830972214,0.02793371042276278,0.04700973060751139,-0.061311741938138375,-0.25671364954296066,-0.03478294472834278,-0.005521318596341494,0.025915556153202162,0.005862312877994033,0.023836482055497963,0.10697568161459707,0.00632997691335383,0.45020341916714335,0.0068786197840312036,-0.1614228941020697,-0.47668598489287173,0.010617984310084802,-0.04282906597177993,-0.2154840502726248,-0.16370657695755209,-0.08447886693258158,-0.0018626755021781986,-0.1100250868357958,0.033326358179766806,0.05289967681198984,-0.05341496502907262,-0.055254973139949655,0.05421982003431932,-0.0689735092928359,-0.013895619294542215,-0.023334241059909624,0.06053658812807474,0.14560402361767671,0.022122576248908205,0.08530531576102587,0.06937998691516893,0.0301653160641402,-0.027945239704315082,-0.04831727367705734,0.05632098496000895,0.08611036839756696,0.0790366964444518,0.11836658017567418,0.06279774729690904,-0.05060033048134726,0.04048579276187696,-0.004207989231196948,-0.017488456376680176,0.07736815523403226,0.14864588805589896,0.05677091876017629,-0.035790368968091194,0.12171359531513008,-0.08219521959924403
116.17205047607422,1.5283966064453125,0.051596383469108,-0.132722910175857,-0.42193235595364564,-0.13652106917961787,0.17841993368071796,0.04865294569248089,-0.08752563674146596,-0.05399434262740879,-0.04641283883322839,-0.1777639761055526,-0.036280359508432676,-0.3289774040954854,-0.030541009700153023,0.05150893862012709,-0.14322603381673185,0.006831590786328473,-0.3068326211306891,0.022618566147897326,-0.0025478473406493783,0.08661609441892776,-0.005774821150641011,0.0154916363863284,0.07594595873601796,0.024976114112643777,0.0776088435108202,-0.0409427372739141,0.02626639204649511,0.015426991200556808,-0.0693601129672193,0.014465077438264856,-0.07199423281531106,0.033637129074706486,0.0010459309748346718,-0.004231926203122821,0.004242576848778073,0.016798527063489544,-0.09428228870529796,0.009019006515308814,-0.07069076139583065,-0.032850077942814665,0.014669629311652539,-0.0006592299674287544,0.0005473671245658665,0.002251794081504584,0.05828824499457545,0.030013157658880782,0.00999355303880041,-0.066059118876909,0.034393248996021974,0.048419349845112626,-0.010679795516328075,-0.030374820077911382,-0.04231028725465759,-0.02032305732686752,-0.0006454418868193455,-0.0607565209322505,-0.0012329578996603686,-0.13709805305450973,0.03733335763942541,-0.16201841334956466,-0.08198901249423725,0.21073586056779575,0.18097281513603608,-0.0467387087932811,-0.18225243896186485,0.188419160178717,0.2545227138598741,0.03577107274625539,-0.06277319337177922,0.04114192890504833,0.002810345272929888,-0.08097081433777212,-0.0399119845511552,-0.021193729636781712,0.003652459938402636,-0.011316827127659777,0.01802071522338755,0.028026127095688143,-0.0508172571636,0.08198977799645554,0.07067690876552923,0.07129086191459227,0.026185004704516564,0.022027974105918346,0.03344167932302537,-0.1095695033146803,-0.11386560104184038,0.049598392530436755,0.16101767157710598,0.050942103991494375,0.014672637964442868,0.07093115509797765,0.006393362246121269,0.03575813196785647,0.04425498046959213,-0.17069120406744176,-0.0031919779977541756,0.007430738649617942,-0.007926006898582824,0.27620828688634996
117.70044708251953,1.4984054565429688,0.28860601577432765,0.010353969309624806,-0.1146345193194796,0.10478426441634212,0.20767312028899357,-0.06407155918908009,0.1567636802355383,0.19527142306828218,0.01763286946136576,0.125128940735683,0.08929280429462162,-0.027843860376104958,-0.11111462469582788,-0.0062559847678142445,0.06785086973678031,-0.012545825298174603,-0.11993567063723963,0.05182479137750432,0.0015699052380405516,-0.07373574622475125,-0.13747375059511713,-0.059077454136129734,0.0097713855256147,-0.017065711354931477,-0.00016864103015494001,0.015051336426164474,-0.06971458186753252,-0.041399148702072605,-0.02145940254498984,-0.20157027713108566,-0.005854852422922614,-0.008606991057382336,0.009525098680985711,-0.08782189306073486,-0.013875926211122769,-0.02714577309603049,-0.07183800541197718,0.01494256684354334,0.062306170905621974,0.007087600169726177,0.0750856570791785,0.041650372582905625,0.024147877985538267,-0.0005733278625769944,-0.06760843526039055,0.10572729678845089,0.09098131034261378,0.030151543516552762,0.004176799154950867,0.001987466990842843,0.07764900004148163,-0.010601598665230694,-0.0036008035293793534,-0.017546925843112866,0.008222875092608403,-0.019543537675274156,-0.0046760043468346,0.1083097603013346,0.12986249689749566,0.38391555789510695,0.16330112236670824,0.2321183114046818,-0.14235984781558844,0.031821737125599374,-0.7939698499752362,-0.007443228470336474,0.17369179491288672,0.32313619761987344,0.07027449772287143,0.04970707591444782,-0.003066356429569824,-0.09442174259046975,-0.05054846273758007,-0.05926776444752768,0.11847504873316077,-0.015517257210278718,-0.02295516010620059,0.008073919326071488,0.14500214397090644,0.07143685273757862,0.0933961776199236,0.034766324061467985,-0.008401440062072801,0.04507307502224463,0.045970043221492375,-0.021763134254270983,0.10688367739084335,0.0005309649752388013,0.023223396139035186,0.021352122918753633,0.1267284794192137,-0.035086149013939416,0.007677025992841897,-0.0004904883469188347,0.051968700229938006,0.2622309600814423,-0.06922114626646012,-0.035005913636382543,0.033338158223450064,-0.39085706362584227
119.1988525390625,1.5980987548828125,-0.2562572632208758,-0.032943546736429935,0.04935924758885503,-0.016019599960344043,-0.10942774162068492,0.04241748456286622,0.0022493339544908397,0.340396165192267,0.0997689542824952,-0.1279859148998439,0.3219258981495693,0.11069294224254998,0.11758879434568176,-0.041590388455480444,0.06627266554550369,0.22975724922219157,-0.4539922487624535,0.17269096609604523,-0.09421055448553708,-0.16810145585550268,-0.038665528011850206,0.013856580409771231,0.07505006621983648,0.0769074357462021,-0.1067105713316765,0.017587967941113877,-0.10957373985146492,0.011839357365090512,0.05908388384422421,0.012008494428384591,0.17001504773193266,-0.0519847945979927,0.014307403541334165,0.08740481601712857,0.04044816378159548,-0.0891291864498653,0.016285701611680217,0.02513959663320022,0.05354073920476182,0.13972439154039096,0.05881640015408162,0.041338103900529756,0.010467951329796171,0.06765672589883304,-0.01791850081209306,-0.030078190741040435,-0.059541347404322084,0.10124286370020315,0.046054183447921004,0.03430640729027693,-0.01812492629919409,0.004557405017539687,0.006401332562934653,-0.00013875509752292743,-0.007985925799221702,0.009462822691784393,0.07909702965003398,0.19058956312802214,-0.1004011488643488,0.03655825623497408,-0.6897701230956204,-0.03954156758575997,-0.025073132548760136,0.11467382127554682,-0.12024736020108813,-0.5906291315225125,-0.45654254560949337,-0.03409892668534023,9.45294927842252e-05,-0.0358145658890065,0.00608141335816926,0.011082759462939903,0.06524022529963826,-0.07259487020138713,-0.08780021616813881,-0.007673030084280573,0.0233498356956516,-0.09433525065742172,-0.08507262222693253,-0.027804648410929184,0.031199784872528613,0.02340833366412865,-0.034061781495105664,0.011361790491141683,-0.003877310452777598,-0.1174212225484165,-0.07073008747006275,0.012459962997759848,0.017463612357469262,-0.07460743398029844,0.04325714232863706,-0.05462429039618,0.07441405812983494,-0.046032215637300956,0.014221757324590906,0.039575328764881734,-0.02966927632339203,-0.034510186696852185,0.01876620875113549,0.028516675197352945
120.79695129394531,1.4883956909179688,0.02428778805150579,-0.030145306396151435,-0.04255627248957223,-0.055790973089974834,-0.008021874473066267,0.06076787263800176,-0.20192306223636755,-0.10166557532640662,-0.25641001572604977,-0.21150147029323602,0.1391953680441539,-0.0953042534809111,0.10014732163169004,0.040206482327735604,-0.3231177304179762,-0.10511731159841024,0.30272768442895204,0.05422517429918926,0.09503148767044484,-0.14588501445926216,0.19119369927183652,0.08827486696402453,-0.0642205553017221,-0.01984588353165096,-0.06296748209709008,0.09663435248957032,0.0309878762020507,-0.18449932004635322,0.059145776958472014,-0.015443725834397268,0.050736497867190894,0.06998770847565831,-0.09289612481836847,-0.1489123215988407,-0.022850662633410887,-0.040714669026617634,0.032515180192048826,-0.04694722200807251,0.04477953651855422,-0.06558752921434352,0.02506683529012224,0.06008022636303954,0.030154950921031654,0.006798614487049015,-0.004125078728030103,-0.0070728257763395235,0.0022995299490749417,-0.011370506616533974,-0.019998763032198493,0.008015559668294066,0.012804685980990329,-0.05826054321938261,-0.012476419804886405,-0.010675881520983211,-0.0010089409453072724,-0.0461289040815525,0.03162627355719462,0.02346305497866676,0.04956185546575266,0.17990712032945144,0.16379402632587353,-0.12640108577824827,0.3798268129099228,0.06685097761250894,-0.2607815294949686,0.37158236426397206,-0.007635677748955905,0.1288247367866254,0.06500315997014922,0.06658106577249454,0.07260825944999186,0.037250623754765094,0.02537362537351202,0.06935126119467092,-0.03290251755975925,0.08487231981549517,0.005573743427899389,0.0966020951940605,0.026316312013995688,0.08008590825878274,-0.06990053522893723,0.0030917776243990277,0.038919627159898204,0.046525209047357255,-0.009033105411166312,-0.009494355596713262,-0.005822617662311624,0.015155500048581409,-0.015511720422954262,0.1553635377046488,0.11910665675645721,-0.015647766147470432,-0.14527613832710867,-0.22949477063437462,0.10871240992018126,-0.2320654924157594,0.032280747129417184,0.091288557238529,0.27722883469460924,-0.028448560493663178
122.28534698486328,1.498199462890625,-0.16950306475176316,-0.2880321922504631,-0.12202513951269686,-0.27448386266114067,-0.6062946282308788,-0.12319671958151426,0.029371859553937524,-0.20075675892772113,0.30184067834058387,0.32527088410791655,-0.00954215634117525,-0.1365776511813332,0.13935281710110223,-0.3392480281920819,-0.2643247707438712,0.04570498565829704,0.007240177277419088,-0.04472423013612599,-0.011640203516072797,-0.09948883750585663,-0.010095976550631299,0.050235185709992886,0.0077495596752608295,-0.035976824456532726,0.03205230500144699,-0.014197512931029714,0.01458410475374226,0.025193727452419934,-0.06810351424780257,-0.02686718238138982,-0.04582914064814915,-0.013799414772323725,-0.05638332516435197,0.06928044306888478,-0.07867172857730001,-0.0026416165629246716,0.005871585949737866,-3.193696252852489e-05,-0.00021540667030758422,2.20962844591391e-05,3.9932093373853324e-05,-3.7564135094405336e-05,-0.0004896434291746003,0.001650799848632823,0.08599903434103318,-0.03837750243707413,0.07509739953317589,0.01901167348049232,-0.021470565816163203,0.0062100388779312895,0.014313123896289111,0.08910386831213883,0.037028815645082515,0.09547102868524733,0.2540874578213552,0.15853146765247408,-0.11015714352233913,-0.33425837062379177,0.16980939904710873,0.28215853843318023,0.5322445694228304,-0.48021830335909116,-0.3086547421184139,0.13277036240257037,0.016982802941203624,0.050228302368977414,0.04976578226100999,-0.0010990165500911909,0.019281084607885846,-0.055487623169344844,-0.07875652901607705,-0.012239564554407964,-0.16215959268247654,-0.023292532416406178,-0.07795123444128133,-0.08253862539870357,-0.0450660159474256,0.009304318249734517,-0.030447487274305164,-0.13038626102037731,0.03552418731790251,0.11657180689214879,-0.024663098746312784,0.003924840438084042,-0.06501264678940182,-0.08170048928326404,0.05878380514389537,-0.014059569889782408,0.03965069071307969,0.02435549344768298,0.0025206291127516847,0.04509594207617037,0.08953034677825115,0.004678721379392298,-0.023318947266820787,0.0025790586457154633,0.007106750046596653,0.04498210542378418,0.017218954761409215,0.025500593149544788
123.7835464477539,3.145904541015625,0.1578513930259358,-0.1540432176604538,-0.20144376408577463,0.00902190221107338,0.0751186404023612,0.16870652770709066,0.391424747315525,0.05279350864965876,0.009615217128586609,0.07927790656086545,0.0831963773456577,-0.02914133799310177,0.08876621066404211,-0.09606828846727691,0.0016733620616745583,-0.038579182602166924,0.036126940394492615,-0.03173460099390685,0.040853384353019,-0.028903117946120035,-0.00031042783564375065,-0.00023018055948939012,0.0012416594325228441,0.02912632135871692,0.049076443875912215,-0.03432842410451054,-0.05036218016572484,0.05489785336972125,-0.011453835654905853,-0.014748590611443861,0.0014305433034887626,0.038683768412717826,-0.004688729966123911,-0.001545590878295061,-0.0017629771094950532,-0.0004267717954412897,-0.0030899239806804375,-0.007551004214481286,-0.010500053016932501,-0.020555757106336087,-0.006529465673571845,-0.01670790041463993,0.08174998180127709,-0.025087184173175767,0.007838796877870771,0.0009665307941307776,0.0025246265547286388,0.11763222454093956,0.008820871826335362,0.011676172834763153,-0.008116247052324065,0.060160385486132874,0.0516605552008245,-0.054521937619220806,-0.014791782896697253,-0.008138539553344688,0.031205272382338778,-0.019933282666735764,-0.06372720682194803,-0.07997312324737664,-0.15220142445331936,-0.26163949891497124,-0.5252947973255533,-0.464947546617508,-0.0773445652154598,0.013402634750109492,-0.015879788632036977,-0.005930210158783814,0.02735968677155956,-0.039443367166633464,0.05821615610353043,0.025584540799529248,-0.0724046953149521,0.0032493720648300774,0.006464288816356162,0.09733512425959155,0.0814649879333462,0.11021381292396909,0.09818141761122652,0.05493638845740119,-0.011925519266105342,0.008960131132184912,0.02834478646837566,-0.02095930826082957,0.015207609209488574,0.013861833550588913,0.02898601722486479,-0.024099457662829463,0.026382867525586738,0.08646820097214158,-0.053776133875867625,-0.29315596912380626,0.0008963216495945661,-0.24347004688718868,-0.11139810125717796,-0.0933361364283728,0.07905794560505988,0.1308581260830408,0.05697280259050979,-0.017921412973032402
130.14614868164062,1.63800048828125,0.10559255780509472,0.1846253574406529,0.22147104735342565,0.05266010730824581,-0.11658478834596883,0.046218410737594584,0.15646741129096375,-0.04789032947255242,-0.24455773611670747,0.0033313693517921343,-0.033239504294545606,-0.08313001499722479,-0.1569985993279689,-0.04108100515911049,-0.038240900845365224,-0.020247443527066394,0.024385683274015624,-0.07955023704038722,-0.010897083318604105,0.021043687628874482,0.001117239815313404,0.022229571068684575,-0.0026885684447022994,-0.052224570528367674,0.005619595562180869,-0.0003755044643944396,0.039894773776607634,0.03129830753825867,-0.037026570991826484,0.0023552249019001895,-0.09018756918498935,0.0515796312163116,-0.003814382595583351,0.031563791488340716,0.0005095002279564133,-0.08722663095020512,0.09472225644753539,0.1581189973332221,0.058978540139742935,0.021966296271259234,0.023431035908797512,-0.12378032349694344,-0.04639450140925347,0.05493346572597818,0.04528404241099931,0.006221519631198791,-0.020546088178794858,0.03088829664477659,0.0399591905123467,0.021326905826550793,0.031097072447495974,0.004283125618747314,0.04324020641954622,0.12175495224322094,0.021009656636695292,0.06165457953752665,0.04895053617875905,-0.1346572947434146,-0.19387334385069,-0.07344013302516737,0.00022277961092284637,-0.08951475274521861,0.45526581580782677,1.2768156925987675,-0.11019691523006586,0.19205349957829254,0.2830514103745835,-0.0031996232230167565,0.05947654854823714,0.02266208391135583,-0.008201271508807464,0.04102324195464139,0.0626860728918758,0.0643611769524061,0.08625633459818764,-0.0919888665783596,-0.0706971321232868,0.027284431290551484,-0.0207853351197589,0.030614319929665592,-0.016465406772981413,-0.05569295700840557,0.07705311238936766,-0.13917109332414623,0.006323679686336254,-0.10580659822990411,-0.07157194451267015,0.007673670214109585,-0.01236802931353935,-0.017141997422996057,0.08171165806040596,-0.025161663164971315,-0.15339755672126854,-0.0695422271267658,0.020865115977455925,-0.012468308199721504,-0.037087885128216716,0.08623966240443948,-0.03507521995464613,-0.08070186059562451
131.78414916992188,1.5980072021484375,-0.064904637221086,0.01931907596253303,0.23519183532367477,0.266646785407296,0.2122867135239623,-0.02386054678564449,-0.26149646657366926,-0.13134729975782516,0.12829507948502122,-0.281373369457439,0.04009346943119306,-0.11190298752486659,0.37950097698898644,0.006885100007888417,-0.020584719275301117,0.016354616078563103,0.04779134014026669,-0.0803453602688008,-0.014336694084936317,0.028510207244546823,-0.06513979762383076,0.02488120260677689,0.01283433887418059,0.032209100661750686,-0.04601765973362901,-0.032234633166957904,0.020587728749691014,-0.08696148059098217,-0.18351854859344205,0.043857947136440395,0.12648669570211832,-0.046880940889927475,-0.22996886290122798,-0.054511346416881976,-0.06480887314535555,0.07370986676638264,0.05970383419319916,-0.1719631452186241,-0.03939722156550508,-0.0686586681527547,0.05330409446447132,-0.12079951628168041,0.18243757662575516,9.938947945564366e-05,0.21537564933545722,0.5881299374696416,-0.24894451587740138,0.22834345081668408,0.12407483908953337,0.15143319655904486,0.10214901120864275,-0.07048186016530301,-0.03818266606512577,0.047405603936358245,0.1499911097660992,-0.09809938264469069,-0.030322693352952616,-0.11284127132091692,0.10317731145981797,-0.2224790000758282,0.09768027622432071,-0.30177695914310554,-0.04094552927629321,-0.08291861411332502,-0.1648994937504769,0.008888731804357348,0.07824672753313608,0.08924673123181304,0.03179505710426835,0.08664075550925261,0.040410840871331295,-0.021834712326044343,-0.0075494731067315,-0.010818822460808402,-0.01239693616009191,0.1439882250134806,0.18346499242001477,0.050258986183440726,-0.0333897511782438,-0.035301276483089686,0.004898489165545337,0.05622390686573927,-0.028322743942335724,0.001182317785122608,-0.011512736786752693,0.01038415549104818,-0.06224883879850825,-0.10457228524181714,-0.04953251610270883,0.07531587088183625,-0.018393034228223,0.09382235802433153,0.0292744784747382,0.07281478092341172,0.11081852454275953,0.016088457748745878,0.004410722521934918,-0.022109822836854115,-0.10138246114289558,-0.4115248551282801
