start,duration,0,1,2,3,4,5,6,7,8,9,10,11,12,13,14,15,16,17,18,19,20,21,22,23,24,25,26,27,28,29,30,31,32,33,34,35,36,37,38,39,40,41,42,43,44,45,46,47,48,49,50,51,52,53,54,55,56,57,58,59,60,61,62,63,64,65,66,67,68,69,70,71,72,73,74,75,76,77,78,79,80,81,82,83,84,85,86,87,88,89,90,91,92,93,94,95,96,97,98,99
6.251399993896484,0.8995003700256348,-0.15029021502105974,-0.8300012471728422,-0.26022265328552985,0.04540285716066434,0.2852963716587467,0.04342115247215461,-0.045356150901502995,-0.017094147256987203,-0.05871899648841261,-0.4021951290097372,0.053731551646896955,0.1817020569268737,-0.09207208501122223,0.05561255839195793,-0.004678843212393718,0.14215198356207123,0.016454772106161995,-0.07272986647547552,-0.29972127567379453,-0.2991895537672028,-0.17859908101066047,0.11597316960495305,-0.1728741240934455,0.03368778251037835,-0.008338573152201517,0.036917332260856965,-0.046409610405474755,-0.2535021475120899,0.40095087119057626,0.07034577043555681,-0.02031797119427127,0.40166437664224275,-0.08628004809014027,0.34136874373857606,-0.1586642490490756,-0.2750097251694338,-0.09103995637421242,-0.2173260295052562,0.9446917060711586,0.5459802013927475,0.7510725225563349,0.21715672748227413,1.8700958625371151,-0.24634123666797492,-0.873422115228726,-0.8026319084551963,2.1422747293483924,-1.339828601784375,-1.1504568522767231,0.6926474773285779,-2.192468131575031,-0.28685686669254673,-0.3793395160900631,0.6476227321977109,-0.1639735850255166,0.011643097745179874,0.04889448270814738,0.03654644957537258,-0.013381866765089553,0.13148694725265317,-0.055420818928063095,0.14840255536496388,0.06224610233951673,-0.014249637767148556,0.062187416023204795,-0.040448147717110014,0.05360604686410392,0.1540165905166175,0.20936894592130437,0.05410097724458589,-0.1908107855588208,-0.10986331926959754,0.07805756312697458,-0.04245463198889312,-0.10279674410769013,0.07903202675453522,-0.005000946622269742,-0.09986199929146687,-0.18045433858461196,0.07886802968780772,0.03378277046374233,0.013011883966023907,0.007456382478339655,0.036923977937643154,-0.006286781486966257,0.012545138291693994,-0.07598493241615109,-0.00805490200272594,-0.11747029611598825,-0.012553515810853538,-0.030775985392954827,-0.02282836348252148,-0.045658167881457885,0.15249839447536287,0.0022443945642099603,-0.013994499470396715,0.12375220565990244,0.24456008987035419,0.585095826738244,0.26301637513959025
7.150900363922119,0.9088997840881348,0.1075199160236543,-0.12387083904046366,0.26037365156549824,-0.2069548667225146,0.011394842665896562,-0.09663098842472578,0.16761341736309968,-0.12026871125064356,0.11779357889641245,0.08896860002909428,0.08509657575991005,-0.0971350786055701,0.09384023347855479,-0.0077917057486548424,-0.06167469100924917,0.02731268232054051,-0.11794511553517081,0.3496656722330938,-0.42008499732622406,-0.23521412857949747,-0.000616835028337398,0.036278785474080893,-0.02896132716538398,-0.45976658341345866,0.1533145067211695,-0.04830182071878425,-0.43486110872452105,-0.2270659841088012,-0.21360202928584698,0.11627311636258117,0.2793631277275344,-0.07526176326959043,-0.39393832055723926,-0.05202060136573594,-0.06708295661337055,-0.015261056912129749,0.7649648912423802,0.7117216772651185,-1.4795025592404754,0.8523246479359248,-0.4426584706132157,1.198367977254801,-0.8564926701674465,3.7544612753355007,-1.2967047327266028,-2.8334650379822164,5.533565128745369,-4.255055634181875,1.5020710778010342,3.072416641712703,-0.7724315584194492,-1.1598375099497575,0.15839540700443483,-0.5960478077713939,0.23439619347739013,-0.03835151873624302,0.09649006656675778,0.08162644950212572,0.05418386790317332,0.058130004983849556,0.08727356521699367,0.04123600488677052,-0.04499737593307039,0.2250946640697781,0.01468140130289397,0.11467280727623402,-0.2160355007698733,0.13839787077335292,-0.15132276777374828,0.13264317423275718,-0.02806830059026115,0.2627998936883257,-0.046012505487152244,-0.08155696771605643,-0.1282876216550472,0.007611294218424469,0.13101380546310368,0.07304490774082077,0.013056215821427472,0.01566129429437195,0.02693982581891526,0.006799334251654212,-0.002594633113191933,0.029445239902251424,-0.14017827906136984,-0.03283193882257471,0.024020160457517058,-0.029315329065216493,0.007776324444587776,-0.15918131484626488,0.04136453646849544,0.05597549914971582,-0.01152118822157619,0.10355313061963652,-0.033334173523075696,-0.15583569047920653,0.04186607894352711,-0.38160423757343453,0.03849730716344239,-0.3607299631847148
8.059800148010254,0.9393997192382812,-0.6266480640214844,-0.06299357990218964,0.3087109934264103,-0.42728244714486463,0.033372447011842145,-0.7475655012363225,0.02701229087309566,-0.127063222596564,0.021741193895877087,-0.2730018212187463,0.23181905486583054,0.15707581586451164,-0.04132962944516054,0.08707662088345743,-0.028952756780456248,0.06651282013179664,-0.06557458067004664,0.08753492533002447,-0.2117773864566676,-0.42436851917446433,0.02283667711016443,0.15182459947023114,0.09927786768595362,0.09264066321446407,0.05077410240452085,0.13332106528989915,0.04252436761851733,-0.06911032668871382,0.001483367993671228,-0.08284135089515889,-0.04628632287251227,0.08343108820014651,-0.16105807861419577,0.13964213081352903,0.10199039348790567,1.0613130884023723,0.2510712753187423,-0.603360869054642,-0.4155594389972393,-0.1917185453988218,-0.9535763227132236,2.6522772672041843,-0.09957094595609807,0.5980065697252734,-1.5619938153960005,-0.8368566172853613,0.6776370045878801,-0.30602677955311325,0.9910968078390691,2.565311637417722,0.5493925804714825,0.8203267653941227,-0.4922236735859525,0.08324628276494142,0.8077741341258237,-0.01604792512556228,-0.10698913402705199,-0.010382144624183968,0.026757968078437434,-0.09411731921767787,-0.14968301717654023,-0.14870218703453905,-0.019599859885303342,0.025184916075984658,0.07420034323760326,-0.053304790409449035,0.046006232920875294,0.19158212241638695,-0.034254452687231984,0.023053317036414625,0.06936250173195764,-0.02264578571259431,0.1350053989018655,-0.061274553975506726,-0.10456623105010661,-0.023145957587690072,-0.06176223834101961,-0.21844281799409676,-0.17029180289633578,0.027070271606176602,-0.021857515193952827,-0.12786447044994378,-0.07072073613943251,-0.06563988836434823,0.04552580895304968,0.029163817873732636,-0.10142669368400829,-0.09758712325977746,0.017094102441588953,0.11800076774601084,0.003670604367301631,-0.07688974700926766,0.02375897627779408,0.012467920073212492,0.10823887961398328,-0.03322552533685589,-0.3247473082563892,0.026306410440535978,0.24611310493914856,0.19065703108987803
8.999199867248535,1.0597000122070312,0.05811258840225013,-0.2260406080457698,0.14060646932978182,0.29568406110137513,0.2421913614405082,-0.1630276163231137,0.17403102225992162,0.08092918854365619,-0.10617036309024107,0.03247343282586314,-0.05116035681585893,0.005867263019609657,-0.12556207111437004,-0.22240165729704192,0.42255983012697407,-0.6186826080451405,0.20066347154368114,0.49864885886607724,-0.0006192797783863423,0.06192622193801986,-0.17418753910747173,-0.027999812324066328,-0.028847667748105398,0.0014072664280331028,-0.03858658180832912,-0.05426961291718059,0.002279912505802756,0.03537558722791735,0.026705206732102103,0.11100882047558422,-0.02230652074523,-0.04074010607138446,0.10954124494751857,0.005770149061552363,0.08702369817574444,-0.11807442046931668,-0.052962292705306335,-0.4035493463666544,0.5724506500587098,0.41716228046824927,0.2653539985482812,0.8499770702161313,-0.7950661449842564,0.9004469234849182,0.8592258810864002,-0.3301507633693988,-0.4862087538190024,1.1443116838242264,-0.051903573329165946,-0.5355467959327848,0.7730085811809015,-0.4116672837118766,0.2161104908881884,0.14854534894335977,0.06342030990817274,0.055669872351289486,-0.07594626192783928,0.016247929004374804,0.10577142771354654,-0.0979524788658891,-0.017431309359301234,-0.05283316619141362,-0.0770193105781003,-0.0030428075694585383,-0.05626561625920441,0.04601136245595655,-0.016869113510329735,0.03874172370926966,0.07756073411433374,-0.0031588647534897037,0.026643201968428537,-0.04424847734498952,0.07809468698784039,0.00018390181729727867,0.06389424663084647,-0.044850149765200076,0.04656986017952578,-0.07088880900818939,-0.056513560989135195,-0.0388287764584235,-0.056239884752278105,-0.06370136924129027,-0.05472758280882284,-0.09535086870675615,0.005961540592046084,0.11588209254729565,-0.002203803105777523,0.0760263235839161,-0.00555480710920602,0.010392679413202094,-0.01620060542804009,0.021880102455233218,0.02395440850576571,0.004400148746043755,0.09260493521304926,-0.03484214867816528,-0.004069147913822117,-0.008840870608479618,-0.047732501833727896,0.0684279902637655
10.058899879455566,1.0387001037597656,0.08468975026580305,-0.24046147065439732,0.3061129885189247,-0.20285550965670957,-0.16079765345800007,-0.13879017081285483,-0.06768962634237372,-0.13759641227906383,-0.19036173665448486,-0.06106777202817726,0.0749181533564734,0.1804059390992405,-0.45154178226440406,0.02777931069244402,0.25857467570223786,-0.008003008668478528,0.10012065667355509,0.07607993570934458,-0.08018508444492678,-0.017382188554861414,-0.09544023103633524,0.1112269700309053,0.04582149180032981,-0.04709850899325185,0.15579850246563542,0.032526885153981985,-0.10342429917862053,0.06292231007111107,0.17489344370334242,-0.005669160239588375,-0.02684905224317963,0.016222510394473394,0.13157966921820483,-0.07585842879235088,0.13093278436112768,0.013946456339891528,-0.23944979494667326,-0.033553150099585094,0.15452606511473357,-0.1294105086294704,-0.21381697569269462,0.21714979336767273,-0.31275674682782084,0.5558073282340422,-0.4726744167538792,0.18863428513484562,0.0741512053565656,0.29710337009872867,-0.13705966335585065,0.06690550556249145,0.03674113002784095,-0.05414930239473459,0.03483404399713006,-0.06417473342938405,0.059007378562195525,0.0024314342749323647,-0.007973569261100641,-0.07648330715527,-0.03152274000670803,0.05273002164436459,-0.04007109496095339,0.021005582962848976,-0.0033194167399597176,-0.11263900859012188,-0.037327317651675816,-0.0262682945991694,0.12269571946860004,-0.03563451054497746,0.05164718649871045,0.04193796223991121,-0.023697649589782044,0.11740375963505868,-0.004350277924503368,0.002583837086409817,-0.015076421865495189,-0.006815623371727544,-0.03655636682636912,0.03335160787116737,0.09264179431116265,0.0465283842705623,-0.08070083631229898,0.011870649138934115,-0.0022688083558450706,0.10945880883492069,0.06960207562226994,-0.09399579944880698,0.055454770682226456,0.0029744989986070984,0.015235387875307607,-0.07073537044995745,0.045230132987135775,0.021257898911639986,-0.011532229886174711,-0.052683715760974054,0.025123171372891894,0.1496767822971804,0.019711291321966192,0.06931743829226916,0.0812090832842578,-0.016934773318646817
11.097599983215332,0.9794998168945312,-0.13675754225863954,-0.0702777849796736,0.1913572530494354,0.2190528835050151,0.1660332159399572,0.23871468886059438,0.11117684474227181,-0.062297111224661895,0.05168463283835045,0.10568030510722212,-0.12659259685413674,-0.1858338479231625,-0.08543158015001659,0.29007772914410646,0.6061730019241136,-0.25249220205044104,0.4651340655874103,0.5419341128843251,-0.16392313106649953,0.40982065435542436,0.01252277303727338,-0.6568186414211982,0.5481273931664447,0.28842273204944774,-0.3384956282486604,-0.7158543274913038,-0.16769050348933992,-0.03427730304472364,0.23787148155244123,0.31351110485384115,0.23886926845289955,0.3416186345191677,-0.21430362126059216,0.3490049438330599,-0.07333960453967646,0.2434063011980976,0.3330424142855912,-0.25973997554874784,-0.3236323785219975,0.13589843696495046,-0.3709804427518767,-0.006058747914480479,1.1582573252124604,1.1381205645118122,0.7305719182593187,2.0144318037141016,-0.19806016616094585,1.1779914029971925,3.0144267040339097,2.8096146934023487,0.7775035425891073,1.6612162546679325,-1.2588435974938428,0.2853104075626705,1.06553259913988,1.98159952717736,-0.38814596794837586,0.07902167026931936,-0.14876420478917676,0.074142210227559,0.026400077007581547,-0.02948546592070278,0.18208254525984538,0.08195883449280865,-0.137267386180428,-0.019987261664150005,0.042595141642711706,0.03206032286057954,-0.06058393265759754,-0.02685470694405978,0.11719661305011601,-0.10494925044779312,0.13207557151399438,-0.10869384779759415,-0.10900655210059726,-0.11231365043586901,0.008855329058335318,-0.17381040382391816,-0.02304944813685544,0.0009156984189326173,-0.19715498479476645,0.032445562101807775,0.043739571446909306,-0.0599627404988638,0.000688541641193384,0.03281428039567413,0.027546308475676306,-0.03574414496514236,0.04455034481473043,-0.0396535309782369,-0.016991725796356813,-0.05883481125027099,-0.026012232685309854,0.08406462894215315,-0.04724170712529059,0.1965820336236921,-0.0511798999519705,-0.2767977481669395,-0.12351051694228969,0.01555083542873617
12.077099800109863,0.9793004989624023,-0.10819817839662818,-0.16563112649607806,0.2479955814149778,0.6742082573729405,0.3325950531631603,0.329814767966617,0.017565397059458216,0.04019964815730213,0.02281498128775486,0.007002535065888733,-0.19466899810341615,-0.02391249598498839,0.2830073421705669,-0.05734447066279422,0.10174188235366291,0.09473978814327051,-0.09001441689885137,0.09280653126418281,0.45201742506092973,0.14667142259301677,0.02639038792749525,0.17112722273480704,-0.21402486250861272,-0.09117049867336673,-0.2019320159135683,-0.176732909922116,-0.15603826049014557,0.0693919789215098,0.04477928911500646,0.010531533129609883,-0.15593245669749525,-0.1072796439732091,0.11048173118155805,0.03640109874667004,-0.15044762577276638,-0.4501114179779,-0.20459841481732807,0.18912584250229605,-0.15673820142448103,0.12163410312706996,-0.43999477219323696,-0.1176447321688,0.985985449235228,-1.7378388315444964,2.4848876312637365,-0.5717326297823965,-0.12969738059597968,1.3253444168639805,-0.5567599449830015,-0.006551899568696423,0.08172084411496357,0.21614611966655756,0.030443339911557288,-0.07537798171780229,-0.49010421685227856,-0.05368901468132142,0.1821451848868206,-0.048253911130029324,-0.059456758905183066,-0.02486179807775753,0.09978303793013639,-0.026643946875302707,0.22113954075941533,0.03964729932465791,0.015032671560002785,0.008197262957631067,0.006610138123542615,0.13622342367846293,0.003595678597887849,-0.14640605985587687,0.006646820125894444,-0.018088763703751468,-0.04301826458069299,-0.16027957186820752,-0.1303326469453296,0.0616826197260958,0.09562695203116085,0.1436322937752436,0.0663391775274108,-0.0069708553723077295,0.11937502250885978,0.03419129778454569,-0.04135443340880258,-0.0869879150688558,0.03431021072424046,0.01956314763786514,-0.042689721716972974,0.0902156093598753,0.0020883441437741894,-0.029163055624221293,-0.07271577345728868,0.042810467587086516,-0.05981613073938055,0.10169966334643143,-0.021041048798280594,-0.09162564642103528,0.04681262668397254,0.06151310489277234,0.11808402557880582,-0.1566586198582952
13.056400299072266,0.9596996307373047,-0.003696614812191523,-0.13057465292736334,-0.05029788513990851,0.1994578151553256,-0.032933446484460754,-0.06758985837634313,0.0036348847075913905,-0.12408608944591432,0.10456331937161742,-0.0024727600005304876,-0.40612161091621507,-0.16328123900906674,-0.009089473302781606,0.1036009631625789,-0.04776015219145642,-0.002242658233810646,0.21768300990325062,-0.10942664274223321,0.01746345639403661,0.08957219938703816,0.0975749501987429,0.172619178420592,-0.15609372738243482,0.20116311436304485,0.05271405630443644,-0.08671906817295186,0.08012202212345353,-0.09332232083955216,0.0767443686584594,0.25309397552398627,-0.0023910399219960092,-0.06314465119293781,-0.07134271150310319,-0.010256404513448336,0.1262654875631582,0.3228193991799933,0.12724100954023795,-0.0030234496667328192,-0.2116911935197055,-0.5727461491675457,-0.06012846150547526,-0.28398342339258104,-2.6208198880116558,-1.3373206817621701,0.40808733801517416,-1.011031128637616,0.6399703580708016,-1.9139800733978607,-1.1716370023210974,1.2733316093185802,-1.0541296797121178,0.031143490913329797,0.7094516315824824,-0.035781250438847986,-0.34043061025730875,-0.005847251350621904,-0.06389222743051261,0.026275745721806257,0.06461347081922292,-0.08430083407846643,0.011702766698933012,0.032303929708678826,0.1429931942026734,0.12738689367110154,-0.014756999397443307,0.027526463232193977,-0.09618875637071214,-0.012374849954648938,-0.13852432312430277,0.054338221332164996,0.015387531555507665,0.1421233236116356,-0.1587789417325482,0.13520446166863198,0.12413804246928467,-0.03047654467286197,-0.05734079585553652,-0.04042687127795994,0.028189329198675256,0.025598674768603613,-0.05149546271982725,-0.044572238097969244,-0.012545110272690965,0.02903880129877779,-0.017396226652447336,-0.027190984828432803,-0.07017673906166268,-0.0682353076282613,-0.09074456208573436,0.08128057851989798,0.013688401468731175,0.1917144274251127,0.011099553925915917,0.20725375413822902,-0.06432704564546846,0.09928149948988192,0.2761583323167247,0.22646752311730106,0.05660120331755415,0.22870725672311645
14.01609992980957,0.9993000030517578,0.37929018062121084,-0.6469688255125691,0.18556503620118894,0.09708715455221908,-0.08335566214055751,-0.14096085086445706,-0.17596789380129846,-0.04656158007746075,0.005882799168565975,0.006754644487943954,-0.06060418422419505,-0.0722903978042362,-0.031717889344902515,-0.027435257763618673,-0.007372882436139885,0.4796877213086902,0.37327430324089217,0.08518069998887394,0.48468676520694254,-0.19839780468096435,-0.24562899468859994,0.24568854796201806,-0.11624400993785608,0.12308740789336228,0.012562264873191294,0.014447449950342093,-0.09431044906353948,0.1445786008921146,-0.04641830794834029,-0.10071517087651988,0.06047646160494333,-0.028692473876472877,0.028500728945346505,-0.026415167114046234,0.2231621496991462,-0.16048969196456306,-0.08988084380219699,-0.2951856880358741,0.3852566375622819,0.31105594543778503,0.99003785720945,-0.6778744864008537,-0.014458881094978449,1.0038202906536473,1.0375032049182409,-0.8297628382427833,-0.4913402863647272,-1.2409713311351194,0.7631997104435774,-0.49782236340073294,-0.2984953694274012,0.06600200642446002,0.31276346760492163,-0.2574658531021906,0.07984992713105042,0.07661644126037742,0.02661171971586388,0.019822015641107856,-0.02805010093938717,0.009522883893576986,-0.037912485550560385,-0.07549328844356909,0.16277582925584752,0.17900152500086633,0.06580425168476108,-0.03591144875031308,0.027102262521495578,-0.028448911468830634,-0.030593183596626557,0.17129719028960622,-0.08985992323293035,0.11004362528967468,0.050231687380285994,-0.14932417075913887,0.03621063502721874,0.004283886736366653,0.08227118259119921,-0.09867714762024789,0.08241203701601453,-0.041183771402365114,0.0875102856197053,0.13697509306010777,-0.049905979152081205,0.03899060335427378,-0.09890985837453935,0.02579759097539263,-0.013965345048833566,-0.14569549960722472,0.004508143418645933,-0.03488668541272129,0.10748933977697979,-0.17132686370463132,-0.11256151776872768,-0.09124175427968234,-0.07581701640513419,0.02543732791240262,-0.056773190295634664,-0.14362739812419792,0.009863873271375775,-0.11576693929308449
15.015399932861328,2.028200149536133,-0.11818502261759196,-0.10495767692115214,-0.10845195773435522,-0.10345616910924997,-0.20624536892331352,-0.3807289117855229,0.09294392303159286,-0.042245691662040216,-0.06817021095670033,0.03208027001317651,0.0833325920857075,-0.07969913326703389,0.0982941327178659,0.08769626299719305,0.08854142194375492,-0.14806868980488957,-0.03297809179856496,-0.1318741552780004,-0.5975169150859061,-0.2265266702310546,-0.34689267494988185,0.08604657586871721,0.12091231684707296,-0.02009206872355432,0.18116676549674848,0.23798433033095467,-0.1159825047793428,0.10539861179456926,-0.037671359958992505,0.01650713342499059,-0.015117025446444776,-0.053286088476866555,0.2010825373692024,-0.21591036394286078,0.15056755996130972,0.00044115052954681044,-0.2374771159799951,0.1299330188536154,-0.3118142933404583,-0.18761394398443462,0.06080043508944343,0.060955160673681605,-0.4264396768869755,0.11479369656314442,0.6800036289832077,-1.0686508264021886,-0.41284813657540587,-0.2530795207236207,0.6167614889595712,1.9358112956916362,0.41434892220528385,0.20533345993914218,0.0700951659030912,0.19661797042804846,0.1446533731634006,-0.0338127827371542,0.031652604162963165,-0.08263905891806754,0.012135500218297584,0.008851212659317854,0.06027993978694708,-0.03276758446558316,-0.03726961513648704,0.01124778129676899,-0.05967725965588647,-0.06546195147128064,-0.09131097676106216,0.05051671794851961,-0.04783456396217772,0.006705191357848038,-0.006006331695535164,0.023331336716454383,0.1308011325974961,-0.005941380576005663,0.13728063542702834,0.09517506877011372,0.041122489050810375,0.10096675949298144,0.10395925179684334,-0.12459994104832248,0.02540329726829307,0.0029937609030543794,0.014754106102147724,0.05436199862240617,-0.0461265566390019,0.07248789903874475,-0.02102102202465344,-0.0553596413240985,-0.048730662654860174,0.0041470317262225515,0.12432442889773432,0.009864194889519465,0.01858672967042181,0.0960943536878716,-0.04334742704389161,0.0035249650093902296,0.08349037205730067,0.2693037440065344,-0.06325927642338985,-0.22050182232771512
18.972299575805664,0.9493007659912109,0.08905447001470784,-0.041645075971610615,0.2588158336927153,-0.3122265340473671,-0.24553100695576352,0.1940090665113395,0.08865421795658932,-0.027751005097086133,-0.020097726951475273,0.04903107766576386,0.13351564906700458,0.11207345893523271,-0.028480712108147774,-0.019764929606370274,-0.19809125848844372,0.43323204256381476,-0.1097524677809624,-0.26285069897601954,-0.025654234049916833,0.08221694628687637,-0.05782718660190704,0.19165649651201128,0.1486100680685991,0.13214933190659237,-0.0003857765875944115,0.2536823178476002,0.02612110294584502,-0.07434278402922409,-0.18848806960589093,-0.030111440217758176,-0.04131986645215778,-0.12024137975530753,-0.16827250557113616,-0.12301153941105053,-0.11270255333274024,-0.19458078784356303,-0.16007408770460108,-1.172650963673185,0.21430707967934068,0.12480480315964067,0.41773440287463565,-0.5729958431764315,-0.6365958991463903,-0.1844515431642086,1.3703240174545586,-1.168324594755327,-0.23409728717115588,-0.1772557452269016,2.0934082656540625,0.019873033202783573,-2.864683740910515,-2.1339688943472535,1.6112305014735706,-0.10265870157191581,-0.35675284735737006,0.12423997793007771,0.1486191745964635,-0.04450018292500722,-0.03108452027401671,-0.0688154936585983,-0.040410306225985716,-0.286729018228757,-0.03997140325752661,0.17946698079873985,0.11477373441628329,0.04798259073402709,0.005685513109138379,0.02639776150747511,0.10541135944630528,0.05382141484707505,0.007065035124013491,-0.13191005931368244,0.0400494285283656,0.06907373865862818,0.00035615580974710935,0.03937133298634186,0.08515768729949576,-0.004835271871635524,-0.008885792855761125,-0.07396229107923087,0.012239440193790127,0.0007508494558216129,0.024686287638414028,-0.044313786403040706,-0.10182478628985359,0.018717383873603638,0.06738768802802392,0.03658835974254322,-0.09367545052120718,0.1893442397197948,0.19697948610231586,0.08444912713649538,-0.03191180367172771,0.03160986870927221,-0.060891029610066365,0.015892051650392387,-0.04676474425076911,-0.08615724468998362,-0.19945068032978142,0.11349102252347179
19.921600341796875,0.9592990875244141,0.11655667633216402,0.013020814664815267,0.36206519485053607,0.05520177085541679,-0.06843433699116656,0.382250420089464,0.2685950849219291,-0.029290653401667185,-0.14901672969595606,-0.04550602567803403,0.248265007208927,0.18318787365893086,0.11329431897675615,-0.08866476385971518,0.0253296782081349,-0.055275812629824714,-0.1638783760252526,0.15213241807224523,-0.13848826469669145,-0.19270781377431964,-0.21152216696496012,0.3064880472071504,0.11958005747850664,0.11620844676630773,-0.006158295498490028,0.1565424012741296,0.005266630530422939,-0.26347240552647144,0.03654417760338763,0.0048349629303863495,-0.07429856122112448,0.15571014486796345,0.22469313898551813,0.03679147352816347,-0.07090920482670884,-0.5957109299232474,-0.1868380253202114,-0.34504619015360727,-0.688723518560393,-0.6600767273249168,0.23343178773006043,0.6180487278086276,0.0711504309780066,1.8935515797664928,1.4403749254038842,2.506287445666313,0.9130394682949386,-0.18881673848631844,-0.7849491612591789,-0.1710941880035018,-2.966911056061888,-0.6020299398654552,-0.17244088378440192,0.7827624445701021,-1.041513666045683,0.1517037409268888,0.04109107420301103,0.04203918538394469,0.045922675846078016,-0.20427271606930994,0.042381743009638664,0.17786834274277588,-0.11131851287648264,-0.07878907049042826,-0.08556493793378592,0.10969568719533496,-0.17816716368569677,-0.03332041017162458,-0.10127554017568045,-0.059848120823431536,0.22965334316522812,-0.07018945133931467,-0.16803748092084259,-0.11487519184404259,0.040567364232474305,0.000698534624219354,0.1975892385689855,0.1709942839640897,0.0077550374313348006,-0.028081500072135075,0.13188684177231175,-0.019194722570812332,-0.04578533050612463,0.13888024830784115,-0.025494534211273012,0.020637537194846525,-0.048726192775244065,-0.017175049762700113,-0.11126981440359242,-0.11902016175162995,0.23154043990674741,-0.06689194664041465,0.08505374707749641,-0.07939750414715446,0.12716781648351413,0.07520185187039692,0.30448773234214577,0.1677553386843815,-0.13591794085186962,-0.4572276819434401
20.88089942932129,0.9894008636474609,-0.4470883452407025,-0.22471656902600134,0.1972215182165026,0.1881712961089222,0.1594241656439416,0.41344084669132525,0.3697420084493805,-0.010647123599618074,-0.013106948631957433,0.1365467569536713,-0.42659283779813945,0.08917756751742488,-0.02157833277899618,0.06246746908792194,-0.01309466233338591,-0.013042029329352778,-0.2773197378428845,-0.0313445081928652,0.11040471203498331,-0.005177648958917934,-0.007466362927156613,0.1365877451261454,0.08955185340939649,0.07238247064172015,0.16434142613838343,0.19093828555169004,0.11344904129222896,-0.022295323420932933,0.07490625480713486,0.21409407157224586,0.11081708732397558,-0.22002915612331872,-0.13460470725610485,0.2107378281518354,0.38602984708753063,-0.47824430530759354,-0.3200962496326037,0.41435464549188966,-1.3591111971365462,0.39216151400986243,-0.5956363292827981,0.3355831050467555,2.2396454160858967,0.31365946492194396,-0.27303130165058526,1.5720067050128346,1.9241774512064183,0.39275428172970955,1.2063361923920641,0.10487827103068215,-0.12225265071903148,0.48890730020206064,-0.15113270403924225,0.11892200309541931,0.05382898482370537,-0.10163109299394948,-0.01703799884453697,0.07968103995785861,0.052301813779581124,-0.01645995739470186,0.011317056304803692,-0.09366655790102202,-0.10850807472850367,-0.026465787190621468,-0.1264269541854858,-0.05997717769385324,0.11783543645164443,0.0029519281447209916,-0.10780337508685794,-0.2510411133716009,-0.14708594585354579,-0.08863052349922118,-0.01860721802281417,0.09367987337391728,0.0395013244595786,-0.012802513225292085,0.06959482152656267,0.1022728067864882,-0.007094353130309913,-0.015040146257379068,-0.02958894134695912,-0.04368501967111252,0.04342542690283971,0.13716791961855354,-0.2037604458704054,0.033580828599005616,0.039975653330246746,-0.022914937170399993,-0.2339751551905554,0.004483324003101219,0.1957687263260942,0.18236205247205112,-0.1025100896533469,-0.11934874707971352,-0.31610725976951426,-0.21027892732220693,-0.13204064312374444,0.15106240790875147,-0.3159962507146131,-0.12937187360246044
25.058500289916992,0.979400634765625,-0.17592885297596322,0.3607108887862451,0.4147403280793166,-0.2729089202353484,-0.14551615311832386,0.19465459368598137,0.11251278109767662,-0.030112984069972145,-0.0051497821673071095,-0.06136283539789757,0.07710073466631226,0.36240668910953194,-0.09152515686602047,0.016992141765566075,-0.08989076712412995,0.06256829890359245,0.3710950853629881,0.009045211613323034,0.9374517138356194,0.6264162380458047,-0.3708445635909488,-0.43088145607564277,0.012581446834312438,0.11960978928605716,-0.3048472383053169,0.22492447139078767,0.1625282000884579,-0.09205600896152442,-0.12247378182217747,-0.09976639328136461,0.37100976051786033,0.25619855979284173,-0.5523184531187763,0.07078079311878617,-0.10165673704332367,-0.01532763867253338,0.39094298874900973,-0.6068379171625046,-0.3815557078362206,-0.5450536966790935,-0.3183308536588989,-0.29670638145474315,0.22851182017457095,-0.2176702291705409,-0.29746156460325096,1.5567447675349602,0.10092916722908396,-1.111427379498707,0.6159645939397481,-0.37227378314414866,-0.910384278316383,0.765762184036079,-0.5395306627614926,0.4975194275527456,0.3654373169662284,-0.30767047316378926,0.048221399098584916,-0.10446299149341978,0.17170095412782982,-0.0351148282950506,0.10598071719332386,-0.09084049219940854,-0.10804624496722992,0.09766912731872718,-0.001405073130709983,-0.07420256540778589,0.006937531099084912,-0.11119550365633564,0.00013078439474006193,0.04610149390956759,0.012626188924059617,-0.0037545301125306574,-0.10200509526329633,0.062108954285372636,0.09871289267299475,-0.05595297536987459,0.019203362972429222,0.09857427643135697,-0.028929781135935195,-0.2309715738251195,0.04305516354663723,0.03995714994501781,-0.02576334441630812,0.012575846472443404,0.09604904441164905,0.029653287344794277,0.04300409317788332,0.006925461909392324,-0.08757996376250976,0.054116632202082654,-0.011583176993413035,0.07991076761575487,0.043245174015345896,-0.03460317693312516,-0.010254047590377227,-0.023483028753686574,-0.10450828587894248,-0.2633716338323749,0.06674714545245702,0.14260192791191395
26.037900924682617,0.9993991851806641,0.14780401602223936,0.16425181756587648,0.257685478534865,-0.2243200058896916,-0.3254185733587588,0.06752465715750167,-0.10797098421806434,0.2131810726978685,0.005254554683816703,0.012635451641593173,-0.0876572236505115,0.058534611773863425,-0.062359254497848605,-0.09341805084628452,-0.02476849217182101,0.05073720612756527,0.04363581709962118,-0.21004784665161097,0.005594907494012898,0.15022144341977192,0.08179164923144852,-0.08741715933778815,0.06315954469126145,0.27926833261788747,0.06401537880674099,-0.03425008090121557,0.14385566687723994,0.08250681745694984,0.11382413248135678,-0.2616830899664954,-0.011237417393992246,0.038087660690791544,0.11676088731429275,-0.24768636577263525,-0.08831640760890612,-0.2547610537927442,-0.22211074813559015,-0.006854185175657385,0.052946473930372995,0.06156588149379081,-0.6491235019870142,0.5503243684728761,1.1908718949418986,2.3414281535396833,-0.46748194984971214,0.2123294685671222,-0.5679373050206838,-0.2887567042977312,-1.3597257921316808,0.10206109088461157,1.4119976246942683,-0.10948739877726471,0.25103186825744384,-0.26337279364522853,1.720659606258468,-0.7085497855022518,-0.3304038505336252,0.03500021483080519,0.03341806945065748,0.006948424450646407,-0.07142558013359379,-0.09546368308614767,0.1801679036311264,-0.270437729409542,-0.03287514327967682,-0.01777250233219602,-0.009769795581047996,0.09302362559923058,0.18234186970806598,-0.05097374528250295,-0.0022172733496671013,0.07492944865464556,-0.11399016828023431,-0.1668055737212228,0.0330492987987999,0.02437707641342656,-0.019306488151297055,0.05954753071937939,-0.1304736921336081,-0.1422682702155764,0.021862587723785885,0.1366737848493632,-0.10702923821147778,-0.005401603505710687,-0.0038093197441252183,-0.021679499015456946,0.023133412847209503,-0.10662918907557262,-0.06591264083592997,-0.048110920482298716,0.05065033689680562,0.12117672021713366,0.05845272158285151,0.026024731916019797,-0.06490586214616621,0.1997706046092226,0.006796468292290579,-0.005190594704538438,0.1827076334073805,-0.046215091042246345
27.03730010986328,1.0690994262695312,-0.18646276502018447,-0.2996650416161932,0.068898564003109,0.033822497137282165,-0.1172019698023108,0.5254496783032676,0.15041549215167835,-0.06595226920703624,0.06775084686949608,-0.027753888335152094,-0.09692915956308068,0.05594242384885499,-0.05049826616367943,0.12825826580239325,0.11209853007064732,0.13749436086362005,0.6630015745516636,-0.23676255663727358,-0.03483915896598136,0.0856013674532132,-0.007774783859506293,0.21942042911821133,0.024462420248876935,-0.1480114488979634,-0.12998138918303254,-0.37366589816788326,0.02716339999285139,0.0316831571582723,-0.13240324392172892,-0.14881332489291207,-0.038437715622639736,-0.15313999219187527,-0.03267274240383512,0.3009560569255698,-0.10345677538020767,0.250944479211706,0.11505721899446009,-0.3899107137629255,-0.0647551137435906,-0.2727341396392484,1.7003761477500419,-0.4559854646160883,1.0933616579921013,2.4432522905928025,0.2036852650279218,-0.23395082553626298,-1.7694851754430911,0.36761618895453485,-2.065217056064547,-1.579714824560307,-0.5065124981447264,0.6556327994443787,-0.007873286039996052,0.31045016929483127,0.04957038647365521,-0.027806176606764613,-0.10187746749004084,0.010836625447395942,0.009869061370173687,0.03853449307519445,0.05912569154032632,0.11196986628825276,-0.003485110403234737,-0.049770745649285755,-0.029144613673911253,0.024340737591508104,-0.03857543702910641,0.09904605528955177,0.06458105854804104,-0.05638681100334704,-0.0017541011651350871,0.09133048416015378,0.03412461926082214,-0.0439335834009512,-0.158802449348906,-0.009831969164230639,-0.0029401961049927983,-0.05781334815946718,-0.09799095137801339,0.040805028521954695,0.05576253484360483,0.06636795398007772,0.09602456614871376,0.04408189029044885,-0.08221469742656858,0.001551498491203448,-0.013277850929887362,-0.0441260082659877,-0.005580747585814311,-0.06670701564773893,-0.1505303366924791,0.11604460521684344,0.025018301969707574,-0.1335364945066783,0.05191579097454913,0.14311222493031361,-0.13512117914375749,-0.09335712125661635,0.36230659470569654,0.421786140972641
31.484100341796875,0.96929931640625,-0.08047935780477039,-0.012059552761392797,0.24038804066204392,-0.19405770630953872,0.19896348679726725,-0.039259770810222465,-0.04503147223217965,-0.12296978790623977,0.06153170299298044,0.01290987298215178,-0.2259644346424147,-0.1829266337257298,-0.016967558007779614,0.008077582994471783,0.030399929455595092,0.045624291828315816,0.15360252258826454,0.20341261567689584,0.18971250475897092,0.3780146104491578,0.03317201778947926,0.2416810072801014,-0.06935465361479762,-0.07568055643548746,0.1387004373073926,0.08463296695668308,-0.04646806032675467,0.233951683683302,-0.04958849189934796,-0.06427679369392843,-0.046634097094021026,0.0009206866937632313,-0.19178634189073465,0.0402073339002231,-0.15704037920585665,0.020590901038328252,-0.41983285040656315,0.6236719302352225,0.02148144169736472,0.030759891183745572,0.7249626224334758,-0.3412701725579317,-0.5943631772825099,1.7382048146045848,-0.3769873014567541,-0.8726786951934747,-3.1148168088401498,0.8986635639809938,-2.1025911090223324,1.039444167525623,-1.0241516799444963,2.3489804930457447,0.3693505541343791,-0.4214353082614899,-0.27107178219443684,-0.04003561740461482,-0.30969027641794267,0.05040486540827106,0.026102292623896857,0.05971375244424382,-0.009629146677169506,-0.046408357895672145,-0.03868620838139397,-0.10604445916026409,-0.09209429849387316,0.014258057950482027,0.09806878585318807,-0.024026345299739474,-0.10737273350416031,0.1541386315209079,0.09077428927706693,-0.05513182396027703,-0.11006800636747453,0.09470907885570949,0.14846769189538786,0.07221384018451178,-0.08763539174036136,0.05438819182869621,-0.08237433931362154,0.004496959755273766,0.01870497300567673,0.06607335536212164,0.00039416585013610206,0.002027753958486977,-0.02552424644342553,0.012887358970306767,0.09538843504841626,0.04921721201489681,0.0015171918705386197,0.0030830720703383836,-0.04863252089043835,-0.010811300641805313,-0.04575826027053918,-0.08616240609646919,-0.11310144925827527,-0.071557055898336,0.1507063548486286,-0.03796435838904796,-0.0812183921075655,0.024134050111525196
32.453399658203125,0.9793014526367188,-0.11195284731919702,-0.2617570016559635,-0.3160685529293605,-0.23275039977509585,0.34027361639181597,-0.10876610841539538,-0.027658577462300965,-0.05876841765679848,0.03436028375580901,-0.11188881734761273,0.12525551899063017,-0.08321413816570002,0.0524313497518517,0.1502648653716834,-0.04976886406286801,0.21843014347335651,0.41550198053962495,-0.18842602838069422,-0.14956281958759066,0.08788285948943676,0.27494755832440004,0.1052478275787431,-0.005440828028083704,0.1245413802241443,-0.1320095631560099,-0.02722224616726475,0.03383176006926386,0.11922181905872321,-0.01508068095230608,0.13251093688721255,0.05397124302421273,0.009755132540638839,0.0809048277970112,-0.027896733185448552,0.10533453751746866,-0.095852570708504,-0.14382114728622947,0.5104459081797739,0.4238846571487948,-0.36336911046463033,-0.6054158834652676,-0.6581041424581989,0.28431372101909475,1.062012127324315,-0.5488166009252493,-0.5824984363640113,0.1023218193751038,1.3261292456043134,0.05290676195010405,1.1292236512328155,-0.46690754642949445,0.1039810792402672,0.006088344468655131,0.003534360597057036,-0.2791929178436312,-0.030592754948829997,0.15362452088527087,-0.027960186756164615,0.037833331865700856,0.021306611194684938,0.09451115105721772,0.014776149549475745,-0.05496615171685325,-0.024553077488224894,0.04768009634217468,0.06084252860655422,-0.024810919687543526,0.06403974430756298,-0.034102187353402896,-0.12038385540166784,0.17597446257530788,0.13190007250822264,-0.011935072548273765,-0.02928159475940033,-0.17430328211057622,-0.18386409814857005,0.014134675360421595,-0.20510760300407976,-0.11524014557257858,-0.019141727347634,0.024108621888163234,0.02371191479033136,-0.023340516783234816,0.07631275233881679,0.11307230027657755,0.08661770755331627,0.13213060138884775,0.15973234095860625,0.04845733725420812,-0.009685529614892802,0.0743462347040508,0.019546586986657774,-0.029946033285775244,-0.03603328314552819,-0.012077787350041534,0.04206990118978166,0.07937643849622782,-0.20900466529656073,-0.12165514721386311,0.21538340349040724
33.432701110839844,1.0391998291015625,0.08621394577905372,0.3681720092468658,0.11496706722020004,0.302952521932811,0.13015195674786806,0.2565225824314029,0.21839119649935157,0.17005293032049226,-0.06925757645006198,0.05198244085466044,0.009480201819236256,-0.05329149771884418,-0.01693703132396582,0.06651947666447669,0.16752913480572273,-0.12284752576372421,0.08596670522940184,0.1692076306173395,0.21436706234901032,0.12691928457416177,0.027418981212066817,-0.08093863274699094,0.20042206626753006,0.07984635376231462,-0.05717143388133756,0.028903774592894733,-0.07990710426532567,0.006064004830725875,0.10151467905932908,-0.03642633344558056,0.10944689418062155,-0.04828754356113932,-0.05126207324364818,-0.14130208329058466,0.0006392577948338696,-0.44497017168768793,0.09668627723161305,0.18576511219567224,0.2770124095995226,0.2279533114436647,-0.9622427997678841,-0.6840639963772615,1.777558637938948,-0.7956410398022674,-1.3788646044768662,0.9420355290500895,-1.0244664085177237,0.5763984475655018,1.501413413230153,1.248898469187694,-0.48460240988010095,-0.29278902181173516,0.6760181833846377,-0.1704158575956883,0.17383348068680204,0.13095731401176375,0.022078810697094473,0.0075888673581853555,-0.00987867650589885,-0.027395354459563058,0.07968868431485578,0.03012079512004532,0.036245898674691884,-0.16856188128714492,0.06409507410603739,0.16928103687122617,-0.20240418949303834,-0.10078583349240712,0.05529208420044886,0.10314732157990429,-0.0517051191026525,-0.029851326120222905,0.03957777602108649,0.06768483101747466,-0.08209677532202202,-0.07918623025671141,0.010754190346787458,-0.07164815890248827,-0.08659396285856955,-0.005559179468949474,0.08700938822421249,-0.02146967479991908,0.07555946089599917,-0.03945621138229201,0.004343063659923835,-0.06659856522834864,0.00037656389538039993,0.02224879872484923,0.018316925152855535,0.006460277836391411,0.11853026943511713,0.006148271563687992,0.10708351550637467,-0.04395675321974849,0.033199071720415176,-0.08213814076982542,-0.08303309250506581,0.20623689588452326,0.06883003044955353,0.011348964508720222
34.471900939941406,1.0692977905273438,0.30907254039381354,0.1782359729841557,-0.13244989166907278,-0.47916110642158366,-0.2005565010400353,0.2383162906411474,-0.144946678817286,-0.122436437950481,-0.020686088020733896,0.0445745270818357,0.020868337014071155,0.23387373901525935,0.053889867517732046,-0.13485917966577646,0.12991114953468386,-0.1611514422218909,0.08106028447576628,-0.009117799942795837,-0.0034762846767385502,-0.31992731699283494,0.013048409982731893,-0.05259442408169862,-0.46054420667393764,-0.14653612054145457,-0.17532335061238094,-0.31512207379463475,-0.22228094188522668,-0.019026349566087467,0.14265096990741025,-0.08380522523414476,-0.007120804623398257,0.002400627983487195,0.08167428592364741,-0.011012325301445303,0.22833086683328208,-0.17291478577271605,-0.12692285338952622,0.0024326058076410556,-0.07418848111620255,0.6019967244824954,1.1631139077813493,0.05872794971873457,0.010596332661667414,-0.14628895811759673,1.2954254172385362,0.12048273517508698,-0.7750965502241399,-0.03445455344107726,0.4997802433196969,0.24266302322438973,0.16852536251419645,-0.508517899740201,0.31032509408168846,0.007594183874355815,-0.05223642500722196,-0.051900254575248106,0.009166128672492313,-0.016029666887263996,0.05491573334344611,0.03461477689426623,0.0689202177601873,0.07180729518118852,0.034799195522628314,0.06779097506096525,-0.026050429880013146,0.10061232657476935,0.0771885997499718,0.007432659172286441,0.027519523030542108,0.0023655081320432684,-0.05016411323166548,-0.00404986769428471,0.06535116937631096,0.006752069737146127,-0.005370532140027626,-0.21464889154781921,-0.019894040715498357,-0.0073706837413893755,0.00958148830452674,-0.016117608738056587,-0.10342235767058991,0.07820256626095716,0.10375797752480607,0.16378522429861855,0.12099086979736098,-0.02286660306833644,0.09625711445496385,-0.10814687784216613,0.0006411753284298344,-0.020939060975382673,0.06254957677213446,0.11209942394655961,0.06045472012671826,-0.13851429427348272,-0.0518908931910993,0.07663180004312073,0.06077460910371763,0.7361452627790245,0.20938495858878006,-0.05714102045590975
35.54119873046875,1.0393028259277344,0.11009736620405454,-0.6764190573919352,0.28820852879138337,-0.021367804855660186,-0.06887958625054036,0.09337785472955075,-0.03277295403747664,0.03082929034908334,0.3305812622734815,0.03964411527927355,-0.048595128697194345,-0.15476861654717655,0.16507763291036906,-0.20102689736240306,-0.16341919572977986,-0.13347446368573726,0.08819670059285586,0.9310940861264129,-0.23371070324004342,0.12194861639679458,-0.0194187002098766,-0.14710275349211463,-0.13746451659675488,-0.6465084508400656,0.047353433763728234,0.10884763305288399,-0.005023161111097864,0.055280256178045856,-0.22215040911409362,-0.08067994841924032,-0.23559009300582634,0.12864637354024108,0.1866031021276912,0.6270410597812899,0.26125667657891133,-0.28943544349513906,-0.347370866710141,-0.29318900715112606,0.9412183552639282,-0.27554012473877687,0.2042387165496442,-0.1353884748304086,0.1340195078230003,-0.14127597199128045,0.11758865759760588,-0.13753409641406147,-0.08112498059436385,0.4345748329771816,0.24159117192816962,0.018487692716036785,0.037978064270372446,0.10497606341046885,-0.020449378039462285,0.010617261022528579,0.0010471162895989566,-0.03609583873741225,-0.05631647101480848,0.017671544910930682,0.045688885599980154,0.023873477276940253,0.11647295719339748,0.05937516850856203,-0.01351164562760912,0.012259624109857502,0.06642675608101033,0.023440901440402936,0.004723152700496475,-0.13852341727888287,0.062288146993765565,-0.008575877087238476,-0.03953280558691932,0.050796866105017754,-0.05225500780769171,-0.14994680800698312,-0.06770665072723384,0.005494968603400172,0.02547960604402641,-0.0994117771561378,-0.057613749661981,-0.06127196215345917,-0.19537226820204326,-0.06764300359665498,0.015981745087675008,-0.01409903885568957,-0.126420690810863,-0.01601720184924692,-0.04231006195867783,0.018546564769667883,0.009020104914169023,0.02211605801608214,0.12427870424064433,0.07870493026596226,-0.0893073372202774,-0.09632348019181458,-0.07729637554530722,0.01930754336397032,-0.06324661139648836,0.013884702664455628,-0.04941913447027213,0.5042232134100637
36.580501556396484,0.9990997314453125,0.6526222398887291,0.1912193203586202,0.20970670950897588,-0.29794431075561967,-0.009895352573737254,0.16179365274877192,-0.027591640086886998,-0.004848970988911565,0.25601328251942057,0.2523549880888324,-0.05110181467106371,-0.06280112281218539,-0.14849832198360954,0.029081846495894726,0.21660733056898035,0.13142850957215357,0.5008936252564605,0.024196529574228624,-0.15862851885091847,-0.12143910809405584,0.09169586755452004,0.4156633216390455,0.16456692949799528,0.12527084591846394,0.17030572528775192,0.02127470243884029,0.12253203523125152,-0.14595090140020212,-0.21423339137016684,-0.18892322013796015,-0.013288554918695676,0.13038479830973027,0.03612509085790828,-0.3016526856229645,-0.01839361612961113,-0.17112858301567008,-0.24880502824004705,-0.007322077316434793,-0.21497120354294763,-0.37294230366151715,0.36617202386312314,0.15705713030887353,0.5799995947683952,-1.7160063979088953,-0.664196041568596,2.4896740619227127,1.8050440618127186,-1.2346687892504349,-3.8629618512734933,-0.325343146686211,-0.6330775808684311,-3.837552716412133,1.0151018948101527,1.6434506051868525,-4.026191427905799,-0.09561717686567572,-0.3431532211804835,0.0779924056268835,-0.04879672635945961,-0.022214555160028487,0.2096212000373831,-0.10017131695359296,0.01659857989635359,-0.14787361719149747,-0.23478840010171012,-0.029750578764015538,-0.06985156350346101,0.01551153136231342,0.03938756862020924,0.014599695844166285,2.2258547675779988e-05,-0.009098974459299622,0.05964712722108746,-0.1331697727567109,0.06602703305273687,0.08028064831105926,0.1238113123049137,0.11802700147311046,0.01665394501294471,-0.039697960691046245,0.015495115353686154,-0.011117449714557536,-0.004142151985852427,0.015427045421698576,-0.18029362052145226,-0.0843809594970529,-0.025549200556058582,0.030800267892373154,0.0361642692733697,-0.02202005464114206,-0.0023336433662022337,-0.06065456326662445,0.035471536506282215,-0.022124286729110786,0.04314618877393564,-0.03799508745794894,-0.16248995978350372,-0.08430442517309465,-0.04912616782594777,0.29758836413869344
37.5796012878418,0.9696998596191406,0.31009691074421886,-0.20766624285085092,-0.12009913953232068,-0.43517238170993267,-0.1759023606409106,0.24458362465476471,0.18539720187666936,0.07511458814002409,0.0019373467894800473,0.12950812664188013,0.06246406471307119,0.27467294234535167,-0.14028397386951574,-0.07210099021944442,-0.008543061944927348,-0.026581772859453054,-0.2064358769188043,0.08313106884881773,-0.00484098678873061,-0.3120225065163652,0.26946006821743324,0.42372408355998153,-0.27173408704900115,0.10470835432461305,0.16815308089368985,-0.3197259859450154,-0.3696792407236152,-0.1575762990143684,0.2032825514086443,0.17970233681694647,-0.014398788901265232,-0.27282963610491645,-0.1005216640439848,-0.36589879938595743,0.0768143153490597,0.1353774881077601,-0.3373922712755535,-0.19170099314321415,-0.1941886316921628,0.0481195930641434,0.21045486609931846,-0.28704762522817245,0.7295377405448,0.9368813078970464,-1.112223490538173,0.6736778889528312,-0.22425458355714387,0.726170319581851,1.7216470801100485,0.27673926176318137,1.0320689769800422,1.3811676685874295,0.7365766642171091,0.16631537759909498,-0.5041203533728944,-0.28453657312985636,-0.33219155410736095,0.09827522282824913,-0.003232699412998849,0.012288843625677462,-0.09780499566508954,0.0975650394379103,0.41623862081439533,0.05537165138598082,-0.3064400883770975,-0.007208840743457817,-0.08884892071184007,0.10588489854619546,-0.09386251394286918,0.11084104064273947,0.20636904606362977,-0.04293655780455821,-0.045486855068168755,-0.07779233045454449,-0.10165523447955371,-0.09729392434314604,0.06645564157303598,0.06320334685151933,-0.24622780396616611,0.08474910707004037,0.07491901243055375,-0.02663481597694292,0.020080029386334835,0.0331902115151835,-0.08352254290634163,-0.018485705525404798,0.02650234537340411,-0.006000668194653782,-0.021436628215352888,0.013355213156295623,0.045101017090382806,0.04327417296584761,0.006785684378549114,0.10683000048284028,0.05982891713273167,0.1131444587905853,0.1206501134443467,0.10769648004617152,0.5159854809178941,0.148067018203573
38.54930114746094,0.9590988159179688,0.14901578767155177,0.10371768987432506,0.3607842160593482,0.07721511430786938,0.013844629005957282,-0.1161960323176033,0.3821699346653398,0.07849641683451093,-0.007354041038188741,0.022820656195989383,0.05340608065712217,-0.030702991357458922,-0.06146895829207608,0.005539749529630045,-0.18877763612985823,-0.14889124194444936,0.31484592378002396,0.4682998841539799,-0.11653122231880068,0.13930298308648867,0.1340410304757479,-0.07459218124310794,0.0018220492021029044,-0.04362034800890752,-0.16528902812017995,0.07561690921819919,-0.047351707542584956,-0.044334668971772316,-0.03139258571454151,-0.1418150235532694,0.2123120458612611,0.04439560340541444,0.06423284578153567,0.12798493959131158,-0.19174937956204363,0.2740834361849603,-0.41729679901167616,-0.06481718352341378,0.05168727180430245,0.4568939745418854,0.5212630771383686,2.0262344165970285,-2.7647538000622593,-2.368311191164666,2.244653167216718,1.3002591044399445,-2.760529215378234,3.1938338712378096,1.7238180159973886,-1.031436804116318,3.5751953320279926,-1.080579110560108,-1.5961338660262898,0.12947419270692767,-0.05230651633440911,1.038280030555299,-0.4029409429005158,-0.016729419178914032,-0.035613540005006425,0.0239137777636324,0.019915125364239263,0.05380990580989524,-0.13358815988476547,-0.10268057735301862,-0.007941956841399013,-0.008741174894612026,0.07207382016489158,-0.04334322773586319,0.09252622812199553,-0.08194010593956985,0.01195880184528057,-0.0027329741077867565,-0.06535066273199597,-0.01881607314570104,0.30161032233470497,-0.05646778889767165,-0.018493436646193892,0.09008704532024758,0.023444069636485036,-0.10064293989559585,0.06068281961987101,0.042198636182850593,0.02913750478099491,-0.003551869303598178,0.03329099094226581,-0.04554093772814445,-0.010731095163632768,-0.10035188663741579,0.025228924100427944,0.030300321137892966,0.10316671535127696,0.1343007220143597,-0.02233962509006864,-0.0480526243986953,-0.16208214897883252,-0.04105688118236883,0.18577137665447602,-0.25985634748887965,-0.2302778242437536,0.09018989196688436
39.508399963378906,0.979400634765625,0.10890881491223882,0.13691450195678,0.0443675261488231,-0.3144618392398122,-0.5578701940346096,-0.274649469189042,-0.09649541672735086,-0.03967253671997966,0.09841144199818917,-0.023729436981759056,0.12516592436600782,0.14065147225591582,-0.13326513182416244,0.0465934425494121,0.066770139534301,-0.27944763165671815,-0.322517493947847,-0.22094478791020505,-0.198509942357403,0.31970213502258493,0.24086536673192396,0.11851077525399958,-0.0713561285683514,-0.10852859495367743,0.06203787857774406,-0.15470991319787214,-0.03202163046331371,-0.2706425484482768,0.08844043522653687,-0.014928795597284484,0.16783792931047894,0.2963102373596319,-0.20934751054554318,0.3668827333579026,0.2074541654055045,-0.16251825932881833,-0.44007670311497116,-0.2850524420259963,0.007015842269725167,-0.20355573953677766,0.585083562997316,0.3526510053241131,-0.675898063048101,-1.5039882279474432,1.6025113423981734,1.0872987740715732,-1.4278207906768607,0.6243295930285295,-0.7268133674601718,-0.33779745525500143,-0.07994759303498358,0.41695067681107323,0.20165490272924813,-0.04956908078217383,-0.18659792924874025,0.09411147109202295,-0.09168467789420252,0.027513642142827793,-0.0720396332202084,-0.08024127061079103,0.0912821677342053,0.03429314204135329,0.15279205835254886,0.12554918243307361,-0.05276263895853986,0.040650979756937655,-0.008276347037862487,0.034495064007284,0.02058332394675877,-0.02680342802475098,0.0974344592305358,0.06199961653555778,0.1619723262272047,-0.06800431968370699,-0.0678662656822249,-0.061449570632724854,0.04954325653791338,0.016788412708729397,-0.04750964715733582,-0.06191204266841474,-0.13092677114267773,0.11399056300691891,0.043954916499116634,-0.10456716284509658,0.0033208607628006613,-0.019833726498438235,-0.08139932632259819,-0.019593941629641946,-0.015950266641897873,-0.014188094520531505,-0.12405225761898174,0.0837240940179798,0.026114923677101765,0.09831016122317689,-0.12307406588379197,-0.06317863465469839,0.13828523709089424,0.1496913526958283,0.13625474099812418,0.6073095333404469
40.48780059814453,1.019500732421875,0.6212435382557944,-0.5699697654708342,0.35014384757071687,0.3647091583505194,-0.1858019760632338,-0.056479285297229155,0.14221052848309507,0.019316885431668495,0.02372703192139563,-0.3767586528710758,-0.07893355483349487,0.05934502533715273,0.05931257932074658,0.05742035052228179,0.24157604393919985,0.4881765981623202,1.1046899020861463,-0.21711310097217404,0.24402161153967172,0.05142384598239157,0.029125722997735,0.19566478376592855,-0.1833776564321317,-0.10614376760747786,0.025020589881548497,-0.03381759161812945,0.09051469206152149,0.11975047346500492,-0.12281219598302598,-0.10439588841816719,-0.08478370102449975,-0.044333655882226305,-0.06733849282714141,0.030243087693353286,-0.017570301268431843,0.10622459586779892,0.27258871955944963,-0.10855820418241546,0.06159482746715781,0.24464658610454582,0.17310103464931498,-1.1634400666833686,0.8739162028569545,2.545993166084456,-0.2902485194889355,-0.7631731312118291,0.35941654302370835,-0.6805200772342194,0.8243543935896824,-0.1889581716800159,-0.4674177533953868,-0.28745554522791017,0.14745441717039331,-0.2240754625130939,-0.20044037741075554,-0.0616458308026753,-0.06642051625387152,-0.022539254106496542,-0.07083989396620062,0.07830469083814444,-0.10364367919157357,-0.09934445894898272,0.011214704082507227,0.016087520999646672,-0.017411472448120066,0.04811576712026514,-0.09876308354413861,0.10484157080377457,-0.025648353831497897,-0.06903612929355152,0.09254787424779387,0.01032851992413784,-0.0785908025748715,0.04421547478203994,-0.08993615269256496,-0.23768874882605634,0.03405661749773831,0.09997295545508225,-0.07712086457965285,-0.041652331076108134,-0.030405177706699028,0.11000267251741251,-0.006483610951236269,-0.07140742190080283,-0.04414159882551924,0.05136918452049723,0.03160388692280898,-0.006017233182497466,-0.06153239674439875,-0.001159997372291107,0.028073115293088417,-0.050065153717570664,0.08659287331763205,-0.032629935200388586,-0.017931263285696518,-0.15598727290045905,-0.1373033062352062,0.007823665427085333,-0.030382444188417117,-0.29727579189481096
44.54520034790039,0.9790000915527344,0.3287161051444451,-0.3662981691945456,0.2561761229166063,0.0022280055932672738,-0.16478071921801263,-0.0674890184930186,0.15460138004764656,0.010729459208736416,-0.05973011784351736,-0.040370012159861544,-0.18850133750518094,0.09805635633715536,-0.03993986094484852,0.0554822458602685,0.00011483266588649139,-0.17804772095833282,0.12198864467153767,0.1144450611472167,-0.10344277133283233,-1.748701700909905e-05,0.05066947133448729,0.15799825689599317,-0.2066067077361862,-0.07643269972868065,0.06858421088531115,0.09857002661266265,-0.21248651695029636,0.19760632329030692,0.19497583231990645,-0.03233841135534021,0.16444778343818056,-0.09156500793765655,-0.07105057720106682,0.3551249518828443,-0.22419967315662093,-0.013821461890728208,0.25547329193653584,0.2615304904366546,-0.4103477874244871,0.3792905349014806,0.4749310003957666,-0.8260513318759348,1.2023469304581873,0.18090354439979234,-1.7695977091931545,0.6378944621295807,-1.1734868798040685,-0.9838492502485022,0.5111870928387554,2.0048162509072385,0.4559856299571793,1.0098513468600872,0.5250243279570442,-0.05224097359030794,1.0340582933031977,-0.9689661328736955,0.19422789518514022,0.024254307113743684,0.02165358881919005,0.0213848474545995,-0.11382632963801088,0.004773001051376624,0.3034185072964876,-0.2615125404497278,-0.0390474386774806,0.055460228585210894,-0.057342164019175405,-0.056580733493495045,0.09825489410650033,0.10248280985603515,0.012111783473489077,0.03273950032564914,0.01916301681251545,0.09089335708962853,0.022235354864169284,0.01929655930796167,-0.21663140215307186,-0.14735188131907492,-0.07661164458211345,-0.30602507049589356,-0.09312329380093957,-0.03493395781434915,0.01675597863283386,-0.013315810359869187,-0.09680185944072187,-0.043676827551533355,-0.023771152897252915,0.01045816533534053,0.1491543171468192,-0.11232186681214092,0.04523193457484008,0.031136817499470726,-0.1029617199535236,0.020798657715344476,0.004724202450413391,-0.009021659478899874,0.12592783029731594,0.11707528694074182,-0.07028194760138746,0.02762412781664786
45.524200439453125,0.9790992736816406,0.1786573969795185,0.24070571774235647,0.06932462574069434,0.21478840189392667,0.2809163323140974,0.5570103938030617,-0.2006265099166917,0.019321745475370293,0.06462789233543796,0.041556568719823446,-0.05995328502933849,0.05152935565363944,-0.013731039197268237,0.01928202408775468,-0.025151848416395436,0.44705576417944237,0.30299523791431815,0.30891949607149777,0.0597621098848114,-0.21213796433111817,0.06794000521720374,-0.05812053811917964,-0.041332629457013936,-0.30516800888522805,0.10814586045853661,-0.04172198803973023,-0.009100861933586307,-0.005691731552301095,0.3542629507425393,-0.19701875000110472,-0.11247925303856807,-0.15332398462978686,-0.1287277565275195,0.27463372216248755,-0.09507472710387291,-0.13352581786431397,-0.17212887592596676,-0.29413235446667474,0.21956930132504754,-0.2464603811272133,-0.5142157650519297,-0.26306731937817196,0.6148945968254372,-0.5422200078362988,-0.3479662789490747,-0.668766387380656,-1.2585129883480382,-1.9229667490782567,-0.18451143401878875,-0.6119772814250947,-0.24100497358525963,-0.0028612093740677663,0.1954456075572445,-0.04623414535288137,-0.008274553260038132,0.10621934992057568,-0.025016742194368294,-0.012813393225868788,0.0011195838664787572,0.045679279617053446,0.07766503209787713,-0.013923543968361138,-0.013042131006482553,-0.05152706613859374,-0.15273019934085103,0.02461664961418632,0.040550678660256315,0.0572578577108841,0.10810157744496797,0.1240034717930035,-0.2120120718693048,-0.09663333770566294,-0.016675211943851617,0.06740534019205867,-0.1197167375673133,-0.10813076881269075,0.091854801189832,-0.08655685274140462,0.04342719000609532,-0.0880449024330708,0.06465944214749039,0.03813534559090196,0.024703859230914123,-0.0109613523111183,-0.02028360545942095,-0.03424791232326264,-0.008179926017385259,0.03903752266669861,0.0347952890559254,0.07725535592189202,-0.08857554149107835,-0.01599252030399715,-0.012224351527856864,-0.07751187461718663,0.03931353236206494,-0.19337279154842646,-0.0013775444276779882,-0.12132089325514124,-0.8664959071640002,-0.1583062813764161
46.503299713134766,0.9798011779785156,-0.15788542721799775,0.08490530775783366,-0.45186681219379526,-0.7111958865043541,-0.21133020025829127,0.2424387836785487,-0.09547665680015714,-0.1789450046406439,0.13013865390672116,-0.2120411860685648,-0.12923204824446705,-0.15400260832019796,-0.06385550248982365,0.01439227793181784,-0.06773191651803422,-0.10662134275331987,0.6302381768766165,-0.19502284796548613,0.6390676683056197,-0.02894272208294473,0.22660948543266368,0.2526022195138189,-0.0834982940358047,0.11251472661536187,-0.10320220602488679,0.05014296869983435,0.02309135362634221,0.21750708591165685,0.05518339377827109,0.0001435813129034088,-0.07805642301306556,0.018775688322779427,-0.060509967855046934,-0.02004760530678053,0.0177453558201311,-0.4549132603231034,-0.0684668163083155,0.24573552017724212,-0.04965135479784728,-0.44445836811291595,0.16174275390744677,0.7313185071388941,0.9535906145957674,-1.6421719624302429,-0.09413553182697966,1.9931724236632222,0.5828595166682773,-2.8611343700242893,-1.9906687708074602,-0.12107319675261391,0.19448655534718043,-0.024150615681646108,0.2127992468660763,-0.012506674499333459,-0.09268778658558184,0.0291928577820168,0.07117840987417906,-0.044708902053387324,0.06258043549818776,0.0905154744371118,-0.10713872796356808,-0.13104729285952835,-0.14174297176699818,-0.042537759874755256,0.04706940814920605,-0.08092370020299866,-0.010849713434983631,-0.1021407055879122,-0.05382109614855579,0.0724546588407333,-0.04996676688709757,-0.158705535853926,0.006740648648689968,0.09090601918346591,-0.005357987085678986,0.06135190766778028,0.060536637164200074,0.07069784731379364,-0.10117223634780763,-0.11070811319113923,0.023311675727284327,0.0695178807681394,0.10109404005614715,0.01856777290996221,-0.05524753184278314,0.0019152176938370437,-0.04634137195310195,0.015128687131577839,0.07908840772979948,0.05839971005379192,0.02358063627666071,-0.039569281975194666,0.035555438790811064,-0.006685441946941206,-0.18133792554382794,-0.08203698350432755,-0.09610847417193372,-0.10610251078054174,0.03809520095240963,-0.18427740330419493
47.48310089111328,1.13909912109375,-0.16293579598665345,0.08615304091366909,0.16393434897090148,0.20841572612911533,0.03472364294913366,-0.10866659291158141,0.02141001368682949,-0.020471183716779983,0.014775743210424845,0.013728613523442082,-0.01966111555727427,0.009553602527537907,0.009715279710265715,-0.054261088124646153,0.13982223959314438,-0.23801470523139379,0.04731769499184771,-0.3563967614828949,-0.09072693462581238,0.03469336343016817,0.04263252861764581,-0.259674756898389,-0.03464083465403917,-0.30133275944067006,-0.07156103749911391,0.1887668222871691,0.09427869341235248,-0.03993287782952107,-0.006127032705165728,-0.10059285338729669,-0.013495333620776418,-0.04059334107971588,-0.05862427301342858,0.07719907005276061,0.2339991795875547,0.05870248554971587,-0.314231020328647,-0.29489657745416326,-0.034091135628397676,0.03736597373540651,-0.16838462598814533,0.028891491684279794,-0.8921875999134417,0.005144378127930324,0.8963687952963315,-0.2063665470476714,-0.3345895868766223,-0.27040265632894434,0.04484946921682755,0.03263967096735616,-0.09197472871096865,0.27120369146175494,0.10470635998299924,0.028475439081307688,0.0805786491509471,-0.11602614982178477,0.034401934662625325,-0.008167913637152701,0.04236424562102052,0.030915541937710452,0.15027122701828846,-0.06044484348145442,0.07544531803479584,0.012639145390544462,-0.028102714952983453,-0.02908535285300603,0.014545610459108014,-0.048350710455940964,0.015561698180517856,-0.06840149891444382,-0.009300199400748414,-0.010959447985478928,-0.045501393940740875,0.02239435642957613,0.06455918548811279,0.012946306175317859,0.004016064343197683,-0.0338022301022625,-0.04875199818070535,0.0023295415046277676,0.0030144485518290584,-0.031600654575376294,0.03423169712175804,-0.009913682143713194,0.022288657676109807,-0.018465998784142495,0.013381163545499272,0.0479341386825325,-0.0971822245444586,0.04851156490829858,-0.012598506979148761,0.03797437277981073,0.008352438103451432,0.031831810476485284,-0.04467366773964427,-0.03206255289294818,0.05638014840890069,0.03523434977007171,-0.007059808563076252,-0.3503461092687344
51.580101013183594,0.9890975952148438,0.08688754250505049,-0.024093468634663107,-0.43464733960470053,-0.1287677497842038,0.26000164186944363,-0.1634720002754567,-0.13495076992462546,0.08767813865944689,-0.028001941220419643,-0.055313254887341845,-0.013772081458843247,-0.024921791096706624,0.024230078929696006,-0.16426187695255248,-0.3902373037623063,-0.0878848356693438,-0.29308265556688273,-0.5475467895082528,-0.018252165980538484,-0.03689059439695981,0.13822065901510974,-0.0957894001227081,-0.0031265696414792925,0.03175514300759987,-0.13962708073722763,0.18385252715726427,0.08090445276554487,-0.017414670751741967,0.04085807358955094,-0.27677165470601944,-0.15756125602630075,-0.019300602780862187,-0.08209984686062631,0.4424891809422549,0.14921726460885396,0.44445326779118277,0.1848598928741527,-0.0394397905168073,0.4882048118492175,-0.11913420947444807,0.40863208531005984,0.22540065691583955,-0.7951986873166434,1.7989967774286826,0.17504611078065904,1.0904140163418021,0.0805019573433001,-0.271530683256992,1.049214896781042,0.6435100613028021,-0.7664277300966297,-0.3024954656022641,-0.5664450324551842,0.11982099942847887,-0.2169802444157959,-0.05119497989248395,0.2861028864973979,-0.0025285122510591146,0.009553071959494154,0.0512952151382325,-0.0033267873531051956,-0.1546825221702806,-0.09364099035729628,0.05061087553475551,0.1673342269778438,-0.06685455686200921,0.03996269894329795,-0.02100769733024306,-0.07985475293701212,0.08622524119870492,0.16459786978319255,-0.048666900499799826,-0.07649630960799812,-0.15299001415551072,-0.10694326404408847,0.015477292754224256,0.019530970575178802,-0.022387363294981033,0.2271633830703512,0.045146247057822705,-0.002223126711192421,0.003371494195836257,-0.007131155206864717,-0.02322630172422207,0.028995851187694432,-0.020538531568082954,-0.09767053672272606,0.06312349475562991,0.003973508195404471,0.011050780658628655,-0.037820322299894515,0.014593865111319777,-0.0212212466072712,0.031188418879487888,0.07819717250202149,-0.026987338039735187,-0.052920039268677964,0.17422467443188977,-0.11283949618137382,0.38855006565161637
52.56919860839844,0.9993019104003906,0.4031028167817895,-0.07321272409470625,0.03258027574554839,-0.36700929038607133,0.1599182049762939,-0.055277333226468287,-0.22854196556675327,0.08662379730752827,0.16534076445500112,0.15672272226805337,-0.02152378930430386,0.05148809987016293,0.07286031409349367,0.031471074282887875,-0.2894172686306347,-0.08605229950092166,0.1706436886246245,-0.3861920346304426,-0.10952421621628342,0.21591488244751286,0.18545601234278997,0.1169737259117157,0.18458927825503163,0.06275742488818238,-0.13645767973831432,-0.19458252262592146,0.14635585223164294,-0.21587822598181014,-0.031445856324745086,-0.03677183789392466,0.018082724957215548,0.007767508274874518,0.09907402385983893,0.13718720783805594,0.3353770360467888,0.45777125280265557,0.2905063425468659,-0.07864628522474311,0.10629411715422486,-0.32894481468736325,0.17860566047939688,-0.017038260253786578,0.3867098376732113,0.4423356596526962,-0.39348833976489417,0.4034035036413761,1.0499226107315103,-0.47125165989547624,-0.9398152687687442,0.7808855115301204,-0.5181437170652382,-0.3407609469938599,0.03192317095300373,-0.5110062767705568,-0.07759709250157819,-0.07267294469540951,-0.021706558923737327,0.014913248077489144,-0.0002220346846314677,0.06499527057444668,0.11526501023831712,-0.027960042564901054,0.08918509344309436,-0.0268501756974422,0.13674747191024947,0.10471490527505863,0.0881863730718381,0.037736620307808166,0.03214815255555223,-0.09432993301671197,0.011663247194572603,0.067096103859639,0.01128676087235639,0.0755019420203651,-0.045176141099839515,-0.13368072811014828,0.0002651466131303702,-0.033741828768867964,0.022284075763565638,0.026097913142597094,0.006269920833337176,0.005333256455112789,0.06271150592610397,-0.029690177627315583,0.10199485140489459,0.0478968517691094,-0.05321711358098914,-0.07478596407733433,-0.03933632099495234,-0.08557927806862904,-0.049435323366316335,0.09303190864520575,-0.16743073705394831,-0.03329825815681829,0.12781595212955318,0.28326182303752373,0.21339905387796293,0.1429676720633381,-0.1988924776093546,0.1742951288899578
53.56850051879883,1.0592002868652344,0.048736180148668,0.40103474051805477,0.0829100105122179,-0.06296117465765169,0.09444939997227894,0.21615366928308843,0.14633970603117025,0.11150269131952152,0.002946211229725647,-0.14327004584923897,0.032024255461390254,0.004034609945651995,0.16804220363199698,0.23502718234788952,-0.10192767943801312,-0.19393150515855184,0.01257457264082838,-0.21322307379315475,-0.20278283500285682,0.2192919391013351,0.019737718714801428,0.4649516710918111,0.018822172034706014,-0.08475410972828108,-0.24826792134345022,0.1834652851264961,-0.040953329558389505,-0.020918416328203293,0.03946714400450693,-0.08278017243849539,-0.046500432759922675,-0.039446706655524334,-0.010344601166218959,0.24876433318661595,-0.07786147392179937,-0.06787932832294469,-0.23150438942506876,0.09183657644622528,0.17503365468148632,-0.7070832206916804,-0.38826399522598454,1.0308796820713064,1.0396960199763328,-0.48600428453834044,0.18056277415355565,0.9450672091028769,-0.7176690016102963,-0.40647673907033316,0.3639506323388605,0.37434444679071094,0.17436490248611844,-0.4072251253425316,0.14360703621527987,0.19886772984178613,-0.0953598576813534,0.02748248682821609,-0.05572321120008447,-0.016019979788567323,0.04933965119263156,-0.0862047013777158,-0.03808903228009013,0.15512430816618664,-0.004199323590930789,-0.049048227276545335,-0.02352977362332741,0.07233297194725602,-0.056624792513809766,-0.06151836494413296,0.03362693116894927,0.02461740612180207,-0.07029370034303307,-0.06554197446389848,-0.07347962977224394,-0.017087680908907235,-0.06634053409320717,-0.04833905171161139,-0.09752460457417916,-0.06752016754403498,0.0022610227218607523,-0.05999410441151044,0.008687927578054672,0.03644909731083422,-0.035097534912674,0.04655851358526859,-0.0431407919209443,-0.08403877750928956,0.030614540006628724,-0.05163834914358066,-0.10083426019316306,0.053800897130863015,0.10583983433910218,0.12734526080400232,0.07319709359587881,0.0140615261672263,-0.10330897023658646,-0.023035677119963904,2.70585331019757e-05,-0.0704596408084986,-0.2323220918946729,-0.23162752429411212
57.815799713134766,0.979400634765625,0.007663119767621573,0.04152929979619824,0.3441358120427775,0.3589415406260854,0.03132140081529941,0.2501586169311521,0.036440022738926874,0.168277346590967,-0.12087720844088204,0.005072432234241808,-0.25322627823711075,0.04863310792531174,-0.001977961880582826,-0.027350003143607457,0.10037198419351773,0.4624487155939504,0.08013885631264411,-0.20128717301667104,-0.14599951063216998,0.05133287887974542,0.05397552454284022,-0.321365907530591,0.041437228059327605,-0.008208005496228563,0.005963761666894621,-0.18024949236610013,-0.11158688602967913,-0.05278698887610726,0.1676790144862672,-0.03995677137835407,0.11707555829252558,-0.0021327957098336014,-0.257255862886436,-0.24663625628732033,0.008996187842669253,-0.3249288016809837,-0.13658895100066695,-0.06937361836620962,0.748609643945529,0.029763668523359092,0.5900346792854145,-0.31485209123589025,0.06194495166962377,0.45819735000349227,-1.3804187834836066,1.166252386481325,-1.3171674141243188,-0.2023852062544273,-0.41735861373883404,-0.8865137024455563,-0.18240910445854625,0.7659587393698969,-0.2561336314385558,-0.1514014196660868,-0.0977878568615842,-0.025451215172423478,0.0487283924175864,-0.060631524788081606,-0.025048222296743434,-0.05459585801094348,0.08414408557372687,-0.0823865298494576,-0.050043910962993425,0.22281499286434456,0.043745504054394146,-0.01095403608437141,-0.03941197047995315,-0.06872690646308616,0.047093078569721204,-0.10019896952790594,-0.007534834975694432,-0.026420440577678447,-0.06663318461814893,0.07415369909745097,-0.07238382602498938,0.09770054007194426,0.11437146509994939,0.1106888986369575,-0.0687541136666016,0.008675210753932816,0.02123298081386878,0.020037770413695657,0.056031951442052454,0.023745049475672717,-0.01169648936662342,0.046783739499484,-0.009491705201653343,0.014914661762096715,-0.13493551027573486,-0.053997520383652665,0.024578592148352674,0.026004011509072673,-0.23457971304167413,-0.06883712975140242,0.11482542938409646,-0.12186177178810642,0.23519232687480457,-0.029942549194307024,0.6228796478864981,0.0067496888564577695
58.79520034790039,0.9689979553222656,-0.1283827879592923,-0.1977884892713716,-0.21598065820479592,0.4180374844699012,-0.16659300588956805,-0.1261849390007589,0.054514937993626146,-0.032648944753539334,-0.12124333143059461,0.02598499048180669,0.07715430128562735,0.24899772477596563,-0.05930660997307439,0.0933459069381155,-0.2755222162100317,-0.2148905341404157,0.28315744991939407,-0.050944858002368865,-0.11190763071423804,0.3057951608690006,-0.3604460199686378,0.10000652447431706,0.13710299555959027,-0.060439287253860226,0.05772519467861046,0.04407758664219551,-0.29491419716278394,0.23097894306248862,0.027010508669377445,-0.12949253339046585,-0.1852971633185493,-0.07040500818103404,-0.01662386028285247,-0.3231077316910882,0.034550912388792286,0.28503455935538885,0.16799836553111652,-0.11863828072903687,-0.38524182060286016,0.4604291429229162,-1.0219563851882467,-0.9333670630055723,2.2770818917690296,1.2415047517227105,-0.2877272216340859,-2.7056572609370715,1.2144326445216251,1.0531258571208064,1.875309838159511,-0.27390111318931176,0.8529934768113688,-0.2513643371191922,1.0749050443515225,0.3554384829386482,-0.09203738028728514,-0.09880100247428716,0.0012296006663922443,-0.03257975589923503,0.09311607042796084,-0.11544286041881192,-0.05988628129322057,0.09800795845310473,0.005547779365999089,0.08744357421732064,-0.03490659261165242,-0.09484249047360134,-0.03497721765229348,0.09399843448541154,0.06626325534525476,-0.1675936227036685,-0.007254999420600341,0.142055917984635,-0.04020187224990081,-0.014282264355502073,0.031347558518811595,-0.0862852528557795,-0.3790912593290864,0.06751454928067281,0.11014644040804952,-0.025481302165129057,0.023378578536251277,0.020428626675109668,0.042049647028778094,0.0044765998723724325,0.09484293470706606,0.03538450213469792,-0.13236889810890223,-3.285996556073173e-05,0.11654571070059262,0.04419209572164643,-0.10177473638920634,0.041224650134058294,0.11752436509565262,-0.04817454029728376,0.021878251305873855,-0.0445676413461332,-0.010813657925257758,0.12142822313086567,-0.26746636028688653,-0.06577903236488918
59.764198303222656,1.0396003723144531,0.08966548889086522,0.16377042281260568,0.21064795659290128,0.581748145555464,-0.10831754813039075,0.2618568196869246,-0.07798164714142494,0.1255889470905591,-0.15352717980492994,0.013143700181931717,-0.04916152770249783,-0.033290808083892426,0.08050806668329391,0.15430449716979688,-0.06763448073463241,0.06293299697018157,0.16780180862820432,-0.19569690861437936,0.290122963274703,-0.09267348894811869,-0.46530899126263425,0.31563722331342475,0.5434878344636453,-0.01905832138959507,-0.09431811517196244,-0.2738639985871014,-0.05163189002068404,0.09677130404300807,0.08489432712219293,-0.0794991265949763,-0.017229845752076825,0.13491417421909374,0.16160015433878128,0.06436162149370202,0.006710671135190707,0.21335312595907774,0.21591680024671792,0.11913318889677058,0.4465292222284951,-0.46676968349706427,-0.27531014941611803,1.1492643091570554,0.9576956446205657,-1.2116477001714878,-1.905754477745489,0.20478847648491783,1.076126221391907,-1.2992489423591722,0.39252254670442543,1.277325181928762,-0.35822255068587955,0.07197774789334241,0.06557919677866947,0.08930603387341386,-0.09876524895601799,-0.0952613103164453,-0.03399670979648758,-0.04636585653676972,0.013698855703028975,-0.006268702690547447,-0.057305178840469956,0.14452774761275514,0.22060098963245517,-0.06563002062859807,0.07316698278633897,0.00845162573682613,0.03505412129416058,0.030104834390472533,-0.12124566679120383,0.06765008335501768,-0.07932865441544618,-0.11156811130613134,0.06750717367005628,0.10295160811783428,-0.16336912800815187,-0.0726594742956043,-0.11161879424271359,-0.01101669063131775,-0.051604951270783836,-0.029246433092034594,-0.09282058678662757,-0.05126316769870526,-0.045784008951580024,-0.027851875780151976,-0.0021583603182580204,-0.02537686118643965,-0.03568658542486733,0.020456125674005024,-0.03946729786670003,0.04952956149944127,-0.03730170413571007,0.08030007216049578,0.025679719686647888,0.033626074405704615,-0.03629288898295709,0.02090128959299438,0.018418243385440583,0.10865949792861282,-0.07950082552610356,0.06474439423605673
60.80379867553711,1.1392021179199219,0.07619567787104914,0.3164394689257524,0.09799014954603971,-0.3385220132791297,-0.048471626183427735,-0.7459189318629005,-0.0342087056320588,-0.018056205797104555,0.10975459765034133,0.02084711177494996,-0.116363059392694,-0.4211642093234223,-0.03249900551562084,-0.02941281479204763,-0.3836011464429945,-0.36294849179665367,0.35553780583698136,0.39743182959209944,0.5173955742572505,-0.009408915622268255,0.44461407678786263,0.20008490731236894,-0.06993222273271801,-0.039377163982440844,-0.06104170711902937,-0.2067941039526261,-0.029628339237780334,-0.02734613903396733,0.3058381241817843,-0.06392680733951689,-0.13615902195116844,0.2092292309123814,-0.027499670383547618,-0.45486225095467636,-0.19106419635639627,0.12831195179788313,0.1245862698186528,0.33630487731089354,-0.2195698011075401,0.0718425831515501,0.06730210335685266,0.005554277186773775,0.5188052313288006,0.03811132616388706,-0.36292346291252275,0.582580610645464,-1.2769724745017177,-0.34406440072791417,0.6681216583590164,0.11751227310097784,0.19477210374434883,-0.20226371848419478,0.12041844678251967,-0.07335444721949784,0.19723373016036294,-0.030222859527180197,0.04635914987011651,0.016182161715188367,0.015784856080520646,0.007450396849675854,0.17019198578157263,0.0714170788336231,0.12595102286653914,0.06064539235959585,0.024432583333085185,-0.024136704447216176,0.004788202133623343,-0.020369292438446332,-0.02366266087406771,0.042148400438789986,-0.02581048774926456,0.0649773332288363,0.021325932720864582,-0.001399369327615447,0.05883228809178348,-0.10384779742959872,0.011226566640766935,0.20031073869174681,0.03663672219015205,-0.0179707752364268,-0.1733827630642402,-0.1292458846655174,-0.03790902385896413,-0.03100789154927014,0.053047215896724814,-0.16152822829254443,-0.06515344976410606,0.03652407386958385,-0.10760983385641133,0.03155553454263918,-0.15961613875547367,0.017386475258545787,0.002498926880961711,0.052532825952694484,-0.06185783059991558,-0.14185627931743083,-0.08616498723474998,-0.03702188354368566,0.20621672407434158,0.32501390471923997
61.94300079345703,1.0388984680175781,0.47667327587153363,0.10923808273164229,-0.232918519894658,-0.07178869385584058,-0.33713029624486524,0.0286427726427739,0.049798755599435265,0.23964762417521157,-0.0426690509244476,-0.11433702005396104,-0.17604984271293164,-0.07527256336327036,-0.05374022378831294,0.06895954415955617,0.44757178767136596,-0.3026577566739787,0.4738169745940958,-0.6009246666137824,0.07760015640565805,-0.1788435845395052,-0.15755410954877827,-0.1888449035428521,0.020021515475746918,0.11207568277182349,-0.13969130301792115,0.013705351209354899,0.004417683462515698,-0.1387371386790494,0.061801093391459644,0.09937176620894411,0.03640276009331814,0.16279540247557023,0.08894762927151396,-0.11071576792043157,-0.03163529193820222,0.09433811780858553,-0.1462711973078003,-0.20868424072310598,-0.031876796324856724,0.4457724226357668,-0.07296006370905651,-0.6195908021110156,-0.23385043133735484,-0.034168138165450695,-0.021375097939728478,0.08001077022585673,0.5309763363235578,-0.11034456436529612,-0.017656262820489595,-0.05086075999034291,-0.09912995558597854,-0.06511821957134699,-0.10823563299475783,0.02782330768994535,0.007150744406593668,0.05995274760582636,-0.13359165898253578,-0.03299128487803776,-0.03836949738647976,0.03239567774935535,0.02080565952334036,0.016580748298604116,-0.02626278553615362,-0.014955327316657442,0.1267372448819282,-0.0026534840006119127,0.0003141222944588115,-0.07230219658304127,0.12047785825210365,-0.11247049901347451,0.09801074576828256,-0.02662684139536025,-0.1472305337731561,0.027516202385119575,0.037538499130825166,0.001693532871065424,-0.16849845376334355,-0.0505277255189705,0.06900544458530089,-0.0781631732032889,-0.10749620048294903,-0.00028817533082970597,0.07914175519292897,0.04613661923616279,-0.006271548539485897,0.011398422812121866,0.012185080367911258,-0.00826210425160187,0.05444363697966058,-0.08537462734099896,-0.07698926818137668,-0.012274125220289277,0.17024706310791385,-0.08937180781581139,-0.004756509676107687,-0.16510215506620063,-0.17902581648269994,0.2810449974963444,0.08814677333417673,-0.1245217929736747
62.98189926147461,0.9538002014160156,-0.1120011159671439,0.08176121263710964,-0.504057333206422,-0.2425113792437314,0.29906951463213466,-0.07386801043409728,0.015243794266802141,-0.010050470334054956,0.0163949123300448,0.11836729996568396,-0.16105666955063463,-0.10960546477345816,-0.04747136917344404,-0.11261881278862663,-0.16788578499943324,0.10022438551962681,0.9334738567721117,-0.6814218697446454,0.4375774636779678,1.2882642924186556,0.3460895985570956,-0.1437243426135588,-0.8040515386451762,0.10295112109113573,-0.7026018042261901,-0.06744573873213419,-0.0607338380617713,0.09268352197709678,0.028697832156542136,0.1399105956935553,-0.19503490958775804,-0.06397161278720948,-0.33841676819726746,0.03226786387082188,-0.030443236724135427,0.09076595703042865,-0.5040373410765597,-0.03939813911564603,0.25083615976761064,0.13050637755853894,0.6194071152818246,-1.0779141247194723,1.0793195343765463,2.140413406559972,1.1999342816884304,-0.6642833407844071,-1.3325870101321442,1.0345590576599388,0.7632864566732283,1.147961385338376,-0.9389858447839814,-0.7247255931618931,0.070359342904111,-0.18193497555062843,-0.14530235276757814,0.31712583778568726,-0.13295251859507373,-0.08224956620727036,0.013649849758734645,-0.1020275792815807,0.10547491390029637,-0.03833534032502764,-0.12480680905292323,-0.005263236316068785,-0.09917376988640546,0.033313346233021075,0.012823314170251714,-0.14288448481267416,-0.0008849743944466639,0.09947853269326742,-0.0603066743669831,0.016062315680325918,0.04663459491178973,0.0007946781106683012,0.054321038541092596,0.008306426495704814,0.09909949114476917,-0.058705912928856976,0.027021062080345847,-0.07475610159584764,-0.08716607009614033,-0.08286893076109504,-0.03740789652074702,0.013172228312523696,-0.06817183171767877,0.0091987593642322,-0.12879406912890895,0.030076080623600163,0.047015924425480374,-0.13675800852194134,0.003864449607097871,0.12478496703401665,-0.044267849332282797,-0.07744660422975633,0.043137301442762746,0.07655488139435497,0.13810051234810553,-0.03026819554754944,-0.0016278764674152733,-0.00799387353198272
63.935699462890625,1.0753021240234375,0.013665723188136955,-0.1062994441987017,0.3272002152442188,0.37925262883929345,0.18582814537030845,-0.576010603359471,-0.04487000847098814,0.07799407239115219,-0.03084756189824315,-0.037149993887995905,0.1426193820049694,-0.23401568793417232,0.20885239550018356,-0.012122448356686506,-0.018863761815742734,-0.11256031993867151,-0.0185391229627946,-0.31498841295946933,0.23675191495289355,0.3292967409778911,-0.12117488174470221,0.03943462588091706,-0.40150006668579313,0.050561265505276294,-0.007329884876036924,0.1824955236614127,0.05825464182964174,-0.10965581004550659,0.01398292602991277,-0.09306868519268043,-0.2863386917210413,0.19334571649180363,0.12111767818222366,-0.053374920547258814,-0.11849066838715078,0.07633721640087779,-0.12450186285978203,0.24219908698647924,-0.07320617174601644,-0.09766039652931453,0.1666341499224984,-0.15204522170513352,0.1379683809210242,0.448105208773726,-0.44095401189510164,0.3337439498719854,-0.4012987221796147,0.3306343220523213,-0.21354044953464724,0.10830585036969193,0.34974924912772976,1.1420138125462518,0.32924144712906245,-0.12820986726013303,0.29526962645415267,0.1912095189127186,-0.6754859162057136,0.03985294762936251,-0.04248770439421016,0.02218155114707185,-0.11040805114935076,-0.04429040571638715,-0.017792713138123313,-0.13300057567237777,-0.0011013817711126722,0.04659119661524402,-0.11331841381610956,0.06198169994974489,0.048697834635165665,-0.04233988041774156,-0.08708649427985689,-0.03866865908227293,-0.02677101499200056,-0.01056330966287107,0.016648753788915154,0.020871884735693694,0.013606625717591782,-0.15836465269970681,0.019284521238648034,-0.026768352889904312,0.011336264368787319,0.15398221153230426,-0.08312111963328966,0.011061356866007038,0.022675216886266034,-0.020946491567500666,-0.1516077863783247,-0.009161161384345818,-0.050492864688402674,0.021178691554086276,0.07981167140607019,0.010378053038883672,-0.056838852929105274,0.002558743705960995,-0.029114598828186993,0.0027083109163074538,-0.029491761351523885,-0.01091565408452451,-0.002976362362680311,0.0011114509228322654
65.01100158691406,1.0092010498046875,0.002980671972657861,0.022757243228472893,0.04622198432770998,-0.004610830978499833,0.20168393978474175,0.12092512485373337,0.38533687971088293,0.09072724460568789,-0.329433099381315,0.25535727225740756,0.12461718254920001,-0.0526505522940963,0.029260987759091913,-0.06127971421889136,0.018831159097003305,-0.049826901416911644,-0.21396935172158402,-0.1431821637924216,0.06918039386052255,-0.09946958555577397,-0.42646669448882457,0.3363398495449052,-0.31181294840098656,-0.038002400769187684,0.6739945697609258,-0.5607917401826378,0.18324861759253294,0.0040518225383167255,-0.13684458467363025,0.1511756017141888,0.061452619242989295,-0.1326004794788683,-0.018015239247484677,-0.10884246604989098,-0.11013754530237232,-0.033028160180632635,0.1524702003410366,0.1775457182499099,0.39874117209062393,-0.5362754437263235,-0.09790069861374744,-0.03345844543455252,0.06461980894592473,-0.24702481853980787,-0.18939072595806614,0.13159878434691769,-0.23252710790531878,-0.8454548498909621,-2.226442898730484,-1.0422438368058116,-0.5749596633681372,0.5143035790485249,-0.5680933405456026,0.2582454375918913,0.421455144706045,0.340169370583586,-0.7414863963130682,0.29016855334906205,-0.22091545522511213,-0.06506442963698224,-0.06543042337836363,-0.0895677293781124,0.10097765792282712,-0.07293949405657782,-0.07155454940922437,-0.3018716420095031,-0.09235845366722165,0.09930421450445306,0.03773363459520846,-0.11120288387393738,0.10691702680751511,0.11435696390235439,-0.036422933797403106,-0.03613336888747383,-0.1376826640164144,-0.024774533850896945,0.04850774725284118,0.08124195411673993,-0.12849388540336243,-0.08604662585366442,-0.045279436875745684,0.03823934845202159,-0.07169860178150368,-0.044963671526330844,-0.010959399543442145,-0.06856640089443969,-0.061250675122214826,0.16756628601371107,-0.018429449187211455,0.053351442956519196,0.11942807722488635,-0.0946064449211571,0.02328776554466648,-0.17102437121357478,0.03427237357973033,-0.0034782646241067095,-0.036762473733494866,0.228251292924507,0.09928551510350211,0.3916480491303723
66.02020263671875,1.0093002319335938,0.271294796435799,-0.2531878094219097,0.08814430879293729,-0.3785127063071736,0.03280967073155089,0.14946797983298762,0.1518200639058991,-0.07130280691220436,-0.0013441363047236726,0.08490903307846291,-0.04795713331581666,-0.033567545987712194,0.05084891379479127,0.09681038615352618,0.15894838002658856,-0.2050553477618879,-0.1362073409365085,0.3063966539036182,-0.2104587885791802,-0.6923705217685023,-0.16994033170249384,-0.05700106413890976,-0.19228041898981524,0.04792654706907695,-0.22471672107400736,0.16087063704479043,-0.16461092057686963,-0.24942095394376562,0.15760884498561134,0.16335105421492635,0.049241976171486956,0.07211855104202136,-0.10420166632107215,0.012020762616456904,-0.25921639185937,-0.15719576144381003,0.21899606459358534,-0.12786042584257892,-0.17129209075561241,-0.3326244582273387,0.32488047487381805,-0.38462297851969074,-0.7072636792063282,0.32847947032698854,0.8897874140339632,-0.7833230142289925,0.2114095344263887,1.2133833790912985,-0.23926588522386705,-2.377470799404591,-0.6502787300239673,-0.24764978445650337,0.14605488157594715,0.37036008056357766,-0.09530980749189252,0.026134249911657314,-0.026905916480072997,-0.005971076051561455,0.05195073441180607,0.05002744865095724,0.016950216584333017,-0.01351117498764928,0.08477995454362902,-0.0688248678505508,-0.00234810257024191,0.040580617732126394,0.0990296351342333,-0.008669736256046522,-0.12238142103867546,0.0765081787476043,-0.08298604437427987,0.1116363383281509,0.015641877541681254,-0.006216911107369076,-0.15895531916730465,0.01710149590808769,0.014117185919080504,-0.19720537404335572,-0.04177143785304986,-0.0173727583706403,-0.03590515342369621,-0.07571139196242742,0.00874215996972623,-0.03170737115353539,0.034963606845206975,0.042419280941839735,0.061294711066063094,0.05706568459685422,-0.013407750293089878,-0.01441566938080502,0.05278865250757814,0.03086278402838541,0.04282449405774234,-0.010131332610822434,0.05405063927682802,-0.01921079879112364,-0.17809421099289408,-0.05516353477818062,0.13134869492949203,0.06092701367990496
67.02950286865234,0.999298095703125,0.21124116366738577,-0.1456370563309356,-0.12232820902810797,-0.0767657938655568,0.047002847430735954,-0.2914326541070512,-0.05152122064522789,0.01633494036229634,-0.06895014948389962,0.05156381640278451,-0.04575409863731079,-0.125220685844015,0.0485330885301064,-0.18443853751916106,0.012615100907350962,0.1539248166303388,-0.44316064574467673,0.06827189587852889,0.07002117487752574,0.12763909317923866,0.0016962803689114098,0.1470569568591263,0.2531246595580809,-0.268653372787968,0.016849090434361474,0.01113592749396318,-0.08642175898923339,-0.08876281325347177,0.07385988603664491,-0.17025525815896875,-0.2911640076956533,-0.12285717754969369,-0.045622974082110856,0.06037417775494813,0.20166433094517092,-0.03591578395969461,0.09972655062964743,0.33676917572949566,0.5564264088046372,0.3589739388407627,0.11570182358496822,-0.6941254023861019,-0.268356908556746,0.2684229821138204,-0.45337913958638226,0.3663410769874728,0.4719798966787539,-0.9506689215294784,-0.23109265013192948,0.6612407624663785,0.293918632294844,-0.013494491868634663,-0.4381395296102491,-0.09815606526399748,0.2667381042101416,-0.07959212288469592,0.060210384098478745,0.0055264801833296105,-0.060160975710236875,0.023495990972717273,0.05282868241722764,-0.10383115783101564,-0.08223529586988858,0.07937558712762513,-0.03853953003310058,-0.12155018497968272,-0.0015153483295100812,-0.04922008833223121,0.022735013461326295,0.13933888532855454,-0.03128924428990218,0.10860388440689801,0.13114467659603657,0.01912204380124289,0.012275754520601739,0.022236782784340974,0.04933560534437246,-0.07589163526928028,0.06257609511933099,0.016017332836673993,0.024665392398314584,0.022522524275852426,0.026622660818996943,0.02108894118150994,-0.009440943728064723,-0.038421935324506,0.09144305444757077,0.02622972187861166,-0.022299562096340923,0.015091874472761562,-0.05650177728094119,-0.023410397683337116,0.02968991890085244,0.05075783827938947,-0.01690543131622229,-0.08115387247378836,0.09148258087778474,0.12252394362770921,0.03586294160990577,0.26027963624745376
71.21659851074219,0.979400634765625,-0.45270541255905683,-0.049052336634724254,0.049639367134953476,-0.32561734690177213,0.02650544931058541,0.2089485119444061,0.1891964795902008,0.022983955472439324,0.13840053943146066,0.15538245721371863,0.08992512663704362,-0.03729366400513707,0.10192197222822967,0.0815545159935723,0.0808702271859752,0.2229633568925237,0.4836424643573596,-0.13119187015215045,0.01621670446589661,-0.07915640257596226,-0.047962718341925156,-0.19802160738010757,-0.06553098974151761,0.0051887743587694995,-0.005555553545682185,-0.04598342938627205,-0.03333805668687266,0.09097733638219517,-0.12447112781414413,-0.1133193765228937,-0.0055283460836826675,-0.08427457145097167,0.01124871172878919,0.18616213925621566,0.16536501967728193,0.14630098484411289,0.0293712665629835,0.13986044346885165,0.042256429234101826,0.03704112750146307,-0.1853712130600879,-0.38727039095546895,-0.7989543421804831,-0.9501697666992404,-0.13449532441108908,1.7787535536033632,-0.48611785675452074,1.660913736567642,1.9418337930767027,-0.2666177117444992,-0.9245183391000054,-0.34589646235059435,-0.7000210026037501,0.16616421326043876,-0.05294878812708626,-0.27347779143556544,0.05107473408780105,-0.21555102344050692,-0.0709565438094894,-0.061582902629081795,-0.019486091767391252,-0.22084051395001197,0.03165762267017081,0.17536788927173577,0.06828392352242116,-0.13850739486088556,0.03675877722585224,0.08640021570107309,0.10388120052910031,-0.04994435606080981,0.026146035933224468,0.16341834894456234,-0.059206909774280066,-0.029129825077582168,0.0401474302086013,-0.028140951017415424,0.12116355550982738,-0.042085291772866885,-0.026705131609199222,0.1689223921582181,0.006509642183801141,-0.044143383381109624,0.04273254993418114,-0.026195271367150337,-0.09307641824671739,0.020707125674057386,-0.06630958995383826,0.014241791806116719,-0.11603303801658418,0.01777617200464993,0.03930859017008207,0.10633273125972723,-0.10559603992544965,0.10743126426363254,0.06415364556084925,0.12064025815724554,0.037062379620167736,-0.19124142519025955,-0.1614131743078352,0.16518546835839695
72.19599914550781,1.0091018676757812,-0.11959391545458965,-0.059130391172958846,0.12123721568202761,-0.3843487902502491,0.0032856288654384835,-0.11893497301496614,-0.05060172844542114,0.09654574720194363,0.1604851073498289,0.010122969544576556,-0.14690514009660555,0.16914481297589304,0.046717656234706834,0.12699929351569608,0.16244426003788073,-0.00047197638082664695,-0.34627768517584717,0.2759110423533153,0.30605367250737603,-0.27420551486535016,0.07908395788142404,0.13001107383434798,-0.06643553459753167,-0.13863587257741714,-0.009770729342426496,-0.022696389289218338,-0.21002369905450327,-0.10088349858647293,-0.1602046805589044,-0.009259995606163767,-0.1502744384167618,-0.3288839231598796,0.11537138726580609,-0.4084879084739905,-0.056305636165052256,0.3811174572807702,0.2882235193434514,-0.016006204764388424,0.04223074421643423,0.20202629779782028,0.4648376826061821,1.2138480070041242,0.1234223067076839,0.33520648088137756,-0.1325733731366227,-0.20037851995679584,-0.01848926413113841,-0.4769988166867797,0.21631401276812884,0.6382370098921212,-0.60419985757815,0.018641451221497383,0.2662382981210567,-0.686529455483015,-0.3354579401033325,0.02541329053860708,-0.001328668786976549,0.14095662508639684,-0.10096360416909081,0.029057819412063257,-0.18185943472734897,0.020933647898572088,0.00769566716598618,-0.04891501528602367,0.05249617995709623,0.042105683783415435,-0.09229648937466481,-0.003202344637874644,-0.014094688236517588,-0.07133209592048984,0.08680516849718842,-0.04416153132702405,-0.024766344974299834,0.010826275033447453,-0.16578704615424028,-0.00793903114951161,-0.10586956649299764,-0.11277352919557392,-0.07605837664049231,0.1065430456409273,0.05023153234338677,-0.0024994786829752127,-0.040889129149447506,0.004455465422565899,-0.008442025427881297,0.021743100716859337,0.05442260818002716,0.046242330685862754,0.09011262351056938,0.03960816050517456,0.016260700497379918,0.0007325111375591834,-0.023437550575771873,0.02280270304963484,-0.1616143472990705,-0.013391316437766159,0.11470770509806899,0.1299810687326573,0.031900661001031776,0.5247919229992679
73.2051010131836,1.0992965698242188,0.2431426562184325,-0.07444450685590948,-0.03614573910297285,-0.5800392030868097,0.0008389429730668412,-0.026210842650811503,0.036424511990676034,0.005760852194158196,0.046390900605010575,-0.06334627013048601,0.062776964335297,0.2585278474180487,-0.07439113702523484,0.026301187988857604,0.03281765513282482,0.05779354554837047,0.10424571520345402,0.20836002390526287,-0.22101479095336996,-0.37655423258074555,0.14868225649281724,-0.39961375987795505,-0.05339821029079158,0.036980270225799666,0.07132356141790969,0.028206681063587917,-0.03234841675814227,0.01768163347330187,-0.12028777360631261,-0.007889578399100948,-0.10693743242961243,0.0018020244915618404,-0.06664872720222245,-0.0045705668433788415,-0.16387876567027343,-0.08443978230088679,-0.08520253754070939,0.10209097122268893,-0.003461619741396485,-0.1580604368855344,-0.17631290982087083,0.07796368267327704,0.1837999540589359,0.07831908086138237,1.6098727762834546,-2.1099332310075294,0.18304039057405141,0.6322129102544556,-1.086402974175771,-0.36126594642746107,0.1199777553135356,0.19836911513717195,-0.2978991534285158,-0.17476486685278983,-0.03490405029296024,0.12236074591711144,0.0467631528275517,-0.017754189471875084,0.022144498374811018,0.08609511278185701,0.00906347063101498,-0.10197430142240316,0.13595835712976134,-0.020611827136290044,-0.03684288528596829,-0.03142875148374712,-0.007786770744490514,-0.09107598372027624,0.00024704569486034764,0.00023287098699598108,-0.046246513433614626,-0.07241732291183262,-0.04253696101471717,-0.0051703595580487455,-0.14427038950927243,0.09870982675300641,0.12408088561772451,-0.047179624830216794,-0.06038042635948002,0.04136840154037563,0.04169536453060081,0.1516829446237074,-0.01015631326154113,-0.06011715785872811,-0.027597713702623608,0.06330617823135452,-0.03856087206188824,-0.04383722848306506,0.008848116018240273,0.005602443692002845,-0.1629934000843969,-0.04309987976870226,-0.018817080535455638,0.14172300698721282,0.17115713012472317,0.0858813196382463,0.0404833756181103,0.009645906921565655,-0.010117484885006592,0.07315246745033677
77.55229949951172,1.0092010498046875,-0.6251061452240106,-0.017997497280551986,0.07014225230317843,-0.11255389477453992,0.056492207289369586,0.10287687290834457,-0.027522075183492083,-0.2661546026683407,-0.1742881212278432,-0.14608465332909185,0.31697591780854056,0.021807929192109873,-0.07518876032353806,0.07653966720729365,0.3176405734994874,-0.28392260603714964,-0.27885051644902265,0.3417863318333463,-0.09456562174382278,-0.08876509100104295,-0.32514432485631434,0.13977033781162462,0.058032582671804014,-0.17019413631434605,0.05072565850978033,0.13012348634775775,0.010598154985915043,-0.15387136529610923,-0.08078514802759212,-0.006285446179984916,0.05181223831904157,0.2784794148494537,-0.08089916852556452,-0.20190171934854878,-0.22740315588293172,-0.19437729985210753,-0.019595412314247745,0.15096392731783326,0.2621270508669633,0.21614218379776667,-0.5076660408928927,1.2549707616268406,1.2561778934058807,0.5651885157517034,-0.6855057405351503,1.9756025899264045,1.097867834243294,0.16069600348945964,0.6256139183068044,1.6375839842867665,2.27028276644035,1.0155355091770117,-0.006667362965015661,-0.17820241012535723,-0.20462839957743156,-0.16763502997766472,-0.17098531215056129,0.015649432315044506,0.038232437018093285,0.06704382215223477,0.10536593963914571,-0.10378010311655171,-0.22349685761595026,0.07662456582127743,0.015533509760364403,-0.056665536069197026,0.06805835751269555,-0.03774003792763715,-0.10088722760868259,0.013711462078880476,-0.12091156134850489,-0.11290135245942624,0.16221187694852968,-0.056747355855846685,-0.08185293556511146,0.009526776362905531,0.002850501051205344,-0.050278032269636216,0.10271157148998672,0.012608614944229244,-0.04849924545795462,0.06274734113921464,-0.01832671765749107,0.037154824388437854,0.018267135380087743,0.0744691903552338,0.0015865989840853235,0.015448470174467243,0.03540367732647778,-0.09612033310057469,-0.002715616873376174,0.12194284297525856,0.029686241467490142,0.08497175662947375,0.08101627107933485,0.0666833826859331,0.014407727951036287,-0.06299749144672195,-0.04365787547579689,0.1856803884518111
78.5615005493164,1.0193023681640625,0.03697895902506476,-0.17011896434531884,-0.03842525173468985,-0.19611158310159785,-0.12118298548897534,-0.2527786307091727,-0.10775062974888582,-0.03718406144418659,-0.16227348772875422,-0.12179045778512307,0.10604779797218031,0.04258014193599445,0.040896409878515866,0.27225712694960164,-0.27118307607138326,-0.09240674482134797,-0.17132870285877141,0.04437623383507612,-0.04007403869725836,0.31847239218026185,0.3082960250903048,-0.17505058157653602,-0.13900813307710022,-0.06655748365340955,0.07740403360743606,-0.09695542714255317,-0.005253478858807193,0.013839994303623197,0.16211896892936553,0.06358375627564448,-0.05512584787581068,0.12076382558886582,-0.0625586964289442,-0.24347832888409782,0.08736697082013123,0.15097836136865647,0.12078601684363724,-0.0919259781988431,-0.29244423076637116,-0.35896466360520085,0.12491520145908142,-1.2712534547274912,-0.4259857122211356,0.91639037056302,-0.8957779509509348,1.6473461899378474,-0.22355981348961318,-1.341242937868268,-0.26095681545668054,2.0127460419945575,0.18654602777955193,-0.1376052207994886,0.10185304187387265,1.1484108438068217,-0.15145291221629062,-0.07021778790266953,0.2731670289138114,-0.048704014108813795,0.06559793243623203,-0.007552749468741859,-0.06432835659849456,-0.0739701780552139,-0.06138423832679974,-0.035089027661365325,-0.043066842786100686,-0.016981967713440283,0.009674722247071412,-0.03303439572681483,0.09299655507597504,-0.02112262396117876,0.10850209706276201,-0.09545966556842192,0.0094511350411976,-0.030538306174092034,0.11177266491241516,-0.03671375755351879,0.09379634927269982,-0.09954449997617104,-0.06741455237455571,-0.060129736501205615,0.009651810681946286,-0.009550243132343293,-0.038333898610621364,0.005517072559904858,0.07369479974851881,0.018333258364146753,-0.07957873549467709,0.060727852658706116,-0.07343758699074428,0.0729769009531889,0.06354059576865068,-0.04357986455170632,-0.012396237859927842,0.07360483437686026,-0.023378573551901052,-0.04593486977845265,0.0334805653428727,0.12287692063075895,0.3258714343995113,-0.15464909401395388
79.58080291748047,1.0193939208984375,-0.0067073589487536,-0.21486765538849725,0.3030801878982437,0.3170825555602439,0.17357913805196273,0.08203098130999725,0.1599893716877409,-0.06014474941548363,0.023517611759513432,-0.013914139348213117,0.08019004520904767,-0.004545479646984749,0.05459016171130616,-0.20289194872156427,0.07072987717647251,-0.1546850122536318,-0.4150957176662891,-0.26642391564613455,0.0208184256038233,0.24082557264473706,-0.13193826007771475,-0.02075348524987345,0.047093884393616545,0.040141519868331775,-0.22232974328361577,-0.058029916918022416,-0.08163950743558303,-0.21839083179046806,-0.08878327534692701,0.09533739894648938,0.03309539856724401,-0.2398651165796954,-0.07459850124154047,-0.19586641324785806,-0.2191518046058315,0.03700623584352364,0.05579757812250402,0.029865712999935033,-0.2573391104028001,0.007493154047682138,0.17804365319515122,0.7911554210425307,0.36350852067132966,-1.2172239922241048,-0.4941004987455087,-1.4976216996748881,0.8647091127458956,1.3848354466392967,-0.5207865970668203,-0.02518065876554002,-1.1358792697441713,-0.2780613034748608,0.37363782886558117,0.0238521612282041,0.05177788215333783,0.04930053385977882,0.03864709228405215,-0.01509731778476918,0.027088757894246935,0.00201393157398896,-0.002390719247166909,0.010001654286156977,-0.049767759910269035,-0.03171497335652616,0.12321486374039073,-0.06524130610125234,0.019954085558059782,0.04797992682484036,-0.08193079236873783,-0.04623385197578772,0.036827577220148816,0.07236332756862122,-0.06644461144723952,-0.10284052530298281,-0.042257017343844294,0.16970396125011447,0.04799916332072706,-0.04159306704635421,0.14855267986217646,0.016225456769686855,-0.035724200077586796,0.003077003379368358,-0.014963997574151929,-0.046715701285971196,-0.04621700663635529,0.0175759471078158,-0.04528526723733023,0.013425794816018202,0.08446112320976493,-0.11530870859523451,-0.05417662414519692,-0.01750763438945166,0.07438482680964317,0.07253136252422718,-0.047570068126228285,0.1419012694564119,-0.1130257038648052,-0.004932333234011623,0.320110584661869,0.4445903136850355
80.6001968383789,1.1591033935546875,0.4594136952991543,-0.3585925226932596,0.0795954744259407,-0.3499474749381314,-0.14477142186196734,-0.09422409651020154,0.1651535673782381,-0.11700700645141464,-0.026534336331007324,-0.06789548091563416,0.057545224803686096,0.1010078098491877,0.01870920661756905,-0.17858435092662928,0.15251864954923522,0.22341298042721766,0.31068051239597655,0.24621239141041942,-0.20821058615714003,-0.10226933502542296,0.025484526070749663,0.25918560445913713,-0.07178011366584236,0.13652307079709666,-0.04030611413438729,-0.05826882906102116,0.04571159074915818,0.18964849905164038,0.0022564726205869107,-0.07042782482181217,0.027821598505515067,-0.015855665179837428,-0.09210887270381764,0.15923141970274768,-0.001499995729505656,0.05049323363647567,-0.19844909305087233,0.23209150895473274,0.1581437184484768,-0.047270236112241,-0.063945817116218,-0.03974723470611586,0.5226756307726466,-0.47492241337847,-0.5993752076857437,0.4771024591564331,0.4827793136212109,-0.6947076219182429,-0.551598633875519,-0.6810775484259973,-0.14702483773369573,0.02019354813100191,-0.17476986754795634,0.020923841787519624,-0.01042187350960094,-0.08892923156687502,0.0732213891044999,-0.007036600669416625,0.018589664894423073,0.055242151752151435,0.009080450050420566,0.1406386303763395,0.3027895073190865,-0.07979432104041742,-0.13605586469222394,-0.038132640962921585,0.027989138462530688,0.021924046534354445,0.02097436370465389,0.0811049822473111,-0.06230486670529271,-0.018138742910864702,-0.008305247789965331,-0.03777054734613012,-0.08219761150023969,-0.07831072272120465,0.019146254483444324,0.041045108738919034,0.03613903028827879,-0.021474987166563098,-0.01015563269057342,0.02830420569220176,0.0103090549986594,-0.03692679919995158,-0.022006970485601622,0.042207627930775066,-0.07396137134546454,-0.032098406868791486,0.016536072405717327,0.05270793214287239,-0.05214288794682744,0.023061667807816925,-0.082970052853748,0.046743317195249136,-0.04049289044378434,-0.01918660668217019,0.13166472097006734,-0.014478369674187728,0.014692163391370371,-0.11123949935669539
84.78690338134766,0.9792938232421875,0.06592457742354418,0.14520558819194973,0.19729598708407212,-0.6353876292530429,-0.021350974110456833,0.2318371200060285,-0.03887157498497129,0.09632331358883424,-0.11243130222811772,0.02190629752978619,0.175932099958253,-0.007648829528047109,0.13714762941592,0.017104274100533848,-0.07998960849354839,0.059811383279999936,-0.055981805517039206,0.08120929465095217,-0.21785034580131443,-0.06558073692384203,-0.17678108485028596,0.04057620095882516,0.060452498642892816,-0.1508611699102029,0.194645454765884,0.18938360278083866,0.04806899741373889,-0.11598555439450337,0.4123463442741198,-0.029571285294741796,-0.014489158310280538,-0.026742840138744756,0.0022439801268898246,-0.10193816809567989,0.06324193152570537,0.15865828064510068,-0.1980432884923109,-0.3664440504886297,-0.27043052209057455,0.13272596661174244,-0.8101588106753805,0.37620348534684267,0.17758247654023274,-1.2695462352329892,-0.14139788968944095,-0.7422756585512094,-0.768655016349349,-0.5250944982200052,-1.9902094141341764,-0.7911130816138855,0.1903718713467472,0.32828430070437353,-0.9352576078873522,-0.1443356905899269,0.641414847362658,-0.1851090412865033,0.06183063443571475,0.005117679686422552,0.026084161965211957,-0.14268382620596104,0.1124048241702228,0.0029697531012311943,-0.04923496246004988,0.04543991068540653,0.016985556403076228,-0.07905781507657084,0.005638611731224329,-0.06754364564250026,0.03764799719101286,0.14510034712154332,-0.08652775738256768,-0.029746897952680915,-0.08950117637988432,-0.06282841888827415,-0.05484079692189081,-0.04645018491447464,0.010794753336384674,-0.05148226249767844,-0.051729117407334324,-0.03487768612871935,-0.026109062604371368,0.07544865515937942,0.025380321827364168,-0.004009847806977814,0.024663025809975266,0.019003589675830893,0.023222806479587434,0.059689326240132984,-0.04235744171273671,-0.08118731940231454,0.012242582988268016,-0.04257979196681884,-0.12191120209645873,-0.2789557311204884,-0.18259484992220731,-0.23016661479082304,-0.2563829747375935,-0.13528617905211077,0.16161323257350835,-0.142598612721655
85.76619720458984,0.9998016357421875,-0.13279096732161338,-0.5089066601867569,-0.09790835999960096,-0.22375933927411684,-0.0008911124303419837,0.32587468356680466,0.1847387981128682,0.14719766325010536,-0.005706363807650609,0.10275003080179643,0.16305132647572498,0.1628417261647156,0.048135100227878785,-0.03585624957241024,-0.16917630788566726,-0.1265237074129989,0.03160361980212072,0.255207465973995,-0.022930612065220096,-0.2958489917650804,0.38003676439509715,0.06464982444311465,-0.09808213368047958,0.3069560021313249,-0.14334536866956796,-0.2475369593993755,0.025428480499042283,-0.22084140720658713,0.17755827233447888,-0.15501626999248347,0.2574136401107783,0.04153871157572242,0.012623084223477687,0.21262900106921373,-0.1536020189442168,0.3561321604485384,-0.17036645603803602,0.0022492749839395365,0.3290922705201048,-0.048199453158861864,0.6851876388730465,-1.0722915072494388,1.6493111793512283,0.9774017904986168,1.256438685651187,-0.4377259775405118,-0.5545395923474625,0.4278393362405264,0.16497587404178118,0.293782167288002,-0.48661323601235684,-0.6739783762182961,0.2516876949217069,-0.23619542002158428,-0.03134711615298851,0.05503457472049919,-0.12889416386397645,-0.06988166596099396,-0.020721401707872608,0.015125065653450252,0.012611131561330471,0.041690489020581575,0.009909953742464762,-0.008323349365313482,-0.10875988049129755,0.08326539234079136,-0.022861625338289546,-0.042604279283860284,0.15354452367987254,0.06462514040444685,-0.017725436569125366,-0.13247284270133983,-0.015145870914480162,0.07672345361906492,0.16885415502386786,-0.040305699830899495,0.05008358596062305,0.1650515566859817,0.006461224626078704,0.00674173458893502,0.0989541984833228,-0.11809408232929106,0.0035342194017975036,0.007851137118150752,-0.009399641098350165,0.0067087181119161446,-0.022221473415406142,-0.010010581387318007,-0.0810524497731393,0.024672501142544517,0.004922590825875435,0.11218750461075155,0.07667893658887279,0.04182854896269658,0.0247712560469453,0.09484248820273258,0.004573132722677004,-0.02463992842503019,-0.04963788624943633,-0.027560615493349316
86.76599884033203,1.018798828125,-0.0192872013280099,-0.03565494173655637,-0.011214903435767129,0.4156009316024929,0.1387092430900126,-0.4641689014618603,0.10135528646646937,0.15904092118200613,0.03224338381351267,-0.12053335514297744,-0.06597971099409077,0.03489968102648537,-0.020170714653687454,-0.12539434119431073,-0.07839191551180003,0.0475296581206443,0.660506123960148,0.4532844749669317,-0.038026618385304516,-0.030599010186822106,-0.2222612955451959,0.5852416411423093,-0.16860053519368637,-0.2333625778302524,-0.10035868903598669,0.07995552012858265,-0.052650144667159865,0.05004561712208473,0.03096672912376049,0.2579317141582541,0.047346183082459525,0.03242893505949402,-0.2130536026674635,-0.051385665381218915,-0.05741674433252731,0.13852603920439552,-0.11309790181228901,-0.18833709206018398,0.1146847084580699,0.5142726640208366,-0.09430254980367897,-0.8590497722196109,0.4244791621535782,0.3225586563596682,-0.9303576319849245,-0.9607577706954104,0.6842938408335717,0.32253638255346606,-0.139621117224665,0.2275498803743032,0.17619867256735938,0.7614429406565567,-0.2945702415515612,0.28506360744611037,-0.18823629553969778,0.03074508123758895,-0.03194637289159023,0.044110342959850724,0.010669215479079926,-0.055658836027569665,-0.05059411797454484,-0.04219088572152034,-0.07658259480427589,0.05452024218960512,0.12036533929390295,0.10888929506429183,-0.05728589693357712,-0.008499045102244238,-0.010928360399015838,-0.007277578098089533,0.013478501089546945,0.04680754294013787,0.0822912206154839,-0.13030919614424152,0.06392395903674179,7.266626879115501e-05,0.15406355339230948,0.1412057163273679,0.007366012973924702,0.008364751872742113,0.01894935515136377,-0.0023174033606824414,0.0047727963021765,-0.010069081722902426,0.055914225579552355,-0.009840672610398974,0.03261298796664124,-0.015922857408737494,-0.07855948961240396,0.054112489356367435,0.00404868191542046,-0.025541941255521918,-0.028288943437354386,-0.020674488310035703,-0.10619056857382377,-0.1480310222866204,-0.007246001388336254,0.015828107262870712,0.03831410108761221,-0.02047906159905015
91.04299926757812,1.0193023681640625,-0.6389157735060201,-0.1149955930335151,0.0055666462026288666,0.17968135614633368,0.2707512614272433,-0.20316908319416235,0.016554806259013205,0.07149148546119827,0.10019146526659782,0.02681620895826331,0.19114146561113812,0.18837694899875443,-0.014801971237383207,0.06772400045026454,-0.135684415354284,0.20550520466185168,0.28733810732744436,0.2203358193658448,-0.2846563351928012,-0.006571142323006575,0.11724540902839166,0.046579618043801396,-0.17905326265858865,-0.07931081462419204,0.0021808506894323773,-0.11030770972747034,0.06218290096885999,-0.07864097192369218,-0.03636321849005619,0.053207161946944914,0.2538392103892191,0.21547879528460737,-0.038216702859905416,0.038168679494926167,-0.07239349261943458,0.039551611337124565,0.19737931581919066,-0.1373740074272799,-0.06894888661756331,-0.0788043334500743,-0.2866009720809824,-0.5451767928509375,-0.5025562228967868,-0.7343843441217167,-0.021685990330278494,0.9489676555578155,0.8875816460598039,-0.23261618703855408,-0.8335398167073392,0.3031512853417102,0.2752681487423543,0.3291957669865229,0.4947909467785827,0.7246939176896985,-0.27852131901852184,0.21783812735893976,-0.06547883117053946,0.06928046584669753,0.02791757998078559,-0.025754662532063755,-0.005651753195374762,-0.07105661844389587,0.07108048729941378,0.05682257860814241,0.0013659325817676688,-0.05272903821216555,0.02475311002853395,0.002371430258347627,0.030587681200602436,0.010167763513591666,0.12057748609166284,0.06114784762020909,0.0003402281834756285,-0.051468769318081906,0.06553716852868485,-0.011688173863609578,-0.07916273714450157,-0.01973485903610525,-0.06275561100703045,0.007698613564949606,-0.0522453086867984,-0.0060842486433161785,-0.022461434940590747,0.09056309439306483,0.05703208107980334,0.02690427620194718,0.050134808236675744,-0.021093455892617897,-0.06601679531262607,0.10393113887367982,-0.015907734184797056,-0.021581918376055487,0.01662605543765265,0.05125926997552089,-0.06268341232701588,0.03245275498720061,0.15086208475848767,0.1628570443192944,0.2108146777585277,-0.18992406785261118
92.06230163574219,1.0092010498046875,-0.1875092763800082,-0.15779268973036753,-0.032586170260817435,0.12455987692126205,-0.26861281639073414,-0.47016507830257326,-0.17980809092420538,0.07225511121266605,0.048159995157124894,0.1334425289356332,-0.06619407846190582,0.04090778716072151,-0.02651991030828984,0.15363427939474394,-0.01929281434901889,-0.27291075226467654,-0.05467912693893055,-0.2697543665164552,0.3924818025362389,-0.09714929692905343,-0.39511210041391354,0.011626098689187955,-0.4571051848203381,-0.06048754038937134,-0.12046552179889214,-0.1586999445889304,0.12453580466004045,0.2448693756426633,0.3424371013962518,0.01479029769878751,-0.05293448114277914,0.16567503041532183,-0.046202266785833036,-0.22765467858909333,0.0024567502655537584,-0.25549390310417863,-0.17811486842517565,0.09563281860108525,0.426690328515011,0.18806410354952782,0.28806646360531296,-0.353200034129798,0.6311183511420824,0.8327076959983856,0.17042143350212285,-0.4032752509269999,0.7307819405882106,0.03011885295446322,-0.16282857914574006,-0.457491312333544,-0.502622250402456,0.1765699238636131,0.3654587937676739,-0.2066549152300225,0.12151632897729588,-0.0002275719353368969,0.11730077436356151,0.02908497842700686,-0.08755387016307906,-0.04558696080588656,-0.06941185298271305,0.09835212550085118,0.029100159008325254,0.0014880265539541498,-0.027078229412733548,0.05652323615949979,0.06642448446068908,-0.061283300888226956,0.047168965378024674,-0.009854368820838264,-0.08064453378733169,-0.022322297736712685,0.07520952584450656,0.14196778393612713,-0.1151897944291965,0.047374990597280446,-0.01785744822452226,-0.0852723012509538,0.06320058788211409,0.035464523095260915,-0.05723716348369591,-0.008491235711183435,-0.03454894945281959,0.054658825516445866,-0.17689068850238832,0.04390986907042172,-0.04293317537651239,0.008524989114832862,-0.04415789365017278,0.15819440953470923,0.13636079936913661,-0.04129303838421881,0.059124377316936316,0.11381222646038283,-0.07961151436369693,-0.015822959890361525,-0.015731853137504255,-0.015933368366328846,0.12882702328544998,0.24163594012473286
93.07150268554688,1.029296875,0.11449153874943538,-0.5396476214826821,0.041939068376772276,-0.11798913143048351,-0.2843389996983667,0.08753431463235015,0.08222476100898024,-0.1229846514591999,-0.007653403024731038,-0.0877791648380531,-0.07763761905594257,0.1426598617013045,0.013596946389869233,0.04645789449643361,-0.033657396854278654,0.15167033218081036,-0.16228143764999986,0.23364448801254253,0.048768436323614314,0.006104248507483272,-0.06346732869025093,0.5112396212711592,-0.010603179009094701,-0.191885531382059,0.11241060297409945,0.04966758908895779,0.06271982974139007,0.16332708830738782,-0.04802440898407551,0.08795904483262379,0.026271223253526224,-0.03487692694712332,-0.007618013459606882,0.011473743198410253,0.02099220052939686,-0.09199741151067763,-0.2791390422061281,-0.42404285250571466,-0.42164529883131086,0.6479006052980937,1.2171113451959783,-1.4993267156895516,-0.7676848981445878,0.1150631759688201,-0.0739131895947266,0.47032060450929747,-0.046270797926166944,-0.4191566583003517,0.8189708694463496,0.49580930114393723,-0.41408513044633105,0.1408269212639385,0.07562035252346003,0.0008566782714227263,-0.06435379053604218,-0.05354409305700926,-0.0318530199030386,0.010684884169104496,-0.07304867015007804,0.006137083691713048,-0.13515218210985486,0.008758652476221394,0.07872803911291656,-0.06561588659189892,-0.009944428715166457,-0.04974638484707664,-0.04310082824407944,-0.03350699422664059,0.05685183360039706,0.008654587588840343,0.03647309511330128,0.010043672884191585,-0.01896666939417366,0.08162336347357996,0.009514611519967351,-0.04172895739933446,-0.04874552529864671,-0.055192842334289324,-0.06888093126751187,0.04758850167006297,0.007158731316359551,-0.03305060469999273,-0.0014309523490113256,-0.0038567634127915917,0.016198159843081854,-0.004863356745848278,0.011360058766935983,-0.04619403896919214,0.01588291743819019,-0.0635424393675229,0.07577253956288069,-0.02138241053592848,0.0015918295709595603,-0.08892115774171297,-0.09196084861602863,0.1766766728880704,0.2821525742756659,-0.004524953070397084,0.13023018883629645,0.47406736705963176
94.10079956054688,1.1693038940429688,0.2077010375537085,0.28175484198222134,0.16085725619763894,0.07854866906637743,-0.19896896295166136,-0.02810538229471661,-0.03556113777175292,0.10583480827042366,0.015430077819084509,0.03667833676767849,-0.15435398604944053,0.11806331886119592,0.06372721545238128,0.00821032336788821,-0.14236118400183767,0.3975391206865317,-0.24717135613887223,-0.14315745951465617,0.0035083074763245584,-0.22683320918766942,0.09376525716488214,0.4318691026097567,0.10673870516084297,-0.052160219775494676,0.06658735929408802,0.09914684762265094,-0.11391678945871321,0.05326509725452871,0.02945266971945287,-0.13599950083735998,-0.004245221049447424,0.2738800628399495,-0.0625487125468709,-0.19332633980669187,-0.02999460760843576,-0.11215973165808832,0.07309897489695635,-0.10765421878173562,-0.2749674201997445,-0.29404434593765383,0.24959983024644544,1.1088794803064395,0.30410246476784264,-0.34036262920134225,-0.31197718808480324,-0.1339673265421709,0.14219158259476855,-0.014467209846887187,-0.5973188809418761,0.1479899565860015,0.010410899849887405,0.012012070237318512,-0.04549805273917854,0.029019450858996876,0.027001553209934345,0.020568343492405078,0.03948139716597,-0.0036626979751633207,0.038654925214256175,0.06907432006674293,-0.11882452262752957,-0.02344951762957491,-0.06830571531119334,0.005402629001783132,0.07327783128681223,-0.10366034758404469,-0.027103140107612257,-0.036258851637118,-0.09643739776915078,0.012083759095880773,0.025406529772408815,0.07573184876370428,0.018762328164071383,0.07564435742605417,-0.07891795818976376,0.07404694411324388,-0.03665638420221769,-0.0249213577340721,-0.07647790198448282,-0.01480158110583187,0.006266126288754,-0.10480903603091246,0.036589002365402884,-0.004254123977198361,0.00856853970471845,-0.017870709411841233,0.030458600584173632,0.011210294882112193,0.06903363348608912,-0.022494321213501596,0.03351011760629039,-0.012598647127460545,-0.10135569399272994,0.03848691193297073,0.06060068610391948,0.045110148853283925,0.1322285381058982,0.005992925138269193,0.0881160396081089,0.4134656246858249
