start,duration,0,1,2,3,4,5,6,7,8,9,10,11,12,13,14,15,16,17,18,19,20,21,22,23,24,25,26,27,28,29,30,31,32,33,34,35,36,37,38,39,40,41,42,43,44,45,46,47,48,49,50,51,52,53,54,55,56,57,58,59,60,61,62,63,64,65,66,67,68,69,70,71,72,73,74,75,76,77,78,79,80,81,82,83,84,85,86,87,88,89,90,91,92,93,94,95,96,97,98,99
269.5845947265625,2.377105712890625,-0.04492496326988596,-0.22555411635072878,-0.19608307468241054,0.033785942097698855,0.040356255051150654,-0.10253496467107877,0.018952922966272788,0.07652084616582194,0.07065593601669787,0.13493126423923874,0.009450717078172155,-0.02629095584239262,-0.0850443740629202,0.02068164303892567,-0.07367297983364451,-0.09611975748973133,0.03389467289271865,-0.07339320219129096,-0.018009730037971183,-0.04881892202040076,0.027474896404855186,-0.1755275828943951,-0.036293308101008,0.45646668696225334,-0.3324293653678591,0.6045120283666556,-0.1987321437787531,0.4065442889851052,0.033337223749817506,0.1968009692716352,0.11518234020187072,0.6199621994815363,-0.18647767351885483,-0.2601696583710043,-0.024463160227899294,0.0350424321741009,-0.05894314208160782,0.36634583953992494,0.2571571845454823,-0.06132822874526524,0.435857024728273,0.36478589511893855,-0.03077345252628798,-0.09845831649251377,0.38207505336548997,0.6681925507860242,-0.41795472018206037,-0.10251450231155156,-0.12662532683252514,0.17655768807454073,-0.33069888625732424,0.04617933040640263,-0.08476662453195685,0.08884430517302203,0.01816477109646309,-0.034762371834644645,-0.15881939546424043,0.5203751375604646,-0.5466736285235377,-0.4697698831413108,0.37010191071846477,0.14297584475798594,0.10690545695793174,-0.07800659786035664,-0.301542901097664,0.674862025936803,0.2238053288724934,0.044241374022346985,-0.0532096650818199,0.011465284684824193,0.03534057058497947,-0.02541683425442201,0.01427522238893321,0.09294902537020301,-0.07785215409609243,-0.1177632515622282,0.09238410760691139,-0.08890294991526723,0.0266008474936344,0.10371310697830516,0.04378035582804923,-0.10848492549959628,0.05677098619025473,0.013720627709095073,-0.030234144645499818,0.10151347652338526,-0.07040719893971602,0.025773251578326446,0.0330832902117789,0.0375892119229082,-0.04455475318206474,0.07155936725943325,0.05008335627317891,0.03204988606446039,0.048915504231416634,-0.10887990412446055,-0.0696169247785938,0.024856937176416898,-0.1556587503876506,-0.0393442676207899
271.9617004394531,2.3572998046875,-0.1776941970358927,0.08727352901293674,0.18096920336986158,0.061428758101608916,-0.06313439854078598,0.10022231549629816,-0.16438642218106497,-0.15267387933349583,-0.09551247812714196,0.09431996660801849,0.004422154629871853,-0.03649873814987302,0.02696329493719811,0.021735446617210746,-0.06819166418612517,-0.014899815686508056,-0.03504261537920466,-0.023756191827441295,-0.0684916634918801,-0.019967735582445037,-0.03560606814418775,-0.06290828988822801,-0.1737746477771615,0.10358635152535245,0.052807574248014216,0.30887716270852783,-0.00013515775445505519,0.17612823449129988,-0.2003456862433462,0.10334018708355201,-0.28645425889343157,0.1079895878181883,0.13620620043088252,0.4202071233574144,0.17427290273804025,-0.135505895269054,0.02889665665498925,-1.1891024108779729,0.16247692238473332,0.27351133998920163,0.2076954648996267,-0.4022853880498372,-0.029536964339835676,0.055366650977502284,-0.024665383736197997,0.21681279925915534,0.29360355088176354,0.2100684753397845,0.2711835677389808,-0.11648288260970738,0.11308981535658783,0.5314816971262019,0.12908937257758868,0.25676246229470717,0.3537554632540113,-0.03747432519411406,0.05837083826947083,1.0636634886213119,0.07584805526890838,0.5012212757532024,-0.11224154010204676,0.065897015816153,-0.08898963204437296,-0.18854813082341282,0.34208354331319907,0.05550682424165744,0.3448903884584295,-0.06244354589825368,0.23709450977433902,-0.07716369063888008,0.011187031495184872,0.0018033946261508302,-0.014121662001513602,-0.0737007891440192,0.03366437390812372,-0.020602849451633792,-0.0034485106145014516,0.00318998045359412,0.02958898905792786,-0.14601928287822522,0.004878566796066668,-0.07456922808001837,0.16467257036602959,-0.13055621228188516,-0.0793189751172381,-0.055295260828024946,-0.05842484023563599,-0.01424376242991939,-0.04712815353194032,0.004435968780502196,-0.07002258211833698,-0.02662621195128579,0.06082315665902784,-0.01018469309753034,0.029711204890805906,0.0025249738937590726,0.018334069476502506,-0.1336878695706508,-0.05162412482406525,-0.01061955734127426
274.3190002441406,2.127105712890625,-0.013801583218447905,0.0007913394860421612,-0.05979785021269306,0.0717487697095974,0.008245407346644813,-0.09150203388495894,0.0394594808721615,0.04556901980485897,-0.05180541284368947,-0.03815593965464865,0.07482575377544688,0.04372101061097439,0.0537647799123248,0.1917811784033953,0.0371239563972951,0.0017494434225525928,0.047455282066625706,-0.0221544574829817,0.07054444459763702,-0.1052211654774363,0.04605712959905631,0.009857527453786541,0.03923626103329438,-0.014306700768899372,-0.17354234923255052,-0.003277206822368586,0.0997458434683853,-0.12975491970899394,-0.07810798151458433,-0.2258785661164701,0.04781510242325834,-0.048554725891875,0.06571239492757117,0.02104193028504017,-0.1840743688134779,0.03397393833120321,0.04145061773523913,0.09810641233438772,-0.204779466797496,0.00876965195788016,-0.13922238259625966,-0.3428311934913451,-0.17844870424524836,-0.04861534303392788,-0.14246699463172138,0.27641529012322785,0.03887944079210511,-0.39457419276298,0.23082049571339217,0.03286629703498836,-0.0832427549034658,-0.1477665945077795,-0.10966608606047447,-0.039930057635659065,-0.11786814441190253,-0.07926826365048321,-0.2508234742094906,-0.05555991548908966,0.09733907328389235,-0.13934508034388282,-0.12126597850358314,-0.5983231126654747,-0.06578507924160983,0.2054218757925415,-0.01257509691615127,0.438619250406816,0.42260080771460784,-0.1814273952449278,0.016985270995133427,0.06258369396979585,0.10061120608547205,-0.005752410319283137,-0.031225314187651523,0.04806763860718072,0.11067767268820367,-0.11814956005913038,0.03596389564132755,0.03318637670001914,0.10390409510317418,0.07668626381380392,-0.34010902060414816,-0.19221666663244666,-0.13818852369653742,0.025821356187174183,0.012278055515149914,-0.005426453489460812,0.01177325972751179,0.08773469578306266,0.01961533411919854,0.12346243834231274,0.11844035997278451,0.07976540397909677,-0.013028053864527253,0.029109291253469304,0.0033882964037120467,0.150254544596903,0.10798905460893862,-0.10299395729513065,-0.3105154911400193,0.03917769912400389
276.44610595703125,2.22760009765625,0.04243950775754049,0.08691670213160613,0.054632378194449854,-0.02612150330988522,0.19229709235507816,-0.1321250719231474,0.12725486594398777,0.18680240247004937,-0.07462010465591454,-0.233465804627774,0.023013679416357583,-0.015102350475919497,-0.002798826503373736,-0.037428877277800164,-0.031177304837931602,-0.02453665538871791,-0.07720553204615628,-0.00904142791287841,-0.055586096161858875,-0.012626640703751428,-0.08578667550697648,-0.003372897236697982,-0.15589355619069217,-0.026666248600045114,-0.01777285526089154,0.017310891014358135,0.02496106380332291,-0.012844100533606215,0.014346508925537495,-0.022233490046760774,-0.0052474377126738025,-0.06339638232744574,0.07499280251477768,-0.11464423237213694,0.009917857524072383,0.049540250949320117,-0.024577223545060006,0.03300879127064879,0.08507910834417078,0.0413695914725239,-0.0025575473116161143,0.13109116647829722,0.02599455128334509,-0.055193841841918195,0.27596150957264676,0.32617539911043597,-0.06685302732296426,0.735095626497226,-0.22033507962422536,0.05818533120962886,-0.10567298727655118,0.10103575925780418,0.18506744675774406,0.024142860588115066,0.03635410903914564,-0.02328887827492772,0.0159000782295706,-0.28851360229332257,-0.5260547569597442,-0.00513128817557865,-0.02158899192871238,0.3584854727452586,-0.34402070494268816,0.10136779276194711,-0.509011204541667,0.055168984713326735,0.0019123551568562508,-0.014019391894550093,0.06031143071173558,-0.03636103088421079,-0.0031175450415062062,-0.01505654977706805,0.05235331083090389,-0.02744904668150394,-0.06313124334779115,0.04189084047870722,0.043277087519077675,0.1018198975681211,-0.04290644943151692,0.24166422547028593,0.10983320277036811,0.04549136891668645,-0.020643840597139685,-0.005765156401979923,-0.312740803141181,0.1018645905491558,0.04095686713501439,0.010258107834517471,-0.11399515975613868,-0.01738722777087032,0.06103768399468399,0.04508723219136201,0.12809917947158583,-0.03080995213302633,0.17470348155073825,-0.1488568144441282,0.2345889495482104,0.04636972366860606,0.2504243494538203,0.022568449954144504
278.6737060546875,1.997283935546875,0.0056813812259570995,0.08383847474263213,0.017957855405141703,0.07587703023120995,-0.09704350784875349,0.12586038241951036,-0.06588389679907017,-0.08195203258433902,0.07627444769207577,0.28857712342254926,-0.043668015981535316,-0.16532212781531183,0.018299521152727607,0.054809145727076784,-0.06049685116567543,0.19468902930921486,-0.08541429070928022,-0.03050672278528546,0.013020776778789994,0.020476223393767316,-0.0030481960856040126,-0.050942502378793206,0.10257430143915508,0.016150596314582315,-0.004894994050026705,-0.05522659943778019,0.02440764018261781,0.09752108066780672,-0.4014255628108382,0.11744495883312692,-0.0582984632405783,0.10698741113576019,0.11285721923727887,-0.08293253983457141,-0.013449850745081558,0.15210619054141428,-0.09235919072952846,-0.14070985182866205,0.22229982960361816,-0.22641445597688928,0.2941594633411892,-0.047469136220228,0.18595091519662582,0.1067797434599291,0.4074510339535409,0.00762973579798823,0.009930234995572548,0.03383582641253284,0.07387231587970561,0.04989324972717674,0.010002228475757192,-0.29804048225636176,0.2420167543715352,0.11219289398249847,-0.021822731785176575,0.13812584136189388,-0.041911246862900084,-0.2066886644805588,0.5185430435367312,0.060371824062393595,0.36478210711952624,-1.0120876992414998,0.29007361192110775,0.5605600737154838,0.06060631311390744,0.3425281867277581,-0.6042616991420695,0.23243569180719503,0.272630465632966,0.01760211217121649,-0.2326737336426479,0.027274783515281772,0.004876855908110553,0.06373673340103948,0.015346002325884631,-0.07515988603832006,-0.09019738922373563,0.04518703461012892,-0.02622758605940051,0.030898773416851627,0.05056453784536677,0.14995021907677586,-0.14614497264406587,0.15124914061571018,0.044322026964840056,-0.01912418631256288,0.04596057278998383,-0.14370962786068198,-0.009922783056225409,-0.022959784090761763,-0.1115046154601012,-0.05327225645692828,0.06014237249252637,0.015894611901750635,0.23571287401808827,-0.35073802546437605,0.02019632763018022,-0.06617306558989713,0.14687683293861953,-0.11826848158520917
280.6709899902344,2.107513427734375,-0.09458657548182417,-0.0617797806693637,-0.2378822904259072,0.04527374087957214,-0.16512828494691123,0.01783534514564016,0.03173512197183954,-0.09066905924618589,0.10738407759552736,-0.10729808130460315,-0.06841836069948301,-0.060704455827593,0.08794576118235406,-0.09207657552206354,0.050135553039829375,0.025898218827841466,-0.033098165767426344,0.02208031364892876,-0.08781078037192319,0.05960928108571483,0.004080822060373614,-0.09889152638620426,0.007987857517133861,0.1308572773375658,0.08244570407563172,0.1562079868468585,-0.6165249749923704,0.10159862758811136,-0.0431445166449153,-0.017750027192366378,0.2369346154477191,0.10009326425542638,-0.12210075217959172,-0.6495830216000121,0.035394288835538995,0.3261849081084254,0.1052478401236714,0.14841676715886964,0.3184886936986076,-0.0871426946488718,0.36595817210842946,0.3491194813531482,0.15102944222275777,-0.6206300827049613,0.4426821802036617,0.03910313046862268,-0.5707701896178946,0.05855855389094518,0.001690855175113401,-0.5368173488980893,0.7738846571669996,-0.46525175041488054,0.07636067281181812,0.23464436321599894,0.07526689110613402,-0.37020946906200863,-0.31830288025804426,0.45096733803988986,0.2658392932554628,-0.3263699406010418,0.0581935938418304,0.44596298942831536,0.2091950323024851,-0.03680110292248963,0.10922914267050356,0.28536447216457267,-0.1702637111519479,-0.014019695425169225,-0.009718533243535152,0.022603884364589415,-0.2707603289060212,0.10874752761050614,-0.049091384706299576,0.06537497724055463,0.019868746208624492,0.014223280526198461,0.20356570693673692,-0.1701241675131085,0.061015701060146796,-0.057928669849610114,0.07872043106994643,-0.05108510535251379,-0.16324411795473323,0.12284766305273138,0.07855979032018151,0.15180701180541323,-0.0061821363062719015,0.05927173744367136,-0.08288529390374899,-0.041817492952201205,-0.053435090426959375,0.06314919421864837,-0.051240998256125804,0.02121775052931251,0.1002531357647044,-0.019205115693361186,-0.16982738091434332,-0.007177472698951026,0.15313852708519796,-0.03572522532259405
282.77850341796875,1.93798828125,-0.028509960760683448,0.06931002297783964,-0.00240133721438885,-0.10839022592910504,-0.0020276744633597435,-0.229754329374305,0.13360414307276083,0.040663280538901336,-0.1311652291335375,-0.225862981548337,-0.04858028053820747,0.058300655356717634,-0.15724887056990433,0.12266759488654033,0.061238447003938636,0.024785943375377283,-0.00011442308199720075,0.06526585545983031,0.21980945934162782,-0.20083260618382892,0.46366568521652457,-0.023578771407739327,-0.12718902426835743,0.022328267440895014,-0.25431643566211115,-0.10250644340159147,0.12245464623949462,-0.15704797402806578,0.1886077890709983,-0.13784270439218357,-0.37392189997265785,-0.08517908851627491,0.1570981166725117,0.44287673208670286,0.7019013258594283,-0.4723528550885997,-0.21229462528841853,-0.08479194110267567,0.09632050371442814,0.4588385710133424,0.19865154765321075,-0.25263777210255545,0.006468331114333784,0.012751202417182472,-0.20605722139899413,0.03595462650167724,-0.26229673048968893,0.021100192776553207,-0.10239549787515119,-0.04814796879526263,0.2797872426236252,-0.26546769457230374,-0.6230804702007826,0.05031902890669339,-0.13042708497390298,-0.19394355342487746,-0.08147214764305895,0.1241464391472919,0.0708164819970995,-0.13288614549642827,0.24741312320184772,0.08229151239047355,-0.1961353624223151,0.18208081906625634,-0.021937222037549085,0.10522983183648991,0.04940663596130633,-0.01982150612440923,0.125897538503258,0.025370904212900412,0.028293086896444056,0.013682743937807745,-0.08317131045049339,0.19215464619928305,-0.004458009792794284,0.27261670276620015,0.10986453260793325,-0.2204545898698499,-0.22398217611905102,-0.18207855836713996,0.05453447053129889,0.060785496747678636,-0.144203526259487,0.03565296318671675,-0.19475868010077718,0.035791006047524485,-0.017296672990783992,-0.07060321827914157,-0.11083478712603481,-0.019040612320351473,-0.12711790543861695,0.04963265544627065,0.02140689239266328,-0.02454548585268557,-0.048117576275022604,0.04299725049623014,0.13358723642199263,0.0380134289960614,-0.13414426491173514,-0.018144298444669617
284.71649169921875,2.037200927734375,0.11616790676859572,-0.05709410800256546,0.08251960787900339,0.14814084504722733,-0.08732425566913202,0.06911699025033673,0.04791162608717232,0.22915067956149546,0.10369592367636482,0.02680763882335139,0.036965717070668966,-0.06929666227049815,-0.005267589057360994,-0.006286532864272023,0.009871169609731062,0.052450263097084726,-0.05455171475017513,-0.07722577752844738,0.08466140049493817,-0.059893081748809175,-0.12185656556284702,-0.14108721919421047,-0.06374090116457087,0.03411709244787957,-0.1490222180221355,0.12417536871647217,-0.011456225604830025,-0.01894661617508789,0.07788602062270047,0.03578740252474597,0.13706935306365095,0.06376819962376803,-0.013069001334159891,0.009243196599293518,0.011865718400080508,0.02326130226110951,-0.14135882781762288,0.06679324966110725,0.05731930506242927,-0.042684912508840885,0.012667803001114843,-0.06582907059601113,0.031649681364681936,0.07221772419762079,-0.37247531196219036,0.547279738960016,-0.09255122481633243,-0.5884704435722814,-0.35711076948526616,0.008172571004921192,-0.03238902251062512,-0.7192010204713524,-0.18140312403863518,0.5836942005897789,-0.21412759014577798,-0.10406348111170231,0.041092965491628455,-0.1473096510852897,-0.03950360463701719,-0.031140058196572194,-0.25943301348387265,-0.20177761135921263,0.06409640476035322,-0.11995880141578673,0.1197945860708506,-0.020340916773174823,-0.07115986349009361,0.08000157953912955,-0.006530314778705995,0.001243808766912038,-0.09583783066608131,-0.01925749216410757,-0.04483050161664214,0.10609947712930021,0.0012233470424433315,0.0870167367424817,-0.10481641960608931,-0.04661900022197076,0.007319484527237221,-0.05498906542932627,0.12740353215650177,0.029822207565829744,0.017199760023795568,0.011938094431608681,0.03812413848194144,0.056493797550628166,-0.003980404031123444,0.06091618818205682,-0.030589559925551405,0.016428894699095226,0.013084274354707279,0.013511592977703704,0.02961734247960153,0.06413364948018413,0.01666571513182955,-0.022444484421615146,-0.17182451491612913,-0.029186395574218038,-0.07100234684157786,-0.032818514461850634
286.7536926269531,1.938018798828125,-0.04748060020890646,0.14933208317775598,0.03059801091435778,0.19254966133105839,0.019299870010495976,-0.1098931104645607,-0.062433390132913956,-0.04897597401298256,-0.18845451550029116,0.04463522803488941,-0.05061104186965579,0.07589182389896058,-0.0009323244683576396,-0.0052696004941507266,0.07265971935954099,-0.05881421709836068,0.1208787140427338,-0.07100143486271669,0.4408391083236369,-0.020210394261594614,-0.002217759333620532,0.11504848333339808,-0.011839494469521273,0.11816787209096725,-0.3199601123563721,-0.11318008084224292,0.48854710834829623,0.128367772161978,0.04951704572815273,0.046302501873026536,0.13893977647012462,0.061775832142136854,0.010346859596388418,-0.3091053997286412,-0.18823822678385924,0.25879636810915746,-0.29844188958443674,0.022237663995164927,0.054003444364830844,0.16036869675337032,-0.21310369884695304,0.2462278560019478,-0.13441870935705805,0.1102646479719034,0.23294604556533033,-0.014521315480922337,0.339911883778115,0.11810788040207486,-0.09370843876717419,0.01146872125942676,-0.47996080054889434,0.00816857265593765,0.15023999216461445,-0.03316786822719982,0.24602869206119413,-0.18776536993110884,-0.05770491190948688,-0.06055046278953708,0.24089593650956753,-0.18880960650197448,0.17461964507377872,0.0031412665479354967,0.054172503811566436,0.04215498137077652,0.12773576152153782,0.015948779863433512,-0.11375762158755545,0.06539797290749697,-0.07047853513235577,0.1353228777969239,-0.12062350517915806,0.07746874513478488,0.1877532214513825,0.020293692602984054,-0.03938105017115896,0.016439525028176125,0.07433639563958824,-0.03582022682693108,0.026215662469763187,-0.016809211691510128,0.017698985526063027,0.04019507701845477,-0.048992496071207446,0.09513093852264218,0.03155010704848386,-0.06991942028839701,-0.01660809861856789,-0.0016316231744315235,-0.010765511195491767,-0.09599550668503566,0.03179072689822959,-0.016896435631596693,-0.01027316478802101,-0.027342826082454485,0.09874538687429531,0.07394353966311291,0.04102625582244168,-0.005448300366240798,-0.0741535953305927,0.024652585994809476
288.69171142578125,1.7974853515625,0.01909767013461712,0.09199950173209646,0.028555258608461257,0.033977261915250336,0.13509435231506928,-0.07418669039626821,-0.014601422465278728,-0.019715321121297365,-0.10660845810449494,0.017604738248058194,0.04692883146529192,-0.03818130541510335,-0.06924423679648495,0.08012252093815268,-0.35628087847742956,0.2834438104974418,-0.2885791546629912,-0.47228290625642044,-0.254981944650576,0.08903441674278208,0.31487059065508455,-0.06143800688234094,-0.3978367271401409,0.3205201219845236,0.41733752258022017,0.10093207823549362,0.04721637352220324,-0.3377697866122411,-0.2690451332309827,-0.01508040978857422,-0.04473613483942089,-0.03226490179477847,-0.6511421694111142,-0.25155330261260533,0.09435668858994926,0.3574694274801391,0.04705699373934102,0.13915859415219012,0.29249376325218135,-0.41082846319713534,0.30466354139176166,0.13615103745179105,-0.15043294828937853,-0.5885872940190611,-0.20912334806790922,-0.2856474967444986,0.3961661930211233,0.21196551871517777,0.14737242098297815,-0.21274411374709415,0.3068180769371463,-0.14762833189276556,-0.436898497629867,0.24243534744648665,-0.060912433286648554,0.2227889277081905,0.13934784004763826,-0.11406026727340612,-0.01414343395424404,-0.27293703714464285,-0.09758562734107491,0.04415547086773842,-0.11295136354950086,-0.44842018877584316,0.04684737500480508,0.08670443902550455,0.036479195906208975,-0.059862713008454665,-0.15223576549280696,0.16613809540979474,-0.034429382903291325,0.004976005538332946,-0.21132271006124767,-0.03960021697713453,-0.04208990756839938,0.021082104328000575,0.11360724044144971,-0.1337122526100934,0.08044499172549655,0.13992912832048587,-0.03898262698555022,0.02291844131792598,0.08206207161573993,0.07850717962904488,0.03981364871988104,0.07159352905700345,0.0015856980113178377,-0.00801362063667013,-0.028993983840538598,-0.018117428188301386,0.10378453085316158,0.1449947092601677,-0.051502403415298256,-0.09312586375713315,0.15790694980533856,-0.07950442292892682,-0.05500261454263661,0.007290095957004273,-0.10131348479382518,-0.14043646288266956
290.48919677734375,1.91790771484375,-0.1315576418434501,0.049401643625856084,-0.0500015729071888,0.02215407134386781,-0.10814437130546531,0.02727604743417213,-0.23414048683427097,-0.13408422955610422,-0.06811692121623296,-0.031376914405370784,-0.028259385348416446,-0.07109795962956755,0.215971618092931,-0.3071171517606977,-0.15192157702016554,0.05396592674018441,0.0016258573930493288,-0.27409112835700433,-0.07148762767296746,0.2539889917351311,0.04848322350792471,0.08633544207177894,-0.232286567746823,-0.3237490353560859,0.039015706256231644,0.6233267684810035,0.521014184148165,-0.2366272715543336,-0.6490822879297501,-0.1903827534445116,-0.20954695486407762,-0.04079397199876075,-0.02520574690513977,-0.16687015807198594,-0.26198637657545587,0.5701367097070268,0.2913668731219114,-0.5705825472123578,-0.03812888219940775,-0.0910629187321425,0.3855826779085837,-0.29256621035047753,0.2738732762977608,0.3381386226600956,0.6496053098194414,-0.10440384698047608,0.692192333663674,-0.1473876669214373,0.12416750144644227,0.03168033606287565,0.1849869746870238,0.23699065857089152,0.024958752832570014,0.05389448039761263,0.0875065100182406,0.16416623792845597,-0.40131140308714713,-0.05398011511479664,0.24620626145333568,0.20865699493296241,0.024586503895417104,0.013445470249041965,0.08400414679201203,0.1630102386712458,0.00023527598291650997,0.000501333899975557,-0.056669554708512454,-0.009477771968195457,0.057248220360054655,0.11002638280694935,0.1491414274273273,-0.01813514879342946,-0.1511721595105243,-0.02395500976640259,-0.007788179185064125,0.020103076742228165,-0.08451130840564479,-0.07065165133416043,0.06154804579738275,0.01658512135726442,0.17703648795072902,0.0875791971134258,0.10703722503985645,0.0364784148877524,0.03959730259960728,-0.07972020833471548,-0.06500880839507095,0.09770271254773091,0.001227143177998146,0.004268400946275258,-0.056651887264288665,-0.12107403736230588,0.062409608449256686,0.08885643662571055,0.056690525418700496,0.03924797437500301,0.10493823015915923,-0.07024418821422025,0.2180675351971298,-0.07565938022603794
292.4071044921875,2.12750244140625,-0.21078613127461798,-0.04928472827304603,-0.12497425707837935,-0.08421594640184157,-0.018142521155554113,0.06562713451585103,0.03676000008303684,0.13306652861776225,-0.10758424681550667,-0.1043641621630419,-0.4825346192915476,0.06572697099329117,-0.0631401019781137,0.019548924894726837,0.12310578911232747,0.13262569307720767,0.05553453472437931,0.04931213938441795,0.05341085541088628,-0.005975864664738014,0.0001692880499355563,-0.023802710640342364,-0.051256823747583544,-0.09164343606451454,0.08761730812165962,-0.04367608331683432,-0.026561970629669817,-0.0316216967018888,0.0872789276880048,0.10498480519383784,-0.01932993547860152,0.03618445276752138,0.10699693754526483,0.010256681026817899,-0.07313665281877589,0.07804841918414557,-0.09484171689629466,-0.07469143695171868,0.009512437189745062,-0.3330535727028885,-0.30611954482385595,-0.03413713769297205,0.030988097001650654,0.2622020115537385,-0.30657199327596174,-0.783307394438735,0.32905224325091625,0.04123879578797015,0.8881488595683932,-0.6520477805274323,0.23596936885855982,-0.051982673175992956,-0.15890560725781352,-0.2942403415765288,0.1620922224431517,-0.5321592025954904,0.18671961016823294,-0.32450789117767603,0.2609171461850444,-0.06541148101649218,-0.46882026454175874,0.026191259549858025,-0.05312327346472631,0.06328407759860809,0.07412081292692618,-0.0902020579331048,-0.11004792624075269,-0.007030169601412389,0.036848796771352374,-0.0015931137727856542,0.02746627571746433,0.17623674853888532,-0.03004420798446685,-0.0018378270599579,-0.05022265165626761,0.002350463534865551,-0.08519934617110225,-0.3464539004604041,-0.01580838080097592,0.10360198346284208,0.06312814110041415,-0.019673567708066084,0.23013050776343275,-0.23157658359732355,0.006442946274188726,0.031596230160817945,0.07568823655282444,-0.0821344492776338,-0.08923053003514934,0.10697146381013074,0.07507642601782336,-0.016384879946743335,0.02372670836820294,-0.13196794019471828,0.08454681211461398,0.03719810631191717,-0.17109917183342613,0.10931698286888779,0.0697112358876148,0.0024643503314232193
294.53460693359375,2.027496337890625,0.004531409485914024,-0.018488646603069064,-0.049391783429114045,-0.03444468054650637,0.011917796269322704,-0.0020900038803822463,-0.057690339965275145,0.03261297664359894,-0.0336305363140208,-0.053567141591100445,-0.00550223087682164,0.1259324798971508,0.17539533067350005,0.013041221822142138,0.09008856562115933,-0.12046962430664733,0.1432097013992389,-0.0757488346395324,0.13716447232403495,-0.0003693364543229528,0.17969790099409375,0.06888969645644068,0.09816788345432342,-0.14248703343541635,-0.08307385081356122,-0.05517775663164814,-0.09844107453108182,0.3148806270012361,-0.1566983473933351,0.3895340230846905,-0.25799312189745316,-0.16588429506089133,-0.30136908636974263,0.08122025441373147,0.09249410090044688,-0.12567019197236742,-0.2502365904048178,-0.15135605980436567,-0.3896038202612285,-0.951552016213065,-0.10752131871315308,-0.009776585055540835,0.27561184133352257,0.04856504232125447,0.20798859729258265,0.035373142971615534,0.4748875417438656,0.09505965526229114,0.48385491319915563,-0.1417697309868834,-0.12646132344671096,-0.13605617395313963,-0.8487097661424567,0.4936109404439164,-0.09315321060202447,0.11788969281565642,-0.03490705202310021,0.8439431516590752,-0.2980544578173947,0.16142030432650398,-0.21138134936510508,-0.25858357902475826,0.1648158018178207,0.6131833866406267,-0.09183717338988309,-0.0019121509677706289,0.09913611105884708,-0.08655732649301393,0.11672373733699178,-0.0772686623571757,-0.20595251669104492,-0.05636238406406605,0.0574454696089261,-0.03333961699472829,0.012321146407443157,0.07400840010517602,0.20819195295647322,0.000612599588589001,-0.04285909382062067,0.012014876178501818,0.07359767317757951,-0.007986467029644902,0.049790044790163974,0.15116517016955627,0.057097815924186474,0.040618517612269193,0.04779293423969543,0.0222917136653645,0.05855487720258355,-0.010476549654432083,0.029273882466403136,0.07861576520378102,-0.1623620823982986,0.04833898665051454,-0.01666662839300842,-0.06457495287492537,0.28942382238394776,0.03831127168458708,0.013250025712653504,-0.07669412251705376
296.5621032714844,2.0076904296875,-0.07101845275982832,0.07829532802550838,-0.002725693536269883,-0.22876916283423873,0.07630771277307324,-0.1460642175233705,-0.10680443669745067,-0.05370158091215941,0.16136726520932365,-0.004201148591376403,-0.036271044204283454,0.017137854651041246,-0.05944091182134376,0.12122657513307396,-0.08040321160018654,-0.01506297664616292,0.018932766649605373,-0.06096014349746,0.11860201237221714,-0.048877647644998225,-0.06527301651493636,0.1267191574691556,0.021675970410242516,0.1379461030154526,-0.02430424961096171,-0.22420400712878596,-0.028150527547727667,-0.02961543108152874,-0.019446691801546595,-0.05560498244749773,0.05249104660051157,0.1553259889598556,-0.1541355279624878,-0.036459635308044885,-0.06945445741140939,-0.1564239028309238,0.1848619546531724,0.5122611704830143,0.31447339598329077,0.05974700485384792,-0.12769244110792344,0.0860049772440915,-0.2306154268805654,0.3949484686206906,0.3130300154562496,0.018427208894934613,-0.13723956054130293,0.2791952241997271,0.15561157040848533,-0.04244643387370013,-0.01253732359239158,0.15646034922918586,-0.019425287362286173,0.22378511844050825,0.2410837210848092,0.017855779762726245,-0.12375406779638405,0.06551145950100594,-0.06532458455755043,0.002275577990757799,0.04525789640142887,-0.12292105125959833,0.22452174503051014,-0.03204195352537682,0.05085410931438082,0.04974975939799077,-0.0719825933236457,-0.02355914263593863,-0.09326025002281865,-0.024039779591230114,-0.003948805464615707,0.011043645718756254,0.009156729486091005,-0.01301407792983747,0.026153863240556716,0.0049311663382356355,0.00583348004941711,0.05339015289230994,0.009607546744368846,0.12914031169924411,0.014863490923794869,0.035164874653967504,-0.04437773698071841,0.07731915033746053,0.019816862886886888,-0.01841923281372116,-0.05945064827750866,0.040418517951076455,0.024738778468975892,0.02057025917768548,-0.19755172146518768,0.012666520964196192,-0.09234680826666052,0.07614129550139466,0.036779083337249864,0.008388430056483584,-0.034899062396253774,-0.13827905888699768,-0.12221027601242448,-0.20046276774905766
298.5697937011719,1.9176025390625,-0.19681237798994478,0.1495889922452952,0.058906072465292614,0.1222742059908596,0.07118492360035197,-0.002910311656270742,-0.04575107271066996,-0.08567673022778899,-0.2546096373173854,-0.029814052109008622,-0.00043066537406183077,0.029424635672384486,-0.04159846093861955,-0.021455476516554203,0.05520939933874177,0.04238316316996696,0.11717708145151814,-0.09974077366961506,-0.025569558845562182,-0.04007307586747117,0.10064549509711158,-0.5597693202469654,-0.17376954542058595,0.0937795960696225,0.05867760251382594,0.2298640340574672,-0.35266794524642103,0.07487060511428914,-0.010595888707092688,0.008902953658049956,0.049717221213871135,0.12237744518774528,0.09663670665016329,-0.038257536581960266,-0.006387976423196708,0.01657400905416786,-0.010183583811470704,0.21425740451909006,-0.19668126462176005,-0.023036979037632598,0.2088570204377017,0.0009348379669756671,-0.05187643101138785,-0.05387822940649966,0.527607189632707,0.14229590208301146,0.1638018823285885,0.42879193163342705,-0.1838977136440167,0.4923392047999487,0.29269785032115536,-0.08757819390041084,0.3507221522250614,0.10384749028226822,0.3012947953390665,-0.026767560345273448,0.24071978795306026,0.1657634010793741,0.07251113430948761,0.060718350809491964,0.20810978695347776,-0.1348187779968181,-0.08003904192432834,0.08808621504131697,0.07463080362962765,0.07542766941293516,-0.031841382539824506,0.013362754677432559,-0.0903941722697667,-0.015428885579256424,-0.13782060268025462,-0.11076445886009702,0.09446892354032814,0.034497687371676064,0.06724274452251551,-0.015935317142674463,0.0827055342331133,0.119338807324671,0.0172324003708203,-0.02347054607639695,-0.0331932738174012,0.02058446724901768,0.016783077535640983,-0.022833727901705552,-0.027984343695726867,-0.04890618260317922,0.03717176339476179,0.07344578043970254,-0.021228857890819585,0.04783224471109116,0.010663854645861288,-0.09627316960740322,0.10488159365670255,-0.0033281499063622312,0.060675485639370204,-0.16354099960209387,0.13951878166563236,0.032581419841009734,0.01823977550477321,0.1888400995112138
300.4873962402344,1.90771484375,0.2018568814380546,0.04714716714234866,0.233547456773319,0.07284074719006395,0.18915979531631918,-0.023427245656145013,-0.12347953592750448,0.2635676175800233,-0.0020915183480301313,0.3229268975250894,-0.2116729942674343,-0.198953033342521,0.3111654663311523,0.15803855983218867,0.056873695883228895,-0.20512976577122438,0.01239179356312144,-0.0871564911689167,0.13603562249711348,0.11768162235424605,0.2937942679640596,-0.03366571561778201,-0.015385759988151032,-0.0213878214292023,0.032549400368147276,-0.04913287452424128,-0.003216753668314825,-0.006779225631235934,-0.0048591317163193,-0.016567294197144273,-0.02983781490306495,-0.0016052359771912077,-0.013939800739679292,0.0070809761233743135,-0.014930136155170493,0.03870957311045641,0.1517873103905717,-0.04979132409640831,-0.010082094407319081,0.3303433129068596,-0.2400580936586431,-0.08543279421928371,-0.39823911204099116,-0.05621518790808479,-0.02082564257319375,-0.009661936924901651,0.07101412643644556,-0.6496106001009887,0.27231440991196604,-0.09546225491638857,-0.010450828138662716,0.004329640376287405,-0.12477012615302832,-0.16108651641321434,-0.09874629647748728,-0.4593659844865156,0.041492217612805554,-0.3850281697977163,-0.7285115439556765,-0.012076981695483269,0.30235565315926005,0.42613253434165876,-0.3233587172178388,0.3563335239301446,0.23940908364261998,-0.007193347403443629,-0.01734065355576741,0.00658202258022693,-0.03465228073124373,0.03703751759501065,-0.060280678460929396,-0.19605935154350904,-0.021691686863612406,0.05986878562520262,0.053371958211217825,-0.10158140477465223,-0.005278462796234621,0.007520010818655479,-0.04946979968659755,0.019274154119350413,0.07517731884600655,0.060822377825341015,-0.053995323409242776,-0.2631886235925555,-0.02222836180988831,0.07334197273225429,-0.007515997921235479,0.09766978248622893,-0.09091549988733914,0.030894013012848748,0.07202445576863421,-0.09880457282013645,-0.04995386800049534,-0.2180121332438234,0.059071956999344255,0.04780483842301039,0.02744483725918529,0.053313848714453924,-0.006230288235215736,-0.3360894376555311
309.9159851074219,1.83740234375,-0.04106619597537445,-0.0010473225319760455,0.039902297186207525,-0.09221968296159655,-0.16444188116473035,-0.041536746373120347,0.015519628736915734,-0.056259228155837726,0.06294074084949128,-0.052496669187910454,0.0065096258640250405,-0.11957519303947413,-0.06271461190603851,0.06867242613399097,-0.03843124295351917,0.0562043892837811,0.08863081727083866,0.037441045172772545,0.052764968556990935,-0.016791617112670076,-0.07937093516057411,-0.08063910581595168,-0.0722379679493517,0.025624784584467042,-0.04222227702471412,-0.05354900042854918,-0.01067944219963543,-0.014526049054160129,-0.14189453264934268,-0.38004045946108744,-0.11140114459778143,0.12872343939631217,0.02398239440049745,-0.2746058476319837,-0.17277686447431118,0.007798330381453236,-0.012335896125014012,-0.01823673991331831,-0.012179418556276196,-0.15979296608170143,-0.06435591871600074,1.059764212084368,-0.17238545609405506,-0.5354772015590452,-0.8529712324365368,-0.2248690368082381,-0.19151825147425552,-0.2725236277605389,-0.09551169614621474,-0.14094366284496243,0.1960732761980104,0.649851467005867,-0.18015433007726692,-0.08557748819632433,0.09376169865585954,-0.24009252373412757,-0.34889271192622284,0.1592536128292873,-0.007068587858082566,-0.1431045787697764,0.2777659158583061,0.12001410377175664,0.12169944165880378,-0.15510106621251726,-0.05338965274093755,0.20467784691904223,-0.01969959622084245,0.0011429699235501027,0.05248013704419729,0.030748856039965862,-0.002211798824638731,-0.14117531817689888,-0.01846266366818482,0.040020354699231334,-0.024826452988404933,-0.05670824352755251,0.06315654966991843,-0.07042535715790593,0.025944382815212504,-0.00048413788340841927,-0.039015417554180004,0.02970235969632986,0.02928143663780789,0.1735089616511195,0.03371368774991467,-0.00860898482939811,-0.02088565232074003,-0.01513338568706048,-0.02150328051380595,-0.04282039591896205,-0.014688612378279974,-0.01800231103813811,0.08611858187382712,0.05351193227208473,0.01713988612312801,-0.0064990630598332115,-0.03837702338764667,-0.3608034390737843,0.07502135492615829,-0.042185299388074166
311.7533874511719,1.8583984375,-0.04483874843132961,0.07189670710662534,-0.06567800721591231,-0.06276366863152799,0.005946818068277538,0.07124426658585654,0.03566171017344618,0.13069778985373587,0.042802219610755,0.014785529622408101,-0.05868308726204566,0.06756254549502766,0.28687666250536853,-0.09393066084427246,-0.32129194423796237,0.061074402829948804,-0.285100827793458,-0.08274951993597152,0.07610138637963407,-0.5125550244885224,0.2530857642063644,0.8354826478688699,-0.17015864333025038,0.2614061580251753,-2.301054041832187,-0.23748365203225802,0.075575615787181,-0.518023015534537,-0.8441707421669784,0.5337060532462301,-0.16134128314192864,-0.5149414792091163,-2.6582472429350656,-0.45275602492215705,-0.01461505088811528,0.3069961237157852,-0.2740731393651589,-0.2894178493779206,-0.033116540354139724,0.4630258409405494,-0.6319353253156145,-0.8536314732137926,0.3940943148736543,0.12495063697431419,0.4083833517073703,0.588864616075069,1.5211866169412802,-0.8223843944203689,-0.049322363793909,0.07288964786021457,0.6771638701504223,0.4232583992490008,-0.031634403510921894,0.16026605576518954,-0.5186664454939359,0.2740963617561367,0.153308518540288,0.5584087499066976,0.5085835927274782,-0.1861158844388288,-0.023687067588396525,-0.7972015954107944,-0.00909461484687551,-0.011337479231033915,-0.026975290628594096,0.02469382532383414,-0.018717624747499138,0.015320051754009006,0.16664752812173667,-0.0980017305208741,-0.06739266391319014,-0.05362831727943283,-0.09131910498999002,0.13680355955971912,0.05669430403557647,0.14980931407651077,-0.06133398868259523,-0.009995890428274794,0.11524546693059046,-0.027553667046796005,-0.0010310024784530754,0.0873691919778902,0.09564316849673585,-0.08911003317265344,0.07124436825018166,0.00036126182014854666,-0.06475932992474444,0.05062466879477328,-0.011962223685294315,0.04343962230287522,-0.13962068508162317,-0.024193304983820718,0.09716025053466135,-0.01750872038919772,-0.07339532785512276,0.0638068996986095,-0.09559928975606453,-0.17654852761120218,0.1645187913180302,-0.051774537744753865
313.6117858886719,1.827911376953125,-0.18724039794929875,-0.1296174872946698,0.05069002148769817,0.08914932836396777,-0.17260000453369115,-0.07844095811777421,-0.2594269464535431,0.20432349213559156,-0.0680746593879557,0.26055549975007186,0.3280085614726408,0.09631810033300892,0.23203428617922892,-0.07439458225298001,0.14680799044697718,0.04761034451975209,0.02942852636693772,-0.06015352815877839,0.1013286033173535,-0.028980942420652384,0.015428686195828642,-0.045831396192427085,-0.14585838951236396,0.05083684166122071,0.113126793904245,0.17354939028266012,0.046171902482343846,-0.2750414154448806,-0.013355869897432086,0.033849154688603,-0.08879554869706552,0.07035425009844654,0.14517145703940637,0.08800008848222651,0.12927219579169194,-0.12082157953376832,-0.280232391438148,0.21811220750362734,0.10951925481272921,0.6537412625497674,0.14859302970802304,0.09959342292009278,0.07184525218236677,-0.14054881504709216,-0.03453473246905747,0.017734016943639755,-0.18815343801488296,0.07275133667157978,0.3408894100255584,-0.1401400443281347,0.6469197168634337,-0.36031646817848384,-0.4311919980746185,-0.0695858170825172,-0.3668417453532701,0.18191759221180676,0.10034735809952681,-0.3830931542407262,0.02186073344753055,-0.18990625840249623,-0.09775241070418215,0.02845577979181481,0.16525175060886935,-0.0010006516924345663,-0.08877709798305987,0.0017770345231757603,0.014930021271353981,0.08070184538149482,0.028319121559961802,-0.02837500061097744,-0.029193190203176726,-0.06613818798364679,0.08518700963672256,-0.028267584213948045,0.23645015319990892,-0.013203477384773302,-0.04614105467381797,-0.03310368775358326,-0.0497479564506435,0.02465460104777022,-0.00017709147846660823,-0.06494514845732893,-0.09123154805996135,0.038015492881540616,0.14761194599226465,0.057865694574706514,-0.07223865173537596,0.07242473409321092,0.006579246549151645,0.020676751521128203,-0.201653956547763,0.019886487848421175,0.04140132037452072,0.10773078183021173,-0.011420790323204269,-0.004847574833658999,0.08912462046866981,0.06238443451743467,-0.004979622290071962,-0.0019532008215127628
315.439697265625,1.88751220703125,0.007228486964066846,0.04095698832543218,-0.012558465927464,-0.034534818721941446,-0.01971005770914514,-0.028006149136514034,-0.020348490437067074,0.02344088010634217,0.003661917284318504,-0.08136538879305046,-0.0011674130729054516,-0.008039155706830642,-0.05434737977713481,0.017182278878760282,0.03991510216598196,-0.04037521941591011,-0.04848957631209916,0.0021446738395173633,-0.00037629131892437384,0.03869263061772996,0.0005560141634782523,0.1011328888881709,0.10739796371308857,0.09877874022663702,-0.1634538184327169,-0.08474558080585966,-0.08901804018981899,-0.13974184929193972,0.09855141175536414,0.16621148933836769,0.16724315326790767,0.016878447949249434,0.1630241418061039,-0.11701053890711009,-0.12992401770305348,-0.26845343952406053,0.05956549675090117,-0.016739877392079546,-0.07297597290599377,0.11856730256709669,-0.040013644482481084,0.08319343000080809,0.11390726371881321,-0.6103678337270373,0.013146508078484442,0.17393950532529356,-0.15916964050955681,0.17825353405392613,-0.053443440285594786,-0.3773739597934622,-0.1272814743711715,-0.05950609180684095,-0.1667945771756402,0.09047837331477672,0.028350341626475633,0.24393469700524562,-0.27922918208118463,0.03504836208777272,0.05653153348119409,0.26860444212384704,-0.20964136140774506,-0.13656461194858313,-0.09963116726945513,-0.028970612720900117,-0.013195966743963158,0.012678016631856685,0.11050114068889823,-0.05430174239414319,-0.05770888213786033,0.03721383064821187,0.09521284833386254,-0.06330142092720377,-0.05006810043188212,-0.07678857722308892,0.15633315750232799,-0.3105817754411153,0.19779445019564712,0.06680064826245649,0.12927565970680294,0.12527680024637144,0.02201681700831479,0.01653330821940878,0.02185716589474656,-0.073588322268448,0.03712917486080185,0.05675342695083355,-0.035881019055263336,0.01587753320592728,0.01429421804126475,-0.02719420163273239,-0.012776462862813628,0.08520544551660393,0.09535865366827243,-0.004853469973198585,-0.06749426354215693,0.1417357606652119,-0.06058005732295811,-0.3200814647272175,-0.2559430252248492,0.06185827340709411
317.32720947265625,1.86767578125,0.05195509303982817,-0.03972690770012198,0.23803478321443292,-0.03556327956114495,-0.09389530355538546,0.12136980877663908,0.17438219951002262,0.09767202672619682,0.02089969825775432,0.03677184823585311,0.029468730367379126,0.004408303877386831,0.07962056667491066,0.01480519233047207,-0.006163477805944659,-0.01769072468386844,-0.02048690428459338,0.07973733763548276,0.07191289683442867,0.08008659641627064,-0.0023032383897397773,0.05736384177006824,0.002048094019371794,0.02527721910601391,0.08822562168723531,0.02527297836013422,-0.13009577970131386,0.11253433749355167,0.02506652041249924,0.06189027908137895,0.022498493076564013,0.11613686263360676,0.15745127866214503,-0.057211698703391066,0.18574878048115676,0.24065651791898324,0.10350905127342222,-0.2966690043051687,0.3466919901245952,-1.2305278779962074,0.21086125125139807,-1.7530781980121786,0.47006713800040345,-0.05608422897974969,0.7329594644164298,-0.17023827032476044,-0.18593231049086392,0.33811225246929655,0.5629547772331364,-0.09947080095624575,0.07752195572086024,-0.15933550662910617,0.05160460575757009,0.20507345984778735,0.010413184515676318,0.11561954293468887,-0.009391832781638798,-0.3788050860651316,0.4460780235254136,0.28176416827011075,-0.06437282342726858,-0.10410888062868758,0.15596272088449809,-0.3577089568983264,0.19249943606689487,0.4227893177999067,0.037176406790792677,0.11147123500186501,-0.05773872954694262,0.01630560315375304,0.01334726957363434,0.14189027775111857,-0.014621614540620352,-0.00621403176668223,0.009126339029803691,-0.02061171563666432,0.023033832900869848,-0.0950894044938203,-0.017963402016693,0.1624075414528448,0.00191598784257315,0.034431954645541635,-0.0035962749510435738,-0.0701356877494645,0.12349705978246013,0.019121585356638306,0.011624306243352433,-0.1087531377888364,0.02884633252783707,0.13540126383196766,0.018662492548019525,-0.010693408389647266,0.023995178400269948,-0.13343383385856736,0.017887517192346117,-0.10454857868175459,0.1468995874476167,0.02792009582448475,-0.47800467234869193,0.19750551458034019
319.19488525390625,1.9375,0.20680524945953704,-0.0433923286996175,0.044356489356238406,-0.03700927920150231,0.003176657263633902,-0.026677745184714767,-0.01418949781451384,0.05780518702799501,0.12294379291000161,-0.016239447124788395,0.025422334337786713,-0.08666002949334764,-0.1289194271808348,-0.19186055543599076,0.014821776161236358,0.17801807390981134,0.04641366496244126,-0.35575930604753925,0.04413044341415502,0.14085728759586122,0.055429742061263367,0.15645153279555707,0.8095948601190076,-0.11631682515607739,0.31031268205204443,-0.162575367739996,-0.14580018713869464,-0.05770630043514953,0.008105013181561406,0.048647044557885405,0.117268990609292,0.09514312488202477,-0.006672424868565081,0.046703328219431954,-0.11609615583309897,-0.2034967781277057,0.0742097549340709,0.34251385801743095,0.06463269596916142,0.08441737751392386,-0.021398242244220753,0.03020583647765191,0.0073551085899248685,-0.1163204370319205,-0.16996985725879885,-0.08887521047803384,-0.03224547212989196,-0.06471904964251789,0.11581283124510966,-0.02113539804870621,-0.10265167712554048,0.0014270221940241717,-0.05467663152520546,-0.02909033324571418,0.08627239560187276,-0.1118856776113391,0.028517360777223767,0.04070088618495462,-0.009383331740969558,-0.07319279371298283,0.22677161016761296,0.015699115942081992,0.00785461740594155,-0.08488626625860017,-0.026763771818185133,0.10774658898964902,0.023264756992878208,-0.2003259198030915,0.1953559246732618,0.04149141999539252,-0.1881101583402774,-0.06478151661684833,0.009035062367472431,-0.02508999171174507,0.15143366955372972,0.01693159124607237,-0.03364221377291339,-0.1320707385305406,0.16273379900615303,0.05036847272270034,0.016406466710583257,0.015389252950421775,0.12278461559033546,-0.07269620492619847,0.02845860298480947,-0.08561121133537367,-0.027331992185001167,0.027185177111021044,-0.08467627836969834,-0.06263312819514567,-0.009937271790333463,-0.017080750132260708,0.015053213226748623,-0.03411157421475394,-0.09015725847136544,-0.005837109232766258,-0.02478977979042945,-0.20937613419426687,0.0885002101328387,0.22687093028973448
321.13238525390625,1.778106689453125,0.08747022626029025,0.030072928969917947,0.06998330730284252,0.045683441276674966,0.02572475307501781,-0.030148931121005702,0.015120723380767167,-0.16404298097666375,-0.047587889481259193,-0.0006551220126311618,-0.015081926666938077,0.016803616969362813,-0.006788033358414117,0.027945807966588944,0.007820494562604613,0.038487526372684315,0.11359686140716618,0.01647033224219656,-0.2437220724819673,-0.047643139116980766,-0.42072998391902106,0.5916555685274267,-0.21010873810557235,-0.2795109789415374,0.04577006378318188,0.4386907855695371,0.2034459033327578,-0.1067884587700972,-0.1474085160537694,-0.09555673448004665,-0.11336330685300333,0.11086474785035363,0.3299344453762293,-0.21667982774406017,-0.3580031695999106,-0.22841813403340488,0.2787728364903271,-0.1797396429983363,-0.017394003021941773,0.1099704338269035,0.015346767503895062,0.028971100969451213,0.06664429033151942,0.06753805427207553,0.24393949936894585,0.1446756149884926,0.3260830307002468,-0.1019790115786228,-0.21928935255238788,-0.03779994276502708,0.22347383621780542,0.009575046954076318,-0.8404015509979587,0.2251893384341694,-0.0724087328069379,-0.14219497500877332,-0.3964226020462792,-0.573942181264227,-0.03388970069442987,-0.035992301291213676,-0.1112764657378158,-0.022319209191595593,0.008115947471761396,-0.07036432105177934,-0.06673486473727988,0.035809857161746186,-0.08932320714813369,0.05663583878796451,-0.08810751035030553,0.11624567383358485,-0.15201576562310884,-0.12353811567003534,0.06937037924058727,-0.10717619679325316,0.059431174040137986,0.05301482467715896,-0.21196368262719936,-0.1064818015904751,-0.1143399779910338,-0.01630647593138503,0.01529591457871213,0.09477288284264905,-0.022879270645145923,0.04737073468691965,-0.04887391269826631,-0.014312698935628485,-0.05004960948391659,-0.005821707304100891,-0.051141388089533724,-0.048263206026622756,-0.09119309734017271,0.16649427954576454,-0.10432054197696944,-0.22688070123086113,0.026963346471139266,-0.020444519691129627,0.04570656401456341,-0.2301127328425548,-0.3359627062189751,0.04318862639222326
322.9104919433594,1.66790771484375,0.14772948415117337,0.5726676405062318,-0.18782531196510577,-0.012287237327373466,-0.17179176243101713,-0.137709670140817,-0.1012525010064562,0.09544085608911701,0.09958150259210578,0.3861995516543399,-0.05202206316300921,-0.02470917266171202,-0.08324163988949801,-0.19823351064072436,0.004567195298086856,-0.003362773173061433,-0.022532771866633983,0.10093759004550412,0.015110941885047136,-0.302905100046422,0.25336036801195644,-0.11062875639509406,-0.12272241217241432,0.04624641175133373,-0.7168245703949231,-0.043797067764162985,-0.08881969932200992,-0.2931061537838923,-0.17060999755506429,-0.023298759968229582,-0.443763641582618,0.049877619634215886,-0.009005701223089035,-0.22267460744974488,-0.16400217317829058,0.07418525509639555,-0.06124145666755178,0.03375197085505688,-0.028235940688900524,-0.12333194382735244,-0.17119433023074143,-0.12297148327642475,0.3338917699691996,-0.10431380400946176,-0.10809504376209977,-0.025680906298014866,0.137434103154453,-0.12349266383681914,0.16811264948554003,-0.05100809973995265,-0.004113478330859999,-0.549550855343593,0.3463659072552461,0.08017640558589537,-0.06748134999927703,0.0741670925438388,0.21828853820144942,0.03371591691257818,0.13368006394976473,-0.831783508340336,-0.10102642682117649,-0.04585568348538594,0.06966640608041734,0.05446923835597766,-0.07022395437486718,-0.048355927216645674,-0.09914429481698485,-0.06107797719100315,-0.0491319901910988,-0.1705898618917267,0.05026600631229227,-0.034947445537218916,0.10687668180878801,0.10450002470723348,0.05126315684973229,0.0003652911960031202,0.01714755370040836,0.10443093346433292,-0.04929402368347932,0.029423461721793862,0.0812827768185065,-0.057687568867610825,0.05791955171063923,0.012895953076714754,0.04357204749292659,0.008326760633784768,0.006789679002896201,0.06723785342905664,0.06763378849886673,0.0019276089459756443,0.03278721692886338,-0.014673904180664757,0.07183606866644476,0.09392901449447699,0.03686514511321537,0.006466573765947035,0.06681851000931241,-0.10947859072888577,0.01767353221710445,-0.04043446605386475
324.5783996582031,1.69769287109375,0.1203967951463566,0.1439292901975842,-0.09252994271715587,0.5506777145266655,-0.28790490638262245,-0.0722633765588638,-0.03451409126709388,0.018718819745797723,-0.034669897274843556,-0.22576811913143557,0.06309015390968081,-0.05846508913343808,0.08568118483397402,-0.17469883053193075,-0.06180927508895616,-0.06071138782012677,-0.016177581687092952,-0.05490256806502728,-0.054074652490743766,0.10681404473590304,0.025880961980060763,-0.04192883057673454,0.11374563040171651,-0.035051992741044244,-0.10946582135318307,0.24894228227348236,-0.018798934761486072,0.5328278074119871,0.07734498636461301,-0.17438144955338214,-0.12662333139052454,-0.27079474945546267,0.007698362739252215,-0.016140521155538684,0.08027012969575531,-0.16793792435103955,0.24542993203419344,0.4099208865967977,0.04945149472327989,0.3556580274249797,0.184713393186422,-0.33496993238370754,-0.23134357411702586,0.19723351390297167,0.11787607387812189,-0.05978223111645461,-0.34943654497390075,0.06481102093110389,0.04437097537100243,-0.12618916954636597,-0.027772084557507414,-0.5092065453667555,0.35275388505404937,-0.2035732128289075,0.09628783963148692,0.015891909959607393,0.1897838147277377,-0.13666396807908693,-0.0747325456393311,0.10850846138298803,0.005472538250491365,-0.017664165639177096,0.061806087993366725,0.03335032322646953,0.05021078599527849,-0.002780300305644298,0.057953849480632716,-0.0075734541313667355,-0.02831597005101893,-0.03795661793493521,-0.011944423232645428,0.03373375713424319,-0.07401008100337769,-0.163559306444427,-0.13868480554647702,-0.30692334103837776,-0.034409125303732864,0.23736700697765847,0.09648018437348638,-0.07449459041018858,-0.05462051464816475,-0.07704671637718331,0.09763691655413698,-0.08907052216190058,0.06355977744188052,0.022874795654616382,0.01818127107812414,0.007417478268526209,0.07207206036006326,-0.19992392461330225,-0.031631523660875516,0.05021155288772427,0.08518184544289115,0.06678908323319757,-0.004055215616446056,-0.10894987975376928,-0.024963861972303682,0.1779398446013776,0.004242043975448424,0.02774007876159277
326.2760925292969,1.638397216796875,0.012316164811888908,0.1066339492674494,0.02062932631261749,0.06624723063919079,0.029918749547914042,0.0615281460982386,0.17754670699681827,-0.04020422678693803,0.026575118257357675,-0.00582967753538693,0.021815713979415098,0.11017437297549257,0.006572284781933314,0.07237559766794019,0.006389450086895093,0.010954982709905416,0.02671856187667385,0.03907023588970747,0.04348904494518873,-0.022240034966736804,-0.059708299594020936,-0.10028190015474571,-0.13640010560073418,-0.3639836959230933,-0.1736706172734121,-0.0195736044625226,-0.13561644232021983,-0.03298689311560398,0.03847179591220399,0.22694253213530854,-0.17090350652229389,0.12058104179118996,-0.25396276646913235,-0.17841873504308403,-0.08512796917311692,0.073560008384814,-0.22874556911760957,0.04185381543151778,-0.11406883222625691,-0.37777435997961784,-0.42658892896331696,-0.41701023598047404,-0.15194985862560748,-0.2040097532409933,-0.8745187004351179,-0.1782307170537763,-0.4905601149372972,0.24160732436081273,0.027070982807940944,0.335170177799773,-0.08275935935347033,0.05332366232691227,-0.04057757935885298,0.1133173198358743,-0.2126728309254259,-0.18356398939128565,0.4344208302007029,-0.354343450950994,0.24268449805422954,0.5737626831714339,0.18457483802587799,-0.09297264612806161,-0.335354369267848,-0.011554328108771716,0.17681385214890574,0.023286343382575802,-0.034194360821501686,-0.01337430000312854,-0.06425787475879875,-0.0011736073970750615,0.031218497868213197,-0.056746358567119196,-0.16381291409776869,-0.026199847330734893,-0.009731883413110133,-0.040731329444896824,-0.004792447592814837,0.06046866173561453,0.04039465228588791,0.10783316726356584,-0.10143966877155267,0.0948792772465307,0.034407712790025816,-0.029564067866975005,-0.027818670068013723,0.03399651376339483,0.11381997103809784,-0.0075307132654598204,0.008302616400449402,0.08495515115177296,-0.0045882807581855665,0.11767628267901271,0.029934499148408338,-0.06831632734938005,-0.00786148950225355,-0.11092136931293588,0.0496689704717055,-0.06396260807420867,0.0802331160981201,-0.0725385944270078
327.91448974609375,1.718017578125,-0.2091976157874112,0.13294738558916455,-0.1401896383432667,0.12520703125582855,0.07094836071931863,-0.06568583625149303,0.11357298061677122,0.096964682116443,0.01650438260254331,-0.03183600706939438,-0.17982831681726166,0.03380752914723068,-0.023397636773963226,-0.002704164493278235,-0.03253696396358012,0.005667710345490531,0.04510934160006152,0.09132024936187612,0.07357821539435777,-0.008666229880256336,0.01031900494427505,0.13863040018662914,0.05109074372773716,-0.053731506310261946,-0.13797668690801643,0.1632798538394012,-0.8635321605319995,-0.285724419569458,0.026046078607678106,-0.15810507429011447,-0.048643845960958776,-0.21385346902717664,0.1968762938010433,0.16338214728988307,0.09312413984117246,-0.14208473379315426,-0.12896807747127198,-0.5700046109436026,0.18824215398731098,-0.12979374869309984,-0.8837451505744882,0.20847502943801913,0.1916514388086647,0.2023410131174515,-0.0505928940271451,0.023066410502450757,-0.021253214754692985,-0.061037030950012505,0.24369350578111332,-0.05548036698302085,-0.1506181379432854,-0.10699489099033768,-0.13804698765318774,0.25017815575042635,-0.5860912955632842,0.10721266796610857,-0.19460829604747165,-0.3683891225386071,-0.170347582430128,-0.09700626354189189,-0.08039758661520402,0.053393790989555316,-0.31783306038729797,0.08413845586186706,0.1567335419556194,-0.12276439407099557,0.09809451015080495,-0.1322995668509874,-0.05270375739940368,0.08224665188369473,-0.10400385600468152,-0.12460787734425813,-0.06679862930058215,-0.1038902475293222,0.05679366253041007,0.06394323601545118,0.07174927747387225,-0.09931305232609469,-0.19581914413195595,0.04294133673287142,-0.05898589493074437,-0.14215785988696383,-0.07748911219444189,-0.23977531728416118,-0.06905514073002207,0.09223018261373234,-0.16767998244895743,0.04367876310756988,-0.09937815494537118,-0.10200753050045992,-0.0041537100982978106,0.07100070828080436,-0.023012232870733795,0.057807958634316786,0.02214561564229357,0.03502535718901111,0.2782380033886142,0.12949674198893454,0.18982328507595034,-0.008060307325052724
329.63250732421875,1.867706298828125,-0.01337277912253551,-0.05642645050823019,0.03535962929984152,-0.011304787197909283,0.07801157698770429,-0.09504871255653859,0.04103771729260824,-0.1903327518482779,0.10668338619832803,-0.12262016016773272,-0.044946712959322954,-0.049129165607071104,-0.04352315371034666,-0.026767795643640162,0.10358908041138065,-0.3605339099688469,-0.036663805502152765,0.017409485005760145,0.06212884025415873,-0.058198994176008274,-0.014058001009807688,0.13079294815814002,0.07682209215412196,0.09851972257467802,-0.060711542446979336,0.09428779624719331,0.03431145008356637,0.01923900101417261,-0.1394342829681886,-0.08980653291699878,0.08767654223758972,-0.010236598130840175,-0.019300916415127746,0.18864654692649382,-0.05684853763684443,0.05780841739121181,-0.18497160347303115,0.25829674406703174,-0.5328244483730799,-0.12457435151230886,-0.17861052996444496,0.4591489317608613,-0.6191022946028948,-0.7964684388411993,0.8120831757713012,0.15357380079034486,-0.09397552866208164,0.04825079632166428,-0.45366389537761215,-0.17317464679006125,-0.0787636755504254,0.027285971707080265,-0.16325936519953566,0.16020555554814925,0.04954180641615519,0.025575589419468064,-0.55792981552567,0.1643655418067487,-0.9955434947131286,0.12883478608469215,-0.2841276264707134,-0.4638725556850836,-0.17867329596934817,-0.07411648342555319,0.009299809873953208,0.04726289326235009,0.051125680034424886,-0.014014089405314019,-0.03118949088155696,-0.11193601122210534,0.08168616668948249,-0.08181496495471623,0.014809583646222875,0.029298697123081804,-0.041764797734322553,0.03950763882949784,-0.1462421782921877,-0.008618285266088474,-0.15049127959283445,0.02712703946421151,0.08801110120790114,-0.0449347260116064,0.08353324744816484,-0.18302292315725252,-0.08003503709055175,-0.12352746343563699,0.11393497221123446,-0.00885523224979002,0.0781548916066043,0.1693688732670749,0.013313725355068994,0.04271463122735643,-0.08098911616179172,-0.2749788282300489,0.15310047393573825,-0.2164338030333642,-0.013336947716619862,-0.2018284342063593,0.06837942271094238,-0.20860511516525526
331.5002136230469,1.54779052734375,-0.21217142434449718,-0.3226317139244997,-0.0947404141228565,0.03565422207098214,0.061092701281487465,0.12568098092374144,-0.04658383993419221,0.11102091361657421,-0.0043459767169691165,-0.257530702511032,-0.3381574924467559,0.10162013142542939,0.02330848267729651,0.032767939769795196,-0.08411778370547801,-0.054535922230128556,0.030180732213500577,0.020938019281027714,0.02799909717359439,0.058596249374943676,0.14286333359325223,0.05634671423829427,-0.11130088342172746,-0.020773529940717246,-0.09480161379487724,-0.1592221039787537,0.07518451539825485,-0.12905408827652926,0.11384252813151813,0.10143239614271611,-0.08616511305456472,-0.04698894140129381,0.1551708956953256,0.08747186572970206,0.013651128994177869,-0.12028292893652563,0.22325109682521715,-0.023990292725166406,-0.0030835967345507805,0.3393647590428527,0.04931866009451841,-0.14291099583567524,0.02858142827844471,-0.18868968143743237,0.10983367043606714,-0.1622713945456322,-0.1440539078718723,-0.6106582035981353,0.28117191824653803,0.17679658423322425,-0.04228067665671295,-0.3659064435191953,-0.05772539895900952,0.053306497911644685,-0.2563784555142964,-0.9446886456152872,-0.011765362811910405,0.06703335771740182,-0.0029332791668367116,-0.023915482837608998,-0.06346070189662235,-0.004097157861253314,-0.003753523196838823,-0.04232944220096481,-0.01587569643661867,-0.012607640678582867,-0.032302781910292275,0.03570970735896267,-0.019362756828088627,-0.0830408049437352,0.07238686671227314,0.030176211602132363,0.1622732397111835,-0.10183434125611744,0.1875584036651049,-0.06748318393874665,-0.11703613891823612,0.09394821229322595,0.0789239364127283,-0.04038651073818161,0.05208251953903094,-0.03140341927641343,0.06698191519162952,0.021671993080485123,0.013866567211839029,0.020605506498427704,0.04621254619265695,0.0074739990002980275,-0.05299731226814284,0.0023193112149989593,-0.01656962328342259,0.009831341354278683,0.10040281536235247,-0.14667397251076458,-0.06255444855419251,0.1341282103749618,-0.0747391607659594,-0.041612361416908855,0.10152854132100209,-0.05180275045640034
338.3319091796875,1.877777099609375,0.050376276286055954,-0.006166652773728132,-0.06899927159875104,0.20651107753961462,-0.14678022161746382,-0.16490821193273886,0.05423767575981441,0.021247207615059785,-0.10638917005453423,0.007863492777788311,0.14058552308789432,0.048168404062803136,0.034252034477014574,0.01742660404439332,-0.06642326754736295,-0.023780124463398663,0.08375902368921696,-0.043476437463627046,-0.06637680391471945,0.08224660180157563,-0.09593149635920428,-0.08968130797338572,0.2608417977973699,0.16143380861173032,0.06619876767207071,-0.23240496978504482,0.03562938154264335,-0.0006331100477720217,-0.7996134091483275,-0.45829168119321156,-0.12996517619309683,0.30890369519899386,-0.02465955485421956,-0.1136115126220387,0.3471131793012725,-0.2937186393362971,-0.17641193230450058,0.4525163708662126,1.0556253276224852,-0.28749037373119113,-0.7599680692057361,0.42654087537897706,0.2956192053945404,0.30704411389256775,-0.8427470764858027,0.24982790516544806,0.5739015247543041,-0.4757826335443106,1.231603830428252,0.2545637348244246,0.32967026437207575,0.7030342728960344,0.0970210159328222,0.13117160593593583,0.5107175523076988,-0.2367759251278419,0.05735292145837774,-0.004532748567321946,-0.08324841264564493,0.024630535259096684,-0.0021257626038929892,0.022978459926594273,0.007833902448487867,0.003031357173005995,0.040368254957168566,0.04939534853904328,-0.02458967099609438,-0.037838364894489065,0.05369834127888695,0.07221955190635451,-0.044168468326530194,0.0005477614953354683,0.04269973157468307,0.02569394655658362,-0.01388679647843409,-0.025949863517645323,0.08190341191043124,-0.0894948702627983,0.057294675714867765,0.1230669880125284,0.022092788077748636,0.048323037793573775,0.15001089693505593,-0.024142111547986424,0.05301376880022427,-0.028234231308684764,0.0738089515600044,-0.015355405592823945,0.03652827576590063,-0.0005411639175568054,-0.02085092663120866,0.009136891033502039,-0.10437329475155668,0.03155163936061853,0.008069564217426717,0.1249524578604917,0.041107006899539,0.1198994331808455,-0.1718016456675272,-0.0644410008188854
340.2096862792969,1.9376220703125,-0.07015833980510171,0.007536124712477749,-0.055514839445742495,-0.0543504888801977,-0.0771150690568883,-0.11726819046184282,-0.33988629122095015,-0.10222050893452894,0.06625035478584751,0.03867794151704776,-0.09437928873096052,0.04465780071527403,-0.017255383918548223,-0.028359693118128568,0.014536534508029064,-0.13663891768219477,-0.1387040734607441,-0.15297451848274823,0.10522869097026823,0.05361916332775362,0.01897964050425363,-0.04588958956925996,-0.03761868894807531,-0.04723022906369877,0.16192436928906476,-0.3021524559484869,-0.0230960878873766,0.008713084023926945,-0.22887939666954896,0.10289839756560908,-0.12155223315185679,0.16845536587001855,0.009389010464031185,-0.005085720412440681,-0.09791417298364381,-0.19193890155970234,0.16870231576630018,-0.09952609579384863,0.20562614041558555,0.004534068489387207,0.0798015381452579,-0.06205041173111326,0.12598919476654408,-0.18218695547350103,0.4443791742617655,0.6227363176056796,0.16764306466038503,-0.5650280256842898,0.0586333218350734,0.0770974603981586,0.5074503309060036,0.21465805266168453,-0.26671179372127324,-0.05043346545071764,0.46258753348280224,0.014247677248083436,0.05771668317906475,0.3460470602847616,0.02352825181556953,-0.358119300270374,-0.04329831391286125,0.017235453962578307,0.1561936678245266,-0.07271349057503615,0.0020192627600166637,0.0012453595745936415,0.0038204558368311937,0.02458736526742685,0.0029196107572984215,-0.08430846691024337,0.056458951815608484,0.03542530076431195,-0.06595002041293008,-0.002790111115263869,-0.048689392009711674,-0.007776059183407559,-0.05431015409528669,0.022197405627490886,0.24693818750700802,-0.0021371803056525933,-0.00616120034555086,0.07878918162479331,0.024647888489543416,-0.018909697812046714,-0.019263053155191796,-0.005311380030896648,0.05070724709924407,0.03094902093109207,0.02888724155719613,0.08442720645544288,-0.06592088199395507,-0.04459947951764722,0.03906028250357156,-0.04424379338139423,0.10424754230883557,0.07239954732179285,0.16174445351655867,-0.11813850575514505,-0.10792452810944937,-0.41286311023650923
342.1473083496094,1.907806396484375,-0.2731264086614893,0.21692106398381844,-0.23241104987042402,-0.06817084227454899,0.10829521046951676,-0.1038858144147626,0.13970167768000133,0.19732714123481387,-0.08382451207581128,0.18525837035811352,-0.09740966924063946,0.08126869639782765,0.03461835393911547,0.014027663971434581,0.08711036878897861,0.05247712305490615,-0.046855391977566066,0.09836147780341951,0.0738175260060512,0.06344065785146265,0.06938284463785016,0.18011596762826443,0.3242484709583905,0.29888662496409857,0.15693077523479815,0.07352091910732175,0.03442356473910789,0.033328211999182296,-0.07642294980499899,0.09729473631811325,-0.1113762782907549,-0.15420358999529865,-0.28794318502231686,0.36734435558113776,-0.22982894809579704,-0.2880968818776762,-0.06952081787070324,-0.34331462929848333,0.4880373269047727,0.12596871823248304,-0.0352207215760544,0.3582915442098474,0.22470311212910696,-0.16861003795626472,0.01595217212031878,-0.8689151442783659,0.002727989284635149,0.09380660938505495,0.14194457514879297,-0.1723069270697306,0.21743166767277702,0.02246580620512317,-0.139906648843554,0.13750569215916558,-0.01555100214209881,0.22531792569854664,0.14107576046254544,-0.4272237396466132,-0.23316217256306204,0.43742201869350705,0.20107241727312647,0.027095227156107918,0.48277157488976996,-0.04831610135812639,-0.036868275632664475,-0.0179354256704261,-0.116132300204075,0.017514911939423027,-0.009644847471488695,0.08140080085558977,-0.09309496689867904,0.029327345946944243,0.038584114257712784,0.05234735890233362,-0.002883479389458876,-0.0678633812205188,0.016479344018880772,-0.028258824840566046,-0.011638831179223777,-0.0676886494549409,0.10099253295619727,-0.0746377559925067,-0.07554411203330356,0.04521855104314484,-0.05257957333342096,0.010601064575560676,0.03912547647774452,0.05357512936800184,0.10584647180959005,0.03566614337949291,0.004944496727505518,0.04778622654611608,-0.07846749671509057,0.021288354499870064,0.02478760022757545,0.056532735910719986,-0.047743493189640815,0.047442087644490746,-0.03877389360704257,-0.27725162582357654
344.05511474609375,1.847900390625,-0.41248441570582595,0.04067655948219452,0.22679897138150584,-0.10861911234973365,0.058450578699743946,-0.11012572652261168,0.19010569043472425,-0.3185049178018244,-0.07800828152184104,-0.22232351993698996,0.033316260274624164,0.2048377649175201,0.06590937344557564,-0.03116401178587455,0.03554639839718759,-0.01924271447999952,-0.019574550237516752,-0.07360386099961236,0.08996316570157353,-0.09047394624150878,-0.15893611202382207,0.023651859929536286,0.09371189534486407,0.11196905033659928,0.013553155887012013,0.03775069498453182,0.01816892683586072,-0.010956831406224327,-0.06829784871623239,0.05945922630062267,0.07811962082390463,-6.844812584402837e-05,-0.29942188926126934,-0.18909994684900702,-0.07963760889851502,-0.06646472469732954,0.3240491599758631,-0.2072574794194232,0.12474674660877008,0.20096260206037228,-0.033755109043913295,-0.32643567981008437,0.3824184837840393,-0.1506698485260779,-0.07091765355220173,1.0267535160704375,0.07942036341544216,0.17247774756991796,0.0708041640748128,0.1772552312142717,-0.023747643104783188,0.17677660825244446,-0.3222579954026341,-0.008112537090091475,0.024785832182650104,-0.5039749279323247,0.011316514156444567,-0.037836345618439,-0.3720362398753628,-0.9479671345724201,-0.0017032003839943157,0.07109450964456956,-0.7232074134721397,0.09637149573315462,0.05609663086634137,-0.3385469956063107,-0.06516455591275559,0.11954939829608534,0.051040178300982425,-0.018348381649754227,0.08212866483234471,0.0074777256389127016,-0.0010482116745020905,0.07874542146779785,0.06683195274374149,0.1454857177782796,-0.06892825296148483,0.05375832887272673,-0.03915200492277782,0.10040928217296016,-0.10578880884632792,0.15575349431595933,-0.012712441919708217,-0.04323480228772438,0.10119475419614339,0.01622299869342197,0.0543914012872168,-0.008028260506664872,0.07007502662405271,0.019909811947922355,-0.09234178404024798,0.06585413109656749,-0.16553468259466145,0.08971336337472673,0.052301740066690944,0.018996218677013926,0.17470093348326857,0.027957336937463,0.07504634940421964,-0.0317327808872553
345.90301513671875,1.897674560546875,-0.1403594550052085,0.15644397990145117,0.05949898248561997,0.12670470427895764,0.1629964036127701,0.015464796800919394,0.0550867324753976,-0.05453950483172716,-0.09786339961202861,0.14672654234456814,0.019025640971741392,-0.08678490740704373,0.15795757876423225,0.05032570846638446,0.028865629828984194,-0.03983724233807955,-0.05022600329677733,0.022169560299532255,-0.01332387978394664,0.0036300412740398916,-0.05686481111653286,-0.0981552432572008,-0.04742361744038717,0.02322856290454929,0.029226357374558785,0.02847699262654082,0.0414642341233044,-0.11446227061376371,0.021733995532806378,0.025101825655065507,-0.008653219956015921,0.08061848756764903,-0.06817708951939785,-0.029684201378241078,0.08706487311579725,0.22979745171371088,0.17840583514848934,-0.032782910818104055,0.008633880105106309,0.10489319177349019,-0.09298739633453362,-0.18015513614335232,0.012574974426292206,-0.0792762499250371,0.3475908800169683,-0.008043405378995616,0.03889608407994166,-0.18694312311629,-0.08964212289432055,-0.06046146835975265,0.28654842064390534,-0.07154897990257625,0.19031924061344424,-0.032008215492036765,0.1207522775572234,-0.008325373629165758,-0.3305272758508058,0.016228141804358553,0.6551759676334781,0.19213871189533827,-0.18168510573828198,0.2858629983815796,0.027653023014663183,0.0832506068251098,-0.0847702889644196,-0.06835006300695358,-0.03197919901629822,-0.010822312613734258,0.061563473602872634,0.03246621153525325,0.08630295798206712,-0.1165128311092255,0.11512727527583115,-0.01579659877571448,-0.0478411910460901,-0.028305669629712645,0.06561126023142641,0.11496467517411668,0.19064005290032388,0.012632251999658744,0.12659446007289776,0.08774741396787437,-0.025533038671432414,0.005111869606592745,0.07905108310080969,0.0031160860777499203,-0.08031119634533462,0.05924100559136457,-0.02426240955890835,-0.053113960285272765,-0.0036931071470856745,-0.011901696137760077,0.031506208552811645,0.04719217077035364,0.09475145301223195,-0.09609600706042962,0.01698346501627713,0.07138788672288332,-0.04587637537015329,-0.21997901733288375
347.8006896972656,3.435516357421875,-0.22037423520899224,0.04403301836113904,0.0653127399814011,0.0030937525972770524,0.1077540893569229,0.09257031816600977,-0.28046802606537524,0.07715395496896349,-0.05713046526467632,-0.10508718675984517,0.1450626909068884,-0.024438998410966858,0.03915759544817769,0.10208248637056792,0.09526119788328002,-0.011928889022175607,-0.32851810809841775,0.06676543976324313,0.37719715865908415,-0.07114684261605367,-0.22318495292879184,0.02697568061226581,-0.023139736830171398,-0.03195539075044863,-0.2740590230831207,0.31538041078395584,0.33479519233244637,-0.06414834258800908,-0.07240259461324501,0.20884960621231463,0.2635687121482271,-0.10057013491661482,-0.1843220795888718,0.006486003997139788,0.0425026012320175,0.40530478637598666,0.553831050160963,0.1402123185298928,-0.32800764151911216,0.1608141792021085,-0.3476816583220848,0.1562420033631595,-0.007129932228381056,-0.31775106127256875,-0.3993426221404086,-0.24625023204669133,0.07993836502821655,-0.0011799096737830084,-0.25872558777040194,0.053953681138659795,0.6195604766058257,-0.2597806419688514,-0.6317861391295182,0.18530521702387182,-0.3173606793340803,-0.15618662288404198,-0.14925136963836322,0.1644148143834971,-0.1605665671352263,-0.06413645582155145,0.022233304761686598,-0.014852536428970338,0.0951088666985594,0.0067527575089730415,-0.00018245218472440905,0.08343484081710512,0.05161282402766551,0.030360006225311258,-0.16251696949433794,-0.03491449603066453,-0.049525311341547355,-0.0918026782070623,0.038767379085571936,-0.28495375391098465,0.04174846109929099,0.14592104322163874,-0.03226946825533036,0.28233165321558434,0.0006404735780823709,-0.008710693106029583,-0.006600575637912706,-0.02762843161730555,0.04885945515999402,-0.07295602242737441,-0.16862252016866924,-0.024654218241604464,0.0038185571834370158,0.03992241385682406,0.10004339805307265,-0.0030770125374594685,0.0794762237544819,-0.1611282659056366,0.05257768486010093,-0.14074855801639688,0.0415795216809038,0.05246077587668708,-0.06814638646836325,-0.09693603621393214,-0.034423502328792654,0.02634295129630304
356.1805114746094,1.987274169921875,0.006246911488284185,-0.07413296593004497,0.03375367583605056,-0.05594716297681979,0.09864968307001427,0.12842825813892048,-0.01432447815041988,-0.0035056011266301514,0.036618922447617344,-0.07844840126661631,-0.02517047149172426,-0.02751231432739306,0.007607618546531539,-0.14804903505096165,-0.04497801098258302,0.09357964470447921,-0.22699695348893373,0.09700229435873362,0.36865099979286864,-0.024459460045609366,-0.1339091127623754,-0.04448159788828712,0.03455335524193773,-0.4946418202179632,-1.004325336439548,0.04289432753577972,-0.12098019798230228,-0.35185691051322343,-0.011353828032927726,-0.08081174406852833,0.09735837027193173,0.014507369031729686,0.6789904975882941,-0.037311774877649806,0.45049539963848184,0.11715529731592846,-0.17194560445461576,-0.050692334026344904,0.18183252831565333,0.07194713658379265,-0.3322176486871379,-0.010682909390960588,-0.007923013744764305,0.15316168922368428,0.24096149961425153,-0.23771956555222323,0.12517666205681968,0.37572996459422875,-0.010035584480465272,0.42899153284299035,-0.0678338849999788,0.5821642608982779,0.09417748735548408,-0.02202250517966089,0.2089517195114441,-0.48571336590952957,-0.18879345495874106,0.06685278040294282,0.18325634879962366,0.069224037724688,-0.3970455145559306,-0.0046520804725743575,-0.0008071793839148601,0.018893980474304434,-0.10148730290862251,-0.016617885272485467,-0.0063667259954303165,-0.08313246131988522,0.01959900884491368,-0.01345684988010388,-0.025525930020709943,0.04483052976397747,0.007614698561903574,-0.007145640720835362,-0.0041265299145768096,0.0755194010675867,0.16599998732260296,0.14418750059134958,0.15367858924823294,0.06575865591083963,-0.19420896131933885,-0.09290450879248668,-0.07807788522405285,0.08990909303721652,0.01828151040445673,0.08002539388577658,0.03723008027000224,-0.022450440448918432,-0.08276258689126417,0.010785683573432745,-0.03468105082183797,-0.06079086659188531,0.11146613759632214,0.025855236678124578,-0.011353883481883598,-0.17796198638217736,0.04044568836962232,0.10188258315573565,0.046308809964440784,-0.010856896989446377
358.16778564453125,1.927703857421875,-0.1827810796822791,0.012771866374952253,0.0178389761660918,-0.054469135095319636,-0.2583839187593805,-0.11924561374672923,0.05230404570911481,0.06793455378859588,-0.07703453112129784,-0.036933669551420155,0.010105221068585586,0.08640725976363715,0.013152315252351903,-0.0017202441815316568,0.008319370334824487,0.021378639379437923,-0.013122771422045692,0.1146508964592295,0.07997827735114289,-0.053589618601315635,-0.1482526008750958,-0.11888964385997644,0.05441854453524535,0.03391790801886568,0.17941992576315635,0.003051050607235589,0.015957690880894868,-0.009762871877907163,0.10507846447001196,0.03735406155975516,0.17052744798530217,0.18794273860184052,-0.1135131100583523,-0.01672641489394606,0.04617761707332771,-0.018692931926616606,-0.21371265274296483,-0.07869792632064278,-0.15881302461930188,0.024744377252063167,0.0787844817038932,0.06307385216511628,0.11383697574851463,-0.1790379265400706,-0.11316381479793458,0.01249563737885285,-0.10044791858537228,-0.11213663840010563,0.003483538586295254,0.12457564148215092,0.050870372028710156,0.018503349833113806,0.42859071562540224,-0.2617424260267959,-0.050152739323922606,-0.61893399157749,-0.07134769445114271,-0.3462944093837968,0.13706469470047017,0.15174234493749902,-0.07681963398760853,-0.32694848330995185,-0.14403426452951346,0.10061126180054383,0.15491279671697575,0.10132654674387642,-0.09166195575574602,-0.07753196913535675,0.06439391443149645,0.1916558962670502,-0.012006056219850342,-0.01182049684573316,0.09565101770359827,-0.017593761398047535,0.05126044569549222,-0.005921086480088562,-0.14511994613223378,0.08508191964704752,0.07653889734069799,0.1462231622999148,0.08132745235183567,-0.12730727019841587,-0.2050972195479792,-0.05343364194227813,0.061432306190147806,-0.005960589700906237,-0.13652715724660244,-0.036561404134113316,-0.0462330005598499,-0.05944402116328268,0.15448727296474837,-0.0736643690819982,0.016461654303479508,-0.0022438074564369572,-0.0805841400214036,-0.17149168259535158,-0.26375087341035264,0.029733329410649927,0.20169659250608205,0.18072957580760643
360.0954895019531,1.85821533203125,0.038189955003071624,0.0784190355493575,-0.21737386464724023,-0.01495233960766612,-0.03264035706448002,0.042828608684782575,-0.059365764819369164,0.019138037436121552,-0.029549006017555043,-0.0757425754887311,-0.013744320426025195,0.03170883731621636,-0.00043636509945844324,-0.027657924544442797,0.13105283383522887,0.01992683652900317,-0.009153801660871583,-0.07053776415893533,-0.1126236230873959,-0.009140946049483345,0.09269482508786464,-0.0008803256547798746,-0.015711185881374483,0.012366729420022027,-0.09501667398089064,-0.16971584480499927,0.015022108802749873,0.03519139442378873,-0.02098175845358942,-0.06914574533039104,0.0839848140968363,0.10460960607479668,-0.024703054599579236,0.13201757076902657,0.016824824623305965,0.02071107148213115,-0.1919838996052696,0.15687341172825556,0.11490227089892786,0.2852789428400043,-0.09265163368302345,0.023058025126092632,-0.24189878643239304,0.2118695619111025,0.7441790669699045,-0.059060512501657766,0.0724180995942566,0.054105175576727144,0.06255742759235933,-0.11065215031934454,0.07116542215373146,-0.09636146437065021,-0.20604148824569055,0.06167456867720534,0.1503848254692906,-0.1637345757201983,-0.266352790370285,-0.2002371302927064,0.07932784672865022,0.0898408038393077,-0.144393411409049,-0.003955335326667194,0.02070428428236179,0.231762340902269,0.022974107583264798,-0.006337843977347066,-0.017399331633887214,-0.008764352742865357,0.040531725621701674,0.20447031581409872,-0.022579321891645306,0.038869247234184175,0.03507742786560882,-0.11878412351420231,-0.06181766824690651,0.006254449995082468,-0.10355770754534697,-0.1518268306197559,0.09314254464780648,-0.06754066128185708,0.031194079071250994,-0.07140146946220965,-0.04857585820411031,-0.0702763905119064,-0.03900580285858451,-0.025676736764550057,-0.10137900757725009,0.001462141892353358,-0.02550533840280346,0.002972632381562178,0.012324689347202308,0.07598416570744775,-0.07513894504799129,-0.04711835260413516,-0.0722903659372441,0.009817117060515704,-0.1557737307096798,0.2384831361511413,0.02161542811091337,-0.15816063473447353
361.9537048339844,1.837799072265625,-0.026209154919325267,-0.04619632703205872,0.0873497362614769,-0.027444693097541294,0.08603922615485352,0.067735639551749,0.1384631694250341,0.03207693273498612,0.11538721207382567,0.023194199248827773,-0.0005117550720872,-0.04998418512351773,-0.02060237169974539,-0.0830379744632143,-0.007705746028720021,-0.0699288871805128,-0.02345717874431867,0.04694904385228486,-0.03364264653686759,-0.08085468555834452,-0.13387296987961927,0.011138148501096016,0.05522212700811407,0.03772779291331474,-0.05082542871094009,-0.10418548402055376,-0.08341878182059986,-0.05807217262180934,-0.09978107642636282,0.02141546508889979,-0.019478870026869974,0.020520932427604006,0.04267377679985604,0.2310054295622172,-0.09596103958236754,-0.08227904362401282,-0.17168027245832768,0.11733649050087402,-0.04419508010363789,-0.1641731033844969,-0.18341499293053395,-0.347121501395086,-0.11448820752982948,-0.2462762501772904,-0.13876178571396547,0.3253457538599945,0.08700086638803547,-0.24250233783719224,-0.14130477969027377,-0.029738765421809546,0.09948943252151225,-0.10364736385676471,0.09414271254185771,0.15556388067671403,0.531994249461079,-0.20047436211450892,0.000714971139085141,-0.02268247787468259,-0.02826223488282241,0.0007135999530613318,-0.14957999666253585,0.27622493556037375,-0.10045477869286523,-0.18366574078072925,0.07214121914070572,0.10520675621009411,-0.3565787896216626,-0.004771096686919225,-0.032621607683630253,-0.0013636144358500056,-0.06332017905386604,-0.10064309606866648,0.02005808399912149,0.010454251425562472,0.013069617090921047,-0.025535384861127306,0.028166610462010314,0.0406472851119625,-0.2042301814132198,0.14418662407375976,-0.07976542324979624,0.021585479285646036,0.15513154387417893,-0.026283335614431965,-0.03191026907974401,-0.028997005625345264,0.03476057673008068,0.06206774561330075,0.02914160665723685,-0.03983271602613982,0.0707390818763104,0.04761776922947783,0.06877061982453957,-0.02018931786360064,0.061691085491523426,-0.03378460089427512,-0.18198219303613222,-0.02757034371671678,-0.010941679076591564,-0.1821384800060874
363.79150390625,1.8173828125,-0.02292919768009942,0.017758952992826912,-0.07710357156447259,-0.11931652109661046,0.00774759708861871,-0.10340045615427014,0.024049875174433837,-0.026412249471199897,-0.06813364482574477,-0.025502604978745937,0.10332218257119062,0.000271009965983178,0.0682790191227011,0.06369574573441228,0.12381902402770868,0.03980670803267785,-0.12631635101752192,0.054664000938183945,0.03906302628012787,0.05293593403413718,-0.08448788435960662,-0.09440646107231948,0.16333735680186304,-0.23891407324947903,0.2762893528874041,-0.48802771659843075,0.027138071201491767,0.15319416574601352,-0.20177261271595015,0.010822091836239342,-0.018241613234836782,0.12545116151807315,-0.073137015752931,0.4477450841706905,-0.1303902177046608,0.12443929859184309,0.09937393700810472,-0.015354498602678554,-0.20624035481265449,-0.036261633237449985,0.1591861569003983,-0.19652436135592302,-0.2175811132665988,0.10468220951770471,-0.0005660953421612325,-0.054681658886400794,0.07174954201842644,0.023438681688065344,-0.10310149964052287,0.19156927201795115,-0.1361966883087155,0.05060869502714617,-0.10869371825004141,0.19823755773564064,0.48011007927471194,0.1879413651544706,0.21322478867932435,0.3596399355417301,-0.43826069703940784,0.11718622835485433,0.07975587201692662,-0.0995309400292595,0.056629289180543066,0.17202568704001156,-0.16778416457616724,-0.003160973645330587,-0.04948694720296702,-0.002372149636736441,0.0393845837457652,-0.07541574322129256,0.0033066400104652424,0.06986584717236076,0.02751482980785057,0.03131298610344314,-0.05775728867304362,-0.09336701882008899,-0.18914620138371574,-0.09197134174825641,-0.1432515886311858,-0.004900352613288551,0.0686807916896023,0.07327297525054968,0.07977006719911298,0.020201587130013823,-0.15417103416464137,0.044702255367930904,0.047997332625883946,-0.05291759664433073,0.028378082521921227,0.007514702920614422,0.10278084017508084,-0.014195657510783236,-0.03135911447448996,-0.05531758324330848,-0.16563572731305257,-0.11379226784776694,-0.08170941663017028,0.01975547526277116,0.032248089667240104,-0.0266246220876465
365.60888671875,1.80792236328125,-0.023860400474623112,-0.03481673061362631,-0.10483053010670425,-0.12076022035733637,-0.001772494519236334,0.00389243875211927,0.0352155054124716,-0.09537691059786865,-0.04602960254329048,-0.05040588762005459,-0.057521814754497365,-0.031016241344566972,-0.0016533269070341105,0.07869871927140827,0.03028199248067858,-0.01369883901870545,-0.027706023321711536,0.012973980692329001,0.01875622064007947,-0.060097962619073214,0.016530426953170425,0.11786391862616602,-0.019385683247938743,0.18967137338542128,0.1047064468945408,0.002240117473104479,0.07419703233656821,-0.013916273627752468,0.010913931582540465,0.21389048510545264,-0.08414551212945466,0.12147111966744759,-0.14623798605389063,0.00031426811953816814,0.12611932624634187,-0.189208228531627,-0.05396385148067472,-0.10906887009082912,-0.055605769204355227,0.2652478497374612,-0.004215659328997021,-0.22887156469835926,0.06611710791845765,0.1287613331569602,0.1234224372915972,-0.09485700539374498,-0.14466966693361086,-0.14711147477208475,0.13229757478288512,-0.1305027119765857,0.075300221182164,-0.4028129957072464,-0.4738812190149909,0.2966225632098545,0.31693033669860593,-0.018035372461841902,0.14302186517944465,0.1903954274983505,-0.13348720744016324,0.19691148878906106,0.21430045156689503,-0.006884784424535313,-0.015134207258186717,-0.005991398668720362,0.05120577640675315,-0.055459502017012094,-0.026111398396082897,-0.070565032715066,0.07297757982695026,0.040649232454803605,0.06921018120343153,0.030747043342034704,-0.01606064579122235,0.17109447766472582,0.1508624230733901,-0.11089520711535243,0.030436715284006696,-0.04292107256838189,0.026777289453286928,-0.035242375690514444,0.031219710413838985,-0.2242119419287002,0.10822400764662804,0.002385720851246439,6.838213318297037e-05,0.1202142663318528,-0.07849732372876173,-0.010002356961331081,-0.028478122693674793,-0.02322865331161472,0.07315999024930685,-0.10526035497971158,0.12439684164386303,0.00045769047457683873,0.009623331098671334,0.08743645687085098,-0.04078892257407236,0.19969523442909953,-0.3472920058965882,-0.22833452887665803
374.6484069824219,1.8477783203125,0.1507455028706192,-0.061590461688387894,-0.21437437336112197,-0.1337259855170296,-0.03028882155200499,-0.06727643325683749,-0.07928948740813624,0.09203734143015786,-0.055893780477074384,0.10109058495599471,0.0011640817831627176,-0.1271338041890262,-0.005740171349806006,-0.038281065618491095,-0.07422177326397394,-0.16038878504955795,0.012397553768667314,-0.06449166828926212,-0.054247636335671374,-0.04911340060623386,-0.006305938466631043,-0.012845213656232386,0.07955954513981256,-0.03138981234844213,0.21344005983463674,-0.07742933198357203,0.003081911955802208,0.19650169734491357,-0.020962358270770507,-0.10777664104729011,-0.04755332733692839,-0.10312654724159881,0.008908777204788283,0.004737071398176935,0.03613993477591464,0.10023133806251672,0.0004954856731710592,0.12994554944281173,-0.021822995051879984,-0.24773919069763176,0.00449050265996088,0.16114879529018303,0.015361239423804685,0.630698079797589,0.11053919093316932,0.1138856792141926,0.1809188500350623,-0.15104478179555714,-0.7795383244781481,0.3838007088520231,-0.7421972022091721,-0.3022455192947674,-0.5137979400388977,-0.23560826645616534,0.08983229575396963,0.09278835736469809,-0.05293606538722864,-0.1867403003919122,0.12214536917285128,0.40509509209330913,0.27802301948299346,-0.2217111153147634,-0.04942142123360012,0.6463615718035052,0.4609570716492271,-0.0782761715119745,0.7126209184700151,0.1202436109332064,-0.21483417597822133,-0.07606004694502984,-0.1020030488073953,-0.06645278555304485,0.016168351115861294,0.1325288469274124,0.04770220190958743,0.24956389251534855,0.2883780637287799,-0.019176373460201377,-0.042907570876109614,0.01845406865762463,0.03662896329734485,-0.04635851483325437,-0.12164983026289486,-0.016464110177062383,-0.004285722155471562,0.0386893970710197,-0.03519834510225211,0.018418967478449923,-0.14255748550508573,0.03434065469387457,-0.01245018393824529,-0.030548582614927655,-0.09552764632045023,-0.0632358380306189,-0.07197092317397312,-0.3189178395741977,-0.03191026380378136,0.0839696498280337,-0.07806146078957002,0.13085111759557438
376.4961853027344,1.8175048828125,-0.004986250093709746,0.10298517737927684,0.11955871679970251,0.19701003416498467,0.10150584911706238,-0.019519283833129033,0.21886175757042742,0.0717227767182098,-0.14733972642604412,-0.25762470308416224,0.21140590990296515,0.12548051226220933,0.023384592121251335,0.03338971673937363,0.09790525843060299,0.05276492613352243,0.09583635126177571,0.05972573638945483,-0.27770149832412383,-0.08781819892958859,0.029099771449094303,0.07827847619221905,0.011696960655610182,0.19997329888909157,-0.15692199808820376,-0.04388962854738403,0.04830868036451004,0.05470733448668988,-0.009069263310735392,-0.006905053195536073,0.04679174230289982,0.04540509792021609,0.3078422206253152,0.010063742051191218,0.02052774674988359,-0.1509369770512375,-0.06773416933696377,-0.11537833692624448,0.2445324790428068,-0.2406720709397211,-0.016701808452973078,0.2240454812554202,0.240642433175999,-0.20026780260849852,0.36301033691822937,0.3845457812845671,0.30333412823725714,0.11747944696935421,0.5437598212204953,-0.18813940526073292,-0.07557844313720291,0.0020080208256732304,0.09544460841836624,-0.26507998982008213,-0.09492649206416287,-0.3028875155841758,0.7216981726871814,-0.15805867236304688,-0.48026518024299675,-0.06740911550428345,-0.5824599452049906,0.058188576531661367,-0.15874159944019056,-0.008503281362547986,0.015082161212434515,-0.11537508603398318,-0.06546887232806622,0.0030172389996539484,0.007178988269496304,0.0903342081732783,0.10087361476900679,0.05157947168867018,0.019458186289621607,-0.049956117046882825,-0.12970303046854167,0.025452620623237884,-0.1682625297310683,-0.0035465037691967544,0.06531233667741074,-0.2202811767248404,-0.06146257572853648,-0.007191548761271135,0.02444733038175497,0.02651639286269846,0.059325656578710494,0.11445136987202843,-0.0004176224481008034,0.017667768525564814,-0.06406274936040855,-0.12257805796310273,-0.06459719040486865,-0.02554103895576299,-0.044180819985949624,-0.04782375989170368,0.10389969954453242,0.08886663449407575,-0.2383823327150349,-0.03164012777613476,0.012329877401941317,0.11591345010187015
378.3136901855469,1.708404541015625,0.10666646058126081,0.07908620973890572,-0.011827316599587624,0.019046243415732186,-0.0656883611044631,-0.043756502091254486,0.0380987428021355,0.12962563798999352,0.2029400725324521,0.019359005537056495,0.05369253868645278,0.20745587596535625,0.0353966541001168,-0.15978905206550065,0.06298819509012488,-0.019823052799347526,-0.0027203354964906927,-0.06272202087454563,0.04637264404141917,-0.07961566108571826,-0.009254165629081823,-0.1851751007237459,0.11427040188695252,-0.3145864486140202,0.20699577068968275,0.21006118984333882,-0.15866201654913673,0.0024442801545308326,-0.11252785866403256,0.012401394551013245,0.28369178919062205,-0.019289514784675596,0.620526617246665,-1.0120770284084886,-0.38392681514333005,0.2245400491278986,-0.21444448127848667,0.2395206423543422,-0.04437727098133837,-0.09068790706465572,0.7047037373406931,-0.13866355303381186,0.07794869385090476,0.4125571179643723,-0.15805425171528908,-0.14216418421909935,-0.07468250375556221,-0.042571027426973336,0.3103504818977735,0.46625655353933004,-0.09621025035592644,-0.9721100152255308,-0.13260010228220181,0.29915488594191847,-0.08189439846138738,-0.376429604757901,-0.08580180857003361,0.055098013282448746,-0.21308094201160302,0.05221662261419367,-0.2919913518168875,0.05377795378299748,-0.012245602564616827,0.05036667463292291,0.004222985389644211,0.03635410988084695,0.09191038554430431,0.04558542739734986,0.04333226753729232,-0.14477070267312886,-0.0405903902540505,0.10497348000018779,-0.046659780230360146,0.027906949049895644,0.005021880320708341,-0.003957021952191614,-0.04143796910785584,0.1475786004445602,-0.080773198943709,0.03250410976967275,0.10020791674037027,0.05899735455137983,0.028386790957404352,-0.05939507737723599,-0.023035738769214706,-0.0853788794134658,0.03805010246629237,0.023618407397949938,-0.11362934332417478,0.013719326949204632,0.021155736237879596,0.12417868831624954,0.1126379563276592,-0.07422373183473588,-0.016172508748941293,-0.14897864645714198,0.023747107992194833,0.12162615386290966,0.14683982242924593,-0.18264699784498006
380.0220947265625,1.73779296875,-0.18389683699636572,-0.04279151617952779,0.049978134597835865,-0.0007865092284551052,0.08061307734018218,-0.036408120326935495,-0.04549336271142132,0.15438138385463357,0.04761827031588367,0.0720463234574366,-0.3003838820901117,-0.03351480787052781,-0.02833720403940546,0.08786386826591089,0.11441799128725347,0.055651964803706815,-0.1653758393291488,0.02580140460907077,-0.3049660430408354,-0.03386468295561094,0.12279077313343534,0.17941440274481893,0.017115991394677777,0.0593022151129596,0.0743367297188057,-0.06178572845176275,0.03682617538106209,0.1005403661048945,0.2216023454693279,-0.031219360209261967,0.023394441836896172,-0.029413454280674,-0.0908823354594989,0.19032283342097076,-0.5795035388774412,0.02400652167886909,0.030212043012933426,0.2855312688493493,-0.020850352052276408,-0.29132909306686555,-0.29968766621501725,0.14428257659882543,-0.08343925134022967,0.06683696624349458,0.42549140937146135,-0.12178808576144587,0.04841036280238776,-0.015063140908318437,-0.07447294884593914,-0.22729539812604982,0.224081486531907,-0.060263113342500826,0.33328178643468775,0.33857233213345084,-0.45162926082393556,-0.20204099812933599,-0.33394515332300406,-0.15966814100746377,0.3470396608260727,0.17529573302928458,0.10587347875217731,-0.359135139856053,0.4462643547112432,0.01459057504472833,0.011176011588434884,0.13315603991112834,0.027250126944100204,0.11424858278622216,-0.0018753583941169133,0.1352240007157273,-0.14677101639399764,0.1670572672901266,0.08032467058285744,0.16152942223285763,0.009776539126268602,0.09080671940448175,0.08198549148490007,0.21213094532835491,-0.028353754890696838,-0.17005862410001765,0.016039411165681895,0.023603454539936203,0.17158629641743053,-0.09267279311486216,-0.02587903338958901,0.04196465791972037,0.08438084859871756,-0.07695494650096552,0.016493958546311457,0.036913068219008124,-0.043121600511021145,0.04807111715417971,0.1286676529950115,-0.09437401152099685,-0.08322946764373783,0.14897880878027636,-0.09778871842415131,-0.06645102412929713,0.10951900570880146,-0.0544714174175934
381.7598876953125,1.748016357421875,0.07411376770505312,-0.049840695320084547,0.07809555723018377,-0.09252867326174788,-0.1512701216845499,-0.12053402539075045,0.010756900815595867,-0.020001276320049714,-0.06491884823183978,0.07359403783531968,0.04843113468216521,0.01909968886410062,0.019671513851748253,-0.028637827177340286,-0.07527797075080993,0.12289598485216323,-0.04518227126818405,-0.11765426036540384,-0.0493095113986081,-0.22266934349892736,0.1481469498000921,-0.1146916108384115,-0.10621070302319757,-0.06332827318286198,-0.009852132234634154,-0.01742103033479891,-0.1298047654398919,0.1251994279444998,-0.044862230783612095,-0.028030790564538603,0.0028111040503893256,0.14503029319381608,-0.11116064478838628,0.015135956730184977,0.1634277967097318,0.01188671886512585,0.007810443198796799,-0.0842720996942428,0.1753553066743612,-0.07254394334001496,-0.021210055842472986,0.0058758213061775285,-0.10900322977199707,-0.2157127105204303,-0.39024953725526645,-0.031939959917418055,0.2784553334250025,-0.5274185749151771,-0.11716650405893997,-0.056779245561814864,0.139108395301416,-0.02957806946394062,-0.07640731295695899,0.032917106065785406,-0.05854924946981392,0.12293007993810046,0.43368947271472447,0.09500164838096066,-0.20066743216708927,-0.0431328457394102,-0.09164816223797473,0.42859702972414593,0.6595239152373895,0.12440161015814845,0.11109641577340096,0.08862399445009504,0.01909833597099199,-0.04655840466166567,-0.024369062727096852,0.028597354573002217,0.18825676641638983,0.0707147310207369,-0.04291028960912069,0.014456947662455776,0.021511557792924824,0.022958796004988586,0.008258884020558159,-0.2924457725923368,0.06477245201399247,-0.10296313316606459,-0.16172609177866845,-0.05117223320010696,-0.0896080543360198,-0.008373244561414077,-0.0002816254385717091,-0.08804066727586995,-0.03614271402940574,-0.14282792087712898,-0.23799848713617547,-0.03212859627473755,-0.048379216948285175,-0.0838595890220315,-0.09206437932255322,-0.03134316053568997,-0.09498710299752083,-0.0618581919640456,0.10660469448908788,0.09922489212926247,-0.04003723530467695,0.19892563016665868
383.5079040527344,1.717498779296875,0.17814152725526924,-0.08297443466801299,0.01646549683434282,0.14746437424966147,0.08720344690423185,-0.1335028800662796,0.007791163946817532,-0.09715606201016862,0.08537629013745243,-0.0133901977784998,-0.1658543952615222,-0.04633382050101262,-0.0026483406754803356,-0.24519904607482293,-0.18602562134081854,-0.012007307218539324,-0.029856275898587935,0.06581805493293666,-0.015621021754618856,-0.0013436977737596438,0.04352795236762106,0.009786414252492777,-0.13949073592962502,0.030945352798823655,-0.10569252409713044,0.011193857365613485,0.044731475174973175,-0.058296794197403155,-0.06290271942169359,0.014273908719340953,0.052617748952987285,-0.014035039165989888,0.06302858587911246,0.1026718437845615,-0.140330741435413,-0.0014605809965297784,0.09556687487315782,-0.17604574960644842,0.09858192984929705,0.0016988815076054526,0.04973039269334879,-0.552957071580148,0.6039290964384942,-0.15346671156529415,0.018722590172326473,0.0011653251357497765,-0.4805671739563625,0.3095686521544718,0.42552789757617593,-0.009460616695796344,0.06170298639772617,0.0033297296341637944,0.180071781125054,-0.0710524919888796,-0.14780835796767294,0.14897858648841322,-0.2082780521586353,0.1628063002046859,-0.0015167145419910618,-0.07446647042473803,0.10063914954907764,-0.2400190242607233,-0.11679558243918896,0.1453661729593403,0.28941508616798445,0.053133149083371245,0.016569970030908616,-0.02747429927923026,-0.018586220006870314,0.006547069975153761,0.01195184855605738,0.07747509443162628,0.17944777017274877,0.1729051572294202,0.02531909607218629,-0.017655967025095663,0.026648799246380743,0.10889349626819438,-0.12555502573724905,-0.005238541617246675,0.16007369350124317,-0.023508150741363622,0.11912192655071498,0.07979210220601228,-0.037471428882049136,-0.12243434538268123,-0.055927068294090276,-0.008191927258079972,-0.1285996737382503,0.051567326692304225,-0.11551173324541093,-0.034547194943683406,0.08814984109862505,0.027739526407261336,0.0708686787630636,-0.12107317596585258,0.05185456325054574,0.13974156762917855,-0.025277522973080224,0.00868611583229436
385.22540283203125,1.877899169921875,0.015774732833288733,0.08770054570976307,0.1305163995817527,-0.07773745056619182,-0.20404966409310665,-0.16450869337427843,-0.22572008033617028,-0.09917568153319926,-0.06415878274692571,0.1830550639191829,0.07110496442955683,0.036067712481317626,0.16155570509660563,-0.01186705546751806,0.04805575051600854,0.04252926146138833,0.03275477495257171,0.04317572795580792,0.011112678951952278,0.10149346414913514,-0.010180895421694444,0.07207086635194414,-0.15917728606957793,-0.04045534441344904,0.07355203125810869,0.11161813159845002,0.2820825547581548,-0.1102722632701579,0.07279660815024006,0.26212409655561303,0.18656923048282567,0.0012010892268494657,-0.266764141362785,-0.025881188502589452,0.3572073199973092,-0.03177420395664231,0.1335762940092329,-0.007296895470700133,-0.34618101605915846,0.13528338368173767,-0.7492517387455846,0.5186025827014586,-0.39974795579596323,-0.2555685279282318,0.01835012156073649,0.4266876959077712,-0.12315914066482349,-0.11241203419015686,0.036693016906514775,0.24854705173281388,-0.4591019790987607,0.07370907057050283,0.19887841812986903,-0.21168053231935374,-0.14155178864992143,0.23679361967201226,0.037336598018426294,0.009033722391134591,-0.15178788047738634,0.3169265894725004,0.1001311103828544,-0.332550363085607,0.11472883099178591,-0.25079124510662687,0.016330018083183843,-0.21516509639479892,-0.12515189369181295,0.06940239464098638,-0.0008852906924494894,-0.03041850200296394,-0.15788249624542375,-0.010034240997108137,0.1177520429496168,0.13961423932180828,0.030342179893355144,0.016222498992213962,-0.11043377402568658,0.12997101267662384,0.07130327376152669,-0.08153236750629692,-0.09571209029121308,0.027538468853242834,0.006732691175439265,0.07234669110290841,-0.07534890471132545,-0.0030292144217572287,0.1656348745638345,0.1108976749647775,0.008589167468192337,-0.10692437452405491,0.047995585085977774,0.04245406168094528,4.1249245006536256e-05,0.006151190741600901,0.00887567387976199,-0.04422430165628292,0.08892517808619801,-0.19554032960797144,0.037152791531192185,-0.1347707411741173
387.1033020019531,1.698211669921875,-0.13014776296947336,0.13796556579474667,-0.05559183679613811,0.08564920137186172,0.06729392173438362,0.33674947549681494,0.0437402201903752,0.010755541522914665,0.08060595495616482,-0.005945013762714058,-0.04611065528721148,0.15604343648477392,-0.03200373461539384,0.04327999195632983,0.138317656391293,-0.00988266439239413,-0.10174435554595108,-0.1197007999641169,0.19405134168496438,-0.08244428935982505,0.01672993631068115,0.02126768157196665,0.010297750680362898,-0.043132833588359495,0.19790956382831176,0.05078433436788449,-0.031186475210928266,-0.02000720794668427,-0.10670602420540848,0.0814100358038068,0.029176901511709673,-0.6917741498035476,-0.30423336626673436,-0.07056498113388021,0.3337324290578847,-0.008857926187683274,-0.4681418622459559,-0.26357895258938296,0.5903991857087783,-0.33139711868777055,-0.4522414628264405,0.1686588598526776,-0.14919706743758832,0.15810482284174449,-0.2918471218310905,-0.20495457089772062,0.5638732629803647,-0.005594182235161255,-0.22428682383685064,-0.6329254143479295,-0.19466750933059848,0.4560529003517728,0.2726802621987796,-0.23299939612266987,0.6467393636564341,0.34131043526568744,-0.4099187214563926,0.17090929421936876,0.8828772909219174,0.20910479252058695,-0.06829428114492495,-0.3159658577786696,0.457078186273209,0.21872294211443924,-1.2561382889378534,0.08840610667590176,-0.47902199466044715,0.05701767402104836,0.21054098991188142,0.08263112704710487,0.09789752690141523,0.2455044647670489,0.019760221113359157,0.02361279794230039,-0.007000640981147624,-0.04840556394724164,0.002459328485561685,0.02879417976098432,-0.04065616163315248,-0.03069005708247305,0.03681786957088567,-0.0793980949426374,0.028811791341323147,0.09286840189619838,0.008607777388126766,0.08991950653003464,-0.001185040971933974,0.001810287415315397,0.010160670765862741,0.04988443184330153,-0.05309020714024574,-0.060570406607463434,0.015004402964263606,0.14607804949110123,-0.20516073608824847,0.14853232341584371,-0.3383763574525934,-0.00987318662188584,-0.15146998249045043,-0.37961600849149035
388.801513671875,1.57757568359375,-0.23863889926989407,0.10110273585750874,-0.01065721343412311,0.06810528666205243,-0.004756370859335735,0.04577160730727567,0.010226084543543257,0.07442167797960948,0.023210006216746376,-0.037651940579717574,-0.00969514291451387,-0.0218576048609709,-0.06009796013720378,0.02216698051047842,-0.026515326043639126,-0.04448047859068364,0.054649409887469434,-0.05205955661275314,-0.07960361544936122,-0.021438090399429705,-0.0267438093420395,-0.09440458656919987,0.02219385367721952,-0.07595096539347251,-0.23469756152354063,0.3496602719747574,-0.039922670410564666,0.15677849709718378,0.09158153500078517,-0.18215666337162406,-0.3941220143902991,0.01997837510459892,-0.09567295576012728,-0.15634189319966296,0.32515337222153573,0.14690155812661088,0.2850030838663641,-0.16975903012647864,-0.12284073493573656,-0.9190167609973536,0.22196714107307516,-0.12492674340517948,-0.3860132414454827,-0.08221824323704141,-0.4671320052528207,0.3565222175016631,-0.19200527451679247,0.08314047240645236,-0.2176741969052324,-0.021548276101335306,0.2836142300255201,0.379240801331744,0.8592434933055332,0.9004482419434278,0.09282204019538982,-0.06382577221956066,-0.09339419270083756,-0.28840516500756297,0.19559114766610725,-0.17720597311643713,-0.026885911789595457,-0.1903537395087263,-0.029515188686992967,0.025586379916403074,-0.10840084707010803,0.021582701777402135,0.0552476306538928,0.0381664564372833,0.01642595585720782,0.12193545534803048,0.012703618901433154,0.03929570161513002,-0.017770659656458,0.06715193201831214,-0.02972014322864712,0.04588555144532887,-0.02637774371536642,-0.00757220845029294,-0.06404602592954854,0.012893826704582584,0.07990834654404408,0.12537144281625798,0.14856243839353184,0.056970049637482166,-0.08268768134480095,0.047150310076488205,-0.040969226676479766,0.11952304884408439,0.04681334050747068,-0.03282362280162507,-0.07551876737340793,-0.19434990887588313,0.018294612928803782,0.12904703142481996,0.009036085355051442,0.030560540967865667,0.0157743611533448,0.17847752463827854,0.0006175420273823668,-0.062478293190726744
390.37908935546875,1.6085205078125,-0.06605593239218824,0.03745591244293944,0.003910761811490681,0.026498273451961013,0.09345677014621995,-0.09315722081102744,-0.00986064337303856,0.05905363860092535,0.0006904581511604745,0.047824693639503035,0.008778089657630246,0.013893977886286497,0.006034974169553905,-0.0475253633139845,-0.051719750411311216,0.11471125183538722,0.061742006406190465,0.11171275436053835,0.05907753833986158,-0.06890233870020783,-0.005263053956989561,0.01990977400236224,-0.00495815037976442,-0.003677873570823928,0.04960598514999562,-0.18362574163715104,-0.029538529884779095,0.015348377197496287,0.07286271966032729,-0.01674370055132944,0.2976129978495154,0.1900884234138475,0.04435002685987161,0.4814892006989531,0.6707470628902513,0.11939971206985457,0.05670943125329647,0.060815223206143465,0.12017448382393645,0.2309413006556672,-0.19233830186129067,0.2006673208991959,0.3066002124322034,0.7671409988494446,0.29113599149981567,-0.2057838738993452,0.1757354656317774,0.31509241401999244,-0.10334929991092949,0.31017325065171153,-0.02803933806282333,-0.03720865564618186,-0.2752847781352969,-0.3076727442664975,0.17441659167961238,-0.018346161539045516,-0.016167392666452327,-0.026594549234221887,0.3492737679035516,0.20017817399524807,0.15282755735307482,0.039574116895855445,0.14183254538234918,-0.0888801057477815,-0.11002360778654867,0.06062231362563509,-0.04512508607590921,0.07845069629813921,0.05105085426327213,0.022300976376532805,-0.06234008618756558,-0.04053245465039772,-0.1043771251514346,0.009271778148538107,0.020257241665338557,-0.03377383045841344,0.04983918678407019,-0.05629083367333791,0.010682177753584092,-0.004985533991173199,-0.12440506694267976,-0.06300508282259527,-0.1491719338875285,0.0022870778511272028,0.016708090909453972,0.04153752032554575,0.06872599537717598,0.06756973483837585,0.07101867291707362,-0.03580434829498991,-0.0017021868758184827,0.01993880205982751,0.19057743706713567,0.19710186247432215,-0.046375083610765325,-0.16558025798050655,-0.14585379869333076,-0.3036451555074242,0.07782807588291535,0.1837534045594212
391.98760986328125,1.598297119140625,0.19561211350906801,-0.13438814357603293,-0.01210842975624466,0.08192073485757964,0.034849900461314295,-0.11844853730132013,-0.10724845814683773,-0.1143232387432595,-0.08156805294307326,0.013103098512233326,-0.004053656255871559,0.01913873102162159,-0.0007740658152743677,0.003962927229826304,-0.049347883361784604,0.17714853233271644,0.09477504082425114,0.0019551097850931507,-0.01944572851614755,-0.04385588589551907,0.03585447629779279,-0.09974361402855879,-0.02780118229978749,-0.03262215020302828,0.0540754458315694,0.1095576735153588,-0.045144798457636116,-0.036884527354929315,0.07865755165024153,0.0695583754253984,0.026776245070705928,0.043150032887458556,0.011467749886392084,0.1187347467339816,0.2194524298994275,9.031724711962589e-05,0.250913442141302,0.04426086674767923,0.1038323522531468,0.5434241424747478,0.460199524584465,0.05154110982269079,-0.009052139340899545,-0.26171095037043096,-0.05012228324100637,-0.1960864154887731,-0.22423966144640492,0.13903739248801517,0.4261918740000464,0.057138629501200425,-0.05851321273720302,-0.18824564286190842,0.3527404677414933,-0.09865827869178163,-0.1169037910796294,-0.04331915824619707,0.11346793603022191,-0.025796308571256036,0.2095307384412643,0.14237965592853447,0.3428333082169042,-0.29682077582424166,0.05728218711070546,-0.056140775795396704,0.07841259507375031,-0.05979517027730752,-0.009440861952456152,-0.019822932527017972,0.13715022194389925,0.03228198588049911,-0.05703639005882633,-0.048333519764761246,0.031540102184671286,-0.021457661634225397,0.0322241646259223,0.0075913355778386375,-0.01766773165897157,-0.08400218295317916,-0.12399671783192344,-0.1526042391976137,0.07721777399801658,-0.049983357558439315,0.1090450345054171,0.10119528122380787,0.02037916767060651,-0.029483669567535366,-0.024706426096276563,-0.008667305396979387,0.11009689495165237,0.01125755266732853,0.0022281304136130744,0.11404983414663307,-0.053735639103770536,-0.058337365311473724,0.1431592961066393,0.010223254053541577,0.047817135011143846,-0.06635895686970679,-0.07613725696320724,0.05959414526709779
393.5859069824219,1.52740478515625,0.053471653681520556,0.013269167955006591,0.013254641462129743,0.07646166710952573,-0.018691389902729377,-0.10429509516419366,0.025422080648998768,-0.0033821354073077276,0.01101114398176506,0.037814211282025625,0.026958437251364986,-0.042595646691070445,-0.07847369980899047,0.03063492087436714,0.028701998391384625,0.031889950224837274,-0.012406548306537798,0.03913523551331986,0.050839300859663726,-0.500735240678825,-0.1519892763055674,-0.38762269044185205,-0.19699579998687355,0.3859041462742416,-0.06389651737113579,0.07790140492804144,-0.0532903310928666,-0.24684253455085925,0.19526967749851934,-0.180061585453191,-0.2662704308781236,-0.39279159434628225,0.05549535830219665,0.15267863533864096,0.36506557240334647,-0.002355737747745071,0.2805971057661552,-0.6679140520373278,0.16392616427349893,-0.2212856199866103,0.20225232877793958,0.22772238664410535,-0.18710735032288725,0.20228001590185632,0.29411143775284754,-0.4832094318164619,-0.04121075087046727,-0.3101753750380249,-0.22092688216011147,-0.09628438245112479,0.2515014679647246,0.022992070666553965,-0.4438496571371404,0.09656755679855744,0.09718779857292384,-0.0034857838082611213,0.006168844915516277,-0.08890490162248933,-0.13260602101012134,-0.2753034599302722,0.06351264375432228,-0.05785986605935969,0.03644504188383059,-0.060477742347567955,-0.05799065723636576,-0.2089000623630635,-0.14628028096747173,-0.07813356435775536,-0.029196646159553807,-0.02328017028255172,0.049330143309949046,0.010569035994952083,-0.031693350642312615,-0.05306229496179909,0.026126478320452395,-0.004077161134487063,-0.24194906975615318,-0.07373101386699456,-0.0033462918810022056,-0.041904455643298144,0.04689839167141491,-0.008439638915742956,-0.052830587879157814,-0.005650629250687872,0.0013555792896639378,0.07730278276439394,0.029994382226460073,-0.061952674453261254,-0.05061853145027503,-0.004771134080632854,0.11176731805512388,0.04174463293618821,0.06377732445013468,-0.006247551344871292,-0.0347410016378208,-0.08097393136250036,-0.04779550331504387,-0.25878802594165795,0.1098391335094225,-0.020750090329801726
395.1133117675781,1.658599853515625,-0.010526321237633592,0.025799178757503316,0.0901360890120996,-0.052771994196994104,-0.11483796398600542,-0.07807297832927149,0.06084040541026231,-0.10205509486448666,-0.026768125593699708,-0.2765298482965091,0.037658859555392436,0.11349149660204545,0.0906657011865677,0.079291934505879,-0.08838225901025412,-0.0002570976818499723,-0.004835880216196283,-0.17004880136954917,-0.1297242654169036,0.03866819503522288,0.2283875138783878,0.15037022366081632,0.11933941259684268,0.17621527392461467,-0.0733534173173555,-0.023374762879441492,0.1594918032886607,0.32303741082717913,0.2602014462383542,0.04195573738486766,0.0004776928473364567,0.12458996608146716,0.2608152027599155,-0.21987138698111872,-0.18249249815598245,-0.2880297625587842,-0.14026961670795282,-0.004806142631204342,-0.0011374087870535537,-0.42851072437588356,0.11051704048418111,0.4269159388699623,0.3250875457567261,-0.38897444995544483,-0.33980657473364534,0.11783110270882555,0.1003227535263796,-0.1362371632929493,-0.0049124058318001235,-0.021676756141404074,0.11692225914815824,0.09425521150348941,-0.32213542438716514,0.05721339038284807,0.07585425499765354,-0.12569561408094582,0.04249739872711962,-0.44897786829110525,0.6599216701837853,-0.051659116039361845,0.0007045466748241309,0.004765388703656764,-0.16825543320274777,-0.28148645086656043,-0.25985934336830246,-0.02226720947177674,0.008202581514208091,-0.06263267455053226,0.14518991415521995,0.024029546932807212,0.18679914454300614,-0.002315458510362076,-0.052995064030266104,-0.14943942948562772,0.04902550645325458,0.12014330631600328,0.10513318784753926,-0.14839509251680316,0.054421018269259575,-0.02202013283976833,0.036170570430436616,0.07366809468082028,0.17608649844139443,0.16997070384792734,0.029826056671575764,-0.007556861141763821,-0.04742318689247749,0.01365033092914519,0.009340028683715734,-0.052215330469880125,0.0030732421812414397,-0.06163679406927676,0.07369638378708818,0.008291313633058026,0.09054940879790858,-0.057285806820554175,0.03891038375585529,-0.10773314744432584,-0.01407011871647175,0.12060904847329465
396.77191162109375,1.67767333984375,-0.037142729767545624,0.1169268740572052,0.05471675368988952,-0.13222465032642444,0.0259488147459312,-0.06233007997065868,0.12753790967526327,0.07898838288750526,-0.022010377277012293,-0.05529997163928104,0.02254392196069718,0.011769542081975554,0.018604312920645377,0.03036323359312627,0.11406474499137492,0.025103818936605418,-0.05813358268145077,-0.0530661763769377,-0.13801157000413022,-0.021700099397157793,0.3021650507925757,0.519421795386835,0.11392164797562951,-0.1887920811207283,0.10375545344781417,0.09746618244940335,0.00944393616159335,0.22721552621049368,0.06739233558153149,-0.4417032734095155,-0.3337580129657972,0.186722747966474,-0.010765618079009796,0.11762337512051729,0.24587578963588783,0.4265925220515507,0.03809478098267716,0.120289631741124,-0.37323384018616856,0.020387631618641343,0.0834451271509998,0.016968745695537465,-0.09425168669387929,-0.2391906897351868,-0.31024518525364747,0.22127573718697188,0.15632915757020424,-0.022789045582689772,-0.032525520227727034,0.17643362102885846,-0.11846563476850992,-0.1045901409359561,0.35520415452549176,-0.19739110986581535,-0.7744055100509755,-0.09442883309305973,-0.13972588759206017,-0.08238277647993268,0.037705066578927804,0.08541845412117395,0.00505565112157144,0.025545041232693834,0.09499560354426236,0.051927445954972284,-0.05278056206496994,-0.00031403097275015763,0.042683833463810654,-0.003418674165087593,0.10978077356342626,0.1066875558620164,0.06641065936575653,0.01303796264668075,-0.01767757488733211,0.13688926062150825,0.12842848433732382,0.02666441790482986,0.02528391310449652,-0.08053637873804767,-0.052256422006560554,-0.15820099470423293,0.11565286869906169,0.09462067376195359,0.0027845259290488304,-0.03558317968817267,0.0066274656605867606,0.014273795968780614,0.012831585417054779,0.02287042552089114,0.055204917219971124,0.09084966682629635,-0.05264386614472319,0.03303181277554026,-0.03846988272963599,-0.006411911017965173,0.1419507948499354,-0.061493564236396736,-0.19802312750757592,0.2132045464808678,0.10677742010823536,0.1750502799752451
398.4495849609375,3.715911865234375,0.03867725720714554,-0.02045352505952365,-0.15101929063478875,-0.12230690223914609,-0.08459909388059246,-0.35822643911787727,0.015012050255930123,0.06318107069981557,0.0471318767519513,-0.05629820619396891,0.10175809554936685,-0.007496330007427693,-0.02012441916648028,-0.011440346207159523,0.08325564475296687,-0.0706327088859371,-0.22183655378232298,-0.06685232043396344,-0.13918732090974242,0.11638788390545335,-0.23691420181461056,0.08739173235375358,-0.04525315662447084,-0.042189534710869864,-0.06038155565661334,0.04672174828403933,0.025886164727044723,-0.08103512085657334,-0.14273658781928067,0.05309993301512432,-0.03092583596608593,-0.00855428940342904,0.2501186266734778,-0.11645261905307128,-0.02961452324549757,0.02858202759396468,-0.07534028432484523,-0.07258119497838507,-0.034685423417646674,-0.46429468959149045,0.17198778357856714,-0.046647903130565355,0.22635857181959407,-0.29776323591962495,-0.18915637984541675,-0.19054996657604054,0.1812067816536313,-0.59428751056453,0.4832782576028486,0.4166246830874024,-0.2775986476059957,0.10278371451737425,-0.09583627042732144,-0.13018236780060796,-0.05390774918567738,0.1668476015197952,0.0707804741388914,0.7260162422327612,0.4299706304977822,-0.5693168847572885,-0.5661787675102328,-0.25137331733240065,0.14653219376694218,0.11255342287392986,0.016700180750848555,0.011780332096490018,0.021115116259011402,-0.023044189181607735,0.12496399903607308,0.02376146406549048,-0.1514847810389656,-0.12216495171891437,-0.061409026897263276,0.03533650837634453,-0.17914900682701249,-0.028903633129611493,-0.006190782898930136,-0.06643628140466677,0.010603614523295822,-0.03441962457691185,-0.02665530119366412,0.06914559767412078,-0.06066329188984418,-0.009094106634701914,-0.05716668963190138,0.00483574376471151,0.06778643391993901,-0.0355178759719067,-0.12048165977509961,0.03375919466233951,-0.025553606790869515,-0.0711745224353548,-0.08716783705380757,0.06830766848520982,0.09017770200880765,-0.07666765399872476,-0.36303398611980203,-0.21955607978320665,-0.019490759234167675,-0.17845510772795659
405.49139404296875,1.74810791015625,0.06717037222188547,-0.3479364242121533,-0.13317832376010716,0.013185920701802328,-0.025145601370685854,0.0861875873355586,-0.07654240970660026,-0.19333995286956196,0.11232609979767748,-0.06529670475161643,0.0009208433374748852,-0.07057723951049008,0.012977997531105871,0.006895725662854886,-0.008017752542035442,-0.03671330196422401,-0.17751286976615754,-0.00963196434107097,-0.23924140486694823,-0.23603592107999655,-0.14393492882055853,-0.34603941058931553,0.2905311201276047,-0.2357681757527433,0.138793854442844,0.3475627801646789,0.10247789360984683,0.2910882443782937,0.27708527737060057,-0.39169469516412936,-0.15070572611013255,-0.40166615878009404,0.41007675740396304,0.5135410618399858,-0.4567591100012014,0.3778072059543466,-0.739678440863777,0.029799661620258794,0.09562375008234643,0.37712142109509283,-0.25883677137360356,0.12284393755636835,-0.003603689070647065,0.03694715809713295,-0.21356766663318436,-0.022033595870321755,-0.023767059758452933,-0.31755617754280135,-0.09351636704310905,-0.061561854969028426,-0.1601573148664368,-0.4547819288453541,0.41153258830351763,0.11482117458461696,-0.31081169616910603,0.051366046505792864,-1.0594104663705979,-0.28914571878199524,0.19609607042213711,-0.09387266293101228,0.01094079287533738,0.01531516664151314,0.07173806821462332,-0.009763598566471148,0.007818488914322881,0.09541929611734579,0.0396585441088897,-0.04294233736997164,0.05348889433066091,-0.07600681020261736,-0.17656695836887298,-0.044862103380101825,0.07174281201487787,0.10244820168102325,0.00042297013530796573,0.16595707658583747,-0.14109828341902403,-0.08903253657746463,-0.041887017562193665,0.150929110279106,0.046804102328156176,-0.009792392722953529,0.07112783225353322,0.20606607457484663,0.040586018503310034,-0.038238524178713436,0.014715994303737483,0.10267378947799849,0.058297433806383074,-0.0010890980818270024,-0.013522253412762803,-0.07116074983738893,-0.0875579008677879,-0.017977654825250163,0.0015359764311670297,-0.18470419912705774,-0.050233497636071815,0.16957570287093232,0.17376376937472612,-0.24579429120631638
