start,duration,0,1,2,3,4,5,6,7,8,9,10,11,12,13,14,15,16,17,18,19,20,21,22,23,24,25,26,27,28,29,30,31,32,33,34,35,36,37,38,39,40,41,42,43,44,45,46,47,48,49,50,51,52,53,54,55,56,57,58,59,60,61,62,63,64,65,66,67,68,69,70,71,72,73,74,75,76,77,78,79,80,81,82,83,84,85,86,87,88,89,90,91,92,93,94,95,96,97,98,99
98.58204650878906,1.5978012084960938,-0.02693804133443546,0.109873910403954,-0.061147947763943084,-0.034030585652472564,-0.0306611437574239,0.08711891882000368,0.05210780677090298,-0.009044325735473627,-0.008697716149881986,-0.07371814936800394,-0.04672221757042173,-0.04921723697458791,-0.007513063224340489,-0.09037645524879073,-0.05655206125804692,0.017554519843872247,-0.061542215529974055,-0.07190631118824235,-0.10203543643001392,0.011755473176135407,-0.013883547964133425,0.0005767567970302855,-0.03790090747343359,-0.009797286939396967,0.08487747818113706,0.02859253102762515,0.028081196131354746,0.028038585460652292,0.002146493714287633,0.0956620523755019,0.09597429202228583,0.06350402038832598,0.007890358071504918,-0.010917336797362467,-0.019363971128522714,-0.0034700767700349246,-0.07089456239897941,0.060732793759948486,-0.17345843052115123,0.1308613838933651,-0.062394360909925006,-0.033572396450154945,0.07401254612578066,0.2012924369993569,0.2447517064625092,0.1090101525741366,0.3329935788499411,0.2505092886203983,0.7035990304254759,-0.19370824871900616,0.8547201186338507,-0.0979024672918619,0.1293265096250681,0.11075574448237596,0.029824858262001125,-0.1311488565796314,-0.8900959349103532,0.0749994659891529,0.004687527575815427,-0.055889879945474265,-0.021796174848901707,0.013853211590091244,0.03531660007206588,-0.00018207131897917002,-0.01923507711178782,0.004618510971859398,0.0019492256550918965,-0.03249409761415555,0.005397382091849446,-0.09122607049704667,0.06251970636032154,0.012313626684225372,0.034950628624904334,0.005292082982208449,-0.03326179464274235,0.03869353861478151,0.0817735565611698,0.008020684189828157,-0.015515783609310971,0.028574038466626227,-0.03512962416807439,-0.0765707925209339,-0.023142460749901145,-0.016701625475899037,0.005154728349526487,-0.004962776163480949,-0.0302689727986728,0.055504289239153175,-0.06753107898300763,-0.006491204966581634,0.002848662765644971,0.04898150793773239,0.0048539124578458525,0.0291988472377001,9.594085195702007e-05,-0.0017461831765378751,0.030130633151320394,-0.06695771264168628,0.005833019223003804,0.006122886957382306
100.17984771728516,1.6287002563476562,0.015259011858932678,-0.08222539092348659,-0.08127617809950594,0.010651952825314462,0.1007353894104326,-0.03578059719113765,0.13562311889074416,-0.015349573608458412,-0.03931383790658596,0.020372198646362978,-0.007322451240101985,0.05711455830166416,-0.08473669845754163,0.037528589686878576,0.008619568468253819,-0.04952959245830734,0.018985540015633656,0.050875719635516375,0.026405458170557852,0.10961887773582574,0.02145977334206546,0.03074032748176954,0.011574214872887378,-0.049706526204254114,0.057073136835883415,-0.12891723574750744,0.014692981559935467,0.17394414525954552,-0.10602647044257019,-0.05565301444377311,-0.23757162370103554,-0.015680777995088914,-0.13825415441557348,0.3870511264735541,0.16993834590530038,0.07918561213000647,-0.09042525225275366,-0.3810837826893705,-0.49267386962447474,-0.22148345964107624,-0.050575570379730775,0.02982835075780024,0.41642286626782576,-0.18916685722152624,0.3536086250099998,-0.1132216945531144,-0.31943757077692947,0.5306815005506593,0.16071843310207395,-0.13011757283523742,-0.026999344998644367,-0.021845892564610205,-0.6805167431274366,0.28676568528811675,-0.21974839029400556,0.06651777973941973,0.17436148958496986,0.23488372392549464,-0.006895491546125726,0.03345311310992262,-0.2334707584639629,-0.031767732528251935,0.002599287724035886,-0.10011665544894266,-0.14864541696685002,-0.01297785499391155,-0.004222765807369231,-0.016434763607866838,-0.06166627633242354,-0.12677574308186862,0.03690933451149809,-0.06722081954362533,0.055488703413948716,0.012929732353380945,0.008313125151309927,0.006832141495126249,-0.003422588884700578,0.1044121231704077,0.18336490765507926,-0.028724290022379063,-0.00014532856759004453,-0.051243131586046944,-0.06610653683358776,-0.007261779875912337,-0.029316351074502922,0.004733523678554936,-0.00727896199235227,-0.0860716556851819,-0.016100949630810723,0.01892322957494834,-0.006138243595446612,0.008860041638482405,0.010994152145274872,0.04733821188534447,0.014783251712149705,0.046341446588479974,-0.010351314224085124,-0.0852297796919787,-0.19287298648179302,0.17456506682220252
101.80854797363281,1.5782012939453125,0.18073122389821059,-0.043982021745704813,0.004190760065995608,-0.10974472368031242,0.04500095593395852,-0.021777770115603556,0.06245751228017548,0.015408988330923117,0.062182428566591806,0.12438438859780754,-0.16484248509181457,0.14963559571336202,-0.005298639393415979,0.026738178795906665,0.035686747835069636,0.12777250925892097,-0.1133408535021386,0.017951076331673827,-0.20967082191277703,0.032928705109703214,0.11484001870603497,0.06622967064798309,-0.04218022101613721,0.10484106533716285,0.0094459467014828,0.1529178713438207,0.00903599741846052,-0.04987118980365865,0.03817532242664016,-0.024315844319591717,0.04127985758260654,-0.07507712036493445,0.03533707749755672,0.07580196944619617,-0.03542386718165041,-0.2448344184360859,0.016316521238356856,0.07646203848464486,-0.2713329944463093,-0.08012141549021694,0.03221678727474475,-0.1896678906687299,0.07520024945289058,0.234855416625913,0.5059655254828803,-0.3288665275052383,0.1701986803909273,-0.4623717744403351,0.0027900366841668365,-0.4077772539086279,-0.4589800153844825,-0.40123356477301647,0.4230452758130326,-0.12594474009094803,-0.34396304483442797,0.014865175427459788,-0.011044088969371212,0.0004612007812939148,0.0033110930529329126,-0.03581360511313333,0.03144728207775631,0.007358961749540278,-0.003098220734650944,-0.014875682359156539,-0.008882599775991188,-0.01692268746211374,0.0273143321553041,0.020535225769207032,0.04938046030059118,-0.06618181204613738,-0.03553452701157232,0.0024405265953216697,-0.005936826756078857,0.015204945344305144,-0.0130472929970679,0.09056002478645717,-0.016468984062673712,0.0067733013832910385,-0.024051400221519765,0.03348830866669045,0.011486532214634047,0.059574649303863185,0.06639938567377635,0.019497162095585933,-0.07347814595920676,-0.022364036938889362,0.011561539598331588,-0.029016892083484354,-0.08851554443984974,-0.07622543505352297,-0.08463566400080091,-0.002565858069996778,0.01787521494378346,-0.04065760971224451,-0.03507593550349666,-0.03505953568908955,-0.06189828085874929,-0.02298020455700931,-0.036057570958680556,-0.048393457687461575
103.38674926757812,1.588104248046875,-0.035684973768644004,-0.05800380034169998,0.034090239135079005,-0.07796083333792321,-0.0012336837349147148,0.027821512841302555,0.04150718521298801,0.02039189558311003,-0.0586148649374433,0.14210016128339834,-0.03562084176555308,0.021685115445379134,-0.1639849682182382,0.03954019477826836,-0.030804636626093382,-0.017617436284017057,-0.0441709386761272,-0.12554791896848638,0.013852062174456326,-0.08398446288730856,0.12156989373978672,0.14461449280783578,-0.024194462962031184,0.06604070533062874,-0.07790585433348442,0.08649992782461488,0.025057673282751096,0.06325840018768307,0.017995554507218556,0.0827352513321783,0.00046368096521907085,-0.05562879286488571,-0.12640748451840128,-0.08348246758669514,-0.16658516692030226,-0.013300512788835234,-0.07863440162468269,0.1968641861848783,0.29837684889327387,-0.06494436816881557,0.08712106903273935,-0.06694716244016873,-0.012399380129587814,-0.26597523535082757,-0.4928673315070711,0.4850720655250585,-0.02657714958020968,0.06445066159321335,0.08315492705843011,0.06285893416907572,0.051933003252523334,-0.4424235313431481,0.3485724299652426,-0.322675152975934,0.054916829770902925,0.09488941654111863,0.005495722760855166,-0.039668630599813924,0.11076874819838406,0.07387891507972251,-0.009584147499360632,-0.005882168393998155,0.0012653712209369436,-0.026503027036368428,0.0842039774171912,-0.020879561427226204,-0.013184723673315746,0.03336398935356254,-0.0012775513427158332,-0.03089639848207791,-0.03861858719104202,-0.06983729054880138,-0.038718359866270334,-0.046942491505603604,-0.018321462700411337,0.11608545401336341,0.03716099234317512,0.04064026997373414,0.08750002039471497,0.09052907334661425,0.02084379872660325,-0.032776714994044664,-0.002214149408687797,0.014911281686500407,0.09845813205756242,-0.013236000212465052,-0.06128233925908718,-0.0019566623322883744,0.009246618342877138,0.004330132664580103,-0.07864060281111718,-0.012078733897902589,0.05411474869847414,-0.018926834999494893,-0.011871238964150264,-0.06806243550297576,-0.030844072689931744,-0.028451360554552524,0.05839076984626079,0.009797896920649932
104.974853515625,1.5882949829101562,-0.12610917183628728,-0.08866812227335429,-0.03262519549778028,0.021665758996022626,0.041993565263951566,-0.03790463990484229,-0.05071305213616988,0.0007177769265977602,-0.037379100918634785,-0.02878933027916044,-0.062209614832843686,0.04476326600005907,-0.021350750139076814,0.009528162023127725,0.006638795645408971,0.07393471647927725,0.03422851072278949,-0.02574851846954591,-0.10988103564694511,-0.11212714158225268,-0.007550474747136234,-0.05307772950271439,0.05776966503742969,0.10484537924667078,0.16688066192199252,0.16115047891387232,-0.0017207555645566662,-0.016754821139852865,0.06613531163528051,0.06668660150641706,0.3250210598062462,0.17224594225585696,0.0037565256003697376,-0.11146520041661029,-0.015399734384949897,-0.1174162581220453,0.05433235735683978,-0.018113516155764203,0.6917142643104712,-0.5855886429083528,-0.11892752470780835,-0.011124863026636095,-0.009810307934596155,0.4270924905978324,0.1958682664692751,-0.418491792124265,-0.1456553649138802,-0.5640528255022467,0.2936055637166902,0.1803910885784284,-0.14312663004319692,0.3614435278717841,-0.2662043676969386,0.25284067842765817,0.027324188332054904,-0.007115780032117518,-0.03391046591391195,0.07139411801924216,0.23179320034584455,-0.02320371935316689,0.011780636278216423,-0.014333469017880449,0.00418641795739557,0.11053984009351062,0.019537226498470898,-0.0653702058828677,-0.04851741176864181,0.01710954425152586,-0.03383438832883708,0.04354963099627029,0.014939929595855935,0.048343689714689234,0.01629773089651504,0.022114799505928158,-0.06686415624202437,-0.04076696971170761,0.004387301046312964,-0.0051134229118130065,0.08729314514766034,-0.04265998913458297,0.003644355494819433,-0.025519742281220115,0.09675912439341698,-0.00493914122745741,-0.02432639511308154,-0.05700731933185286,-0.005165688524715419,-0.018047951245785454,0.011844309697074624,0.048918550685971306,-0.003416679516822311,-0.007734521959408476,-0.023474351741651044,-0.0020255925879958917,0.026653310584707202,0.03181549172691859,0.01835871992607017,0.06496819192143556,0.2208421771964028,0.01061934332778195
106.56314849853516,2.8169021606445312,0.02159104654625768,0.11000588365991094,0.09237615788462418,0.06743664304152766,0.04576070663088373,-0.059575138540842024,-0.0005372776144697828,-0.041986016624555374,-0.07674166452626574,-0.014417404972698566,-0.16340132934900867,-0.006767397345771978,-0.005022661373423202,0.024088573828284873,0.008659645534197628,0.021567596789238433,0.019298539041066168,0.06398713473768,-0.1152104748272687,-0.04957846555497318,-0.002962205466371901,-0.01526353335140964,-0.02483696092847952,-0.02491060056510665,0.05223658971305641,0.014682810689930853,0.0715644561537036,-0.005554247012022429,-0.012723944645073114,-0.03266155952582224,-0.021870967900041165,0.12997930251115303,-0.08632938180695456,0.13264957057509863,0.32622356448706696,-0.027673764860585273,0.0948921949386952,-0.1676283358073681,-0.2796844131888442,-0.23716119061912683,0.028541077913301995,0.1126839076749494,-0.05832015641119089,-0.06430629308248062,-0.03608801751721688,-0.34755757125846665,-0.1798303710637734,0.34990965533050233,0.18987511144242747,0.3175434475607529,-0.11677167165676858,-0.06876140950788576,-0.00817966764261438,-0.2982429060322439,-0.06469818543850386,-0.04377160375356387,-0.1634156059944638,0.04293816146883548,-0.003265862934134098,-0.004690410949940372,-0.0015219433355732354,-0.05741797289068449,0.013126010637090998,-0.0005345010660006167,0.0042390674770460355,-0.07282248378808415,-0.04878182946837558,3.4237354586438775e-05,0.0015661901840111183,0.02686588949447115,-0.02345191242314512,0.015503243902534124,-0.011191378841103277,0.02121861537655835,0.031206827700676187,0.02496111941445306,-0.06393151817832722,-0.03074775414229376,0.07340691936973999,0.016379809909580545,-0.013678467606017378,-0.0380147395988806,0.01269977483400092,-0.05955026227796032,-0.030181982845783707,-0.006915173710165437,0.02516483321351689,0.0056552743000202535,-0.022684290944360024,0.0076343786689005814,-0.04693489819637604,-0.005910357884979958,0.01955845196690288,-0.07238531477023426,-0.06769309004703766,0.04917360984978706,-0.038010659086214926,0.0074172094308126236,-0.009757303885826707,0.011346900891659375
112.32675170898438,1.4679946899414062,-0.16784668172591877,-0.05743043820413729,0.25124650592326003,0.01624087285143988,0.07761025743355328,-0.016773730413137983,-0.0031393018711081857,0.15691391592997375,0.05136848057556559,-0.08310819344550435,0.04798346368436068,0.018801312438492555,0.09371378223271004,-0.008531971535076052,0.01958417666208071,-0.005962005446199677,0.0079585533221798,-0.009969490283403729,-0.02965932154202985,0.02873666984152504,0.054695086750258075,0.09633263033448884,-0.2259483422776184,-0.08640757764650164,-0.04384340192717984,-0.0936131431820095,0.11250987266734404,-0.04411108987887529,0.028184905565656213,0.17035017057046614,0.27747542989327223,-0.02229805202402334,0.07396325936214966,0.13855439765458308,-0.2801360083693491,-0.17909236807929543,-0.05421213587101342,0.07959447075853501,0.11174489493300355,0.13013990665064012,-0.18583053487112128,-0.2316074717684355,0.22853003458806764,-0.36700986518623807,0.05272871711631917,0.06323667726890232,-0.19768022245443662,0.3157410933334466,-0.29438897674625786,0.22185946857613925,0.3125482128942623,0.21852693760937236,0.056114405685303036,0.29584294580640647,-0.10196610024099587,-0.015424352614200798,-0.06519633878570483,0.09265558275418752,-0.00946516739010617,-0.004767635162065409,0.02955302721148294,-0.05497826216369558,-0.050060256743364714,0.05715967529639965,0.03933571386458649,0.00512047579002898,-0.006010220069213489,-0.04155828800762577,-0.001414301196871687,-0.017448723710346007,0.04850028657543395,0.010572324233196609,0.013830361296561112,-0.01082037279224557,0.017053881052771364,-0.08698319788149991,0.025392843187936304,0.04801400055250045,-0.004778356358587124,-0.01641361602209035,-0.016308839327996035,0.020097884802458454,0.010076499584140905,0.10118768065739789,-0.08491811229988444,0.09576642266122792,-0.05010505037498158,0.007452524616322023,0.019953727993443506,0.0544145491853612,-0.0274452421279768,0.033168303171842634,0.009898068836398337,0.03362289870311623,-0.010176595102088008,0.032921529349003026,-0.003524752215614349,-0.01650147554001384,0.034690377304391,0.1538371707017913
113.79474639892578,1.558502197265625,0.3127764557448874,0.08161290726672896,-0.08060510210898353,-0.027354118889754104,-0.02983027888677115,0.0682639331355919,0.14391214178261197,-0.051109869665171385,0.08540636689508012,0.0425357569307179,0.09451000672575254,-0.00889471941998659,-0.01504167611974555,-0.060765480149971976,0.06277729174349175,0.08684300819445948,-0.013058035405078567,-0.11081524834221484,-0.1292712523618913,-0.13613939857970853,0.012763772722136933,-0.039476759275264825,0.06450089765049481,0.12206098415170759,-0.4232998649992188,-0.25442551393590473,0.20911529495177553,-0.4510276392345795,0.14977593886348717,-0.09069883623792648,-0.022566597565306434,0.00838216059727943,0.20071887798061394,0.003474669895228523,0.17203602747066718,0.15736287465561527,0.20666096421430752,0.15484053606889406,0.10475879132544841,-0.19785038471272942,-0.5716663153386987,-0.0834483764202966,0.6347009068952524,0.5227327621675629,0.3486010778173275,-0.5695298108144281,-0.08955036107208778,0.07408316377466419,0.3143823132525078,0.05612935445505492,-0.21237581269359457,-0.17058287608549097,0.2445576601265988,-0.06834002116817346,-0.05650698617788941,0.026324933135526217,0.030984269909986123,-0.0006053911419891516,0.009231155754781612,0.056733613323532536,-0.007423555014361066,0.017380607976654354,-0.03955260363232786,0.06547795003906562,-0.027022559899128107,0.06799930380838135,-0.031264390828612765,0.01017848025297271,-0.03381975340672269,0.031092669854566005,0.004723119245166343,-0.0018566809965329806,-0.03276617032788288,0.003776939016953211,-0.023495814030930404,-0.006716009293019107,0.11461264883397479,0.059254297930665625,0.030198258562112796,-0.05077445041782931,-0.010169157473790467,0.054269784922529686,-0.000571983760255659,-0.027391589303978912,0.000510427335496555,-0.047460750615373484,0.05472862090628343,0.0004003280892170801,-0.08453491531090941,-0.018859506952684076,-0.012615561102857406,-0.011338738594014727,0.038503227927153355,0.004105005659351235,-0.009073513281761071,0.012532577339977608,0.05622083870503643,-0.07147776088269746,0.11807329484251139,0.017398551166737792
115.3532485961914,1.5583038330078125,0.019597502915746738,-0.014681823245410562,-0.005812036734632401,0.015343980841027532,-0.0015637764516226423,-0.12217818475797773,0.005624110754494826,0.08952369950400475,-0.04956599228031835,0.05019041008916837,0.03241024758006085,-0.016357122660079444,-0.0662569622354749,-0.015411566768732558,0.010904884139157049,0.03986325679242954,0.09346533013408657,-0.01303987662967751,0.028819435661701965,-0.08163747908693345,0.021040654157301598,-0.0019988788250323653,0.18249621313020262,0.09296960957771239,0.1431971182916013,-0.07605457920472858,-0.0013974678466748824,-0.01692634223730781,-0.04166277039083622,-0.02003940293039025,-0.5371114788445605,-0.04435678088852826,0.0669588462545496,0.050558448841426906,0.13099387955871458,0.7642858700235792,0.6022101220263948,0.2773948702415018,0.25828605591545917,0.12293092939646691,0.062361480368586596,-0.24986605807099588,0.004054419224762157,0.2371627739790122,0.026969828556132433,0.34982904208199445,0.17013497708575342,-0.00892604690438411,0.3960383494467398,0.27782116306300353,-0.11973326835531437,0.3030284819541891,0.4178808559650167,-0.0771472860127622,0.12153807387331331,-0.07823515357922807,0.026609053487925777,-0.1062624705493128,0.010170683734129129,-0.09732153302315298,0.05823532402066601,0.05848443585279746,0.026001448460879692,-0.01647098926817312,0.0914209111236964,-0.05049923332321295,-0.06495206009507125,-0.02670299509244853,0.023872646474293647,0.001074723640964261,0.004497882712746527,0.07123065106068285,-0.07589031592547466,-0.030509318102243277,-0.012599489814154041,0.04019497992921108,0.029409758025293702,-0.014184964455999788,0.004014090514489919,-0.08801043835204168,-0.010868166292395131,-0.028427574591623653,0.07206126285999355,0.022785498408087166,-0.0008302664758315071,0.0021213831862963214,-0.10573834736286812,-0.08255044485874075,0.007644153800905357,-0.02838081260087107,-0.0012671038923298043,0.05381008361924269,-0.02464057942686826,-0.0161128731801067,-0.012975918068283975,0.02198532270103899,0.021763814764997443,0.011773120084176926,0.07640240050713745,-0.05065035466572204
116.91155242919922,1.4782943725585938,-0.04531806680801096,-0.02597116241536954,0.024682245654666965,0.1602611273252535,0.005580696186567256,-0.01390093403961621,-0.01508508723329026,0.028535650521018967,-0.06090431865169424,0.005315490409378357,-0.10492603447509738,-0.171018975832997,-0.3497676023756723,-0.0814383270916018,0.005970291770857129,0.01563397010052049,0.09298924902836525,-0.11387075456313758,-0.053369607123054205,0.051273548565751996,-0.015135142489469691,0.052793560221315684,0.08128827324564278,0.06442286768230746,-0.023427633584332225,0.04539202301372101,-0.10508316234999683,0.044045342794722,0.13479651012358698,-0.18341368623274282,0.015335854378186882,0.1717381919507192,0.0754397554776456,-0.3386898659843085,-0.17392472676991377,0.03462021146139265,0.13295160089324698,-0.07332028438592018,0.012195435443675736,-0.11281793601073334,-0.4342823189022932,0.004077829785774704,-0.03156033446602824,0.044730356640799225,0.1542061760398746,-0.37162239816496223,0.7649909915030363,0.2679573823630435,0.5078988932696011,0.10138269920166178,0.38121785132290964,-0.21446719205502202,1.5129158143151695,0.243823279934142,-0.0889842880683719,0.07518562891829887,-0.06712906879974484,-0.016435789063089967,-0.07441407588258903,-0.03511641328244621,0.008808942832651193,-0.0037757729754020787,-0.0002248303779861024,0.037499445543662906,-0.007395257124260028,-0.060289406117765634,0.02277887038804359,0.003613289746749883,0.042241098432566536,0.011860324587152096,-0.038128436820175665,0.005895174349684672,0.07730646088285106,-0.039710789336173016,0.009715628974668846,-0.10864480934471547,0.022559906325004174,-0.10579776793941222,-0.04865329477287628,-0.007489662925429881,-0.040645845331555366,0.007515176038951516,-0.07350611460732606,-0.015121673974844704,0.11733477974154138,0.15314398495321274,0.054653002477799556,0.0017317516642927203,0.008137631156400208,0.06638445249492222,-0.005354865586551388,-0.06337669030232708,-0.008774945215331733,0.0014933968846923419,-0.0909286581448155,0.04839641577301508,-0.04765247542352555,-0.01878102147943069,-0.03299742102002151,0.13429994784205723
118.38984680175781,1.418304443359375,0.14819850556911549,0.017047271059830338,0.01088786123540869,-0.025991978997926306,0.15398840552920565,0.02455214908390284,0.02882292508567319,-0.0023723157244395186,0.012531664595513196,-0.0672862425439484,0.06005320446550594,-0.09616861789950693,0.18154284121293965,-0.0768967284812692,-0.02675516899962245,-0.04844806731396018,-0.04141062380400324,-0.07442792445378676,0.010731046806742178,0.04243593026112276,-0.031525385045540755,0.0003042974251016321,0.011109869209768268,-0.08979586599370218,-0.0002089478275416054,0.017296405490318946,-0.006575971163794259,-0.014820732990265234,0.0969807396029681,0.06476717845439857,-0.12237107707896354,-0.04832652087640846,0.02844760494528916,0.04746347286647948,-0.027833867739441343,0.12034649968529179,-0.014004714228951817,0.2656826249054913,-0.7658564640123348,-0.105487554459966,-0.015837129141614434,0.00937447830761369,0.018710800740847088,0.0006748569858927837,-0.09309262719862177,0.16411521200242266,-0.05839078864961073,0.3453227785502703,-0.29601503305257043,0.0255118422075517,0.1451673359587007,-0.038523152990981566,-0.07855372495926742,-0.4552310141880407,0.0119077850919619,0.294426571188249,0.22496058213563283,-0.29140432191192434,-0.07407566432537689,-0.21789762800587148,0.004732780829281184,0.07716992665961074,-0.042363647951100675,0.029522084997295413,-0.018312142698241485,-0.0059791647465711585,-0.004843594723945955,0.045450352627418464,0.04576124724280114,-0.02734345279510083,0.026185601677945418,0.007185269764639724,0.07497605709772193,-0.09098522294977146,0.04773693553487194,-0.059381155155493526,-0.06233645065597244,-0.055894320331825814,0.07566318786431565,0.050603495020071276,0.058678090151444644,-0.04728425496080231,0.011431251609700585,-0.0009650310433891569,0.09209743846221986,0.06947420682520536,0.1245000299574294,-0.00293467702433863,-0.00028565123303069494,-0.015164762787669756,0.019155289846353157,0.019446676807469587,0.017859704454685845,0.027112777195431304,-0.0583288200631037,-0.003309319655674837,0.05624157555974891,-0.02949406590718668,-0.0989742764441732,-0.08289573506461881
124.29325103759766,1.4484024047851562,0.148008799168703,-0.02600178694085321,-0.06295615039620471,-0.03382828428869437,0.09424425399090255,0.017943749380692195,-0.08030338832384187,-0.10216965527137635,0.14856058268273734,-0.09060688051966091,0.011127612161386368,-0.02863673250289676,-0.023187947430869927,0.11437823131023525,0.06178757175703875,-0.044904897884768355,-0.009315903820173221,-0.00046789222204570184,0.02692513282970009,0.0234753498684735,-0.03151291592748516,0.02383065347831731,-0.11683249388152714,-0.00530515313089545,-0.11541583320617621,0.11718156984635404,0.12243525027481955,-0.049534819115614664,-0.09835868846809931,0.05042153792328606,0.20641300279058114,0.20228186327658546,-0.01660478341088289,-0.08431324302653487,0.16112776417883107,0.05215070857610013,-0.10080845361303206,0.19505364603272154,-0.37558716492021327,0.5838551617516008,0.26059852886833207,0.7129900736020668,-0.37919330185557765,0.45843444126734684,-0.2762892092573003,0.6460851711938186,-0.3133629098853194,0.032104900490727686,0.07428714091380764,-0.13638055476984734,0.09778140333275907,0.40033005801837085,0.0724378354879215,0.15834320188323206,-0.08907858013550192,0.05662080907116111,-0.0033344299563214234,-0.03117263600713331,0.06753146203066338,0.0009410719662803898,0.009071029614264953,-0.01707343245016076,0.03170065864277369,0.01675456236934236,-0.023066536501855903,-0.029032918824218136,0.0858121290126566,-0.03387138145302079,-0.12000683084151244,0.0338316639248986,-0.0033126446534836864,0.06589619612160744,0.01002429511324469,-0.023084842706078836,-0.06432383920517001,0.04433422055817455,-0.010654047154095025,-0.05296907963550397,-0.1090063059738236,-0.057174768486605534,-0.0024468700132847503,-0.02059960214477957,-0.0006353927712194992,0.007483280834747141,0.008344690329068118,-0.0006866461127799789,-0.0029699817935836753,-0.041840608444320235,-0.026106059052975722,0.0013355245479212804,-0.0029112056986685636,-0.04845087687343336,0.021593582820228666,0.06566536145032226,-0.0818561750082671,-0.07021358335994904,0.004921597143224939,-0.033865071394884594,0.021835760342137807,0.11679382848217595
125.74165344238281,1.4678955078125,-0.014955417254738174,-0.025437080206087963,-0.08183985512919853,0.04714755799541006,-0.07104971325155535,0.05883465119117434,0.005495900264270964,0.03754118922087704,0.048135484503017675,0.006045739111796509,-0.05956872780235308,-0.16657578503826337,-0.045247690731792405,-0.019029236399750682,0.015822468751351078,0.06946246072233939,-0.01268362617025881,0.029614110404396234,-0.02930369808106157,-0.0410354400023459,-0.07380223187028838,0.06688707641937958,-0.05339124826563792,0.09812930474954942,-0.20527433934578856,0.05730122275022212,0.03256066731917917,0.0861467422705749,-0.14933998663843479,-0.10623333064142579,0.0772039665527502,0.06759795365757688,-0.3972304982427446,-0.19269885703404951,0.04837449560094018,-0.0704057144013519,-0.6339589959724441,-0.02649939124677153,0.1111840812080919,0.09679504831892209,0.18433616737264863,-0.06949703171569419,0.018202030554110293,-0.5416405252346542,-0.6055928351803715,-0.03864688887713381,0.06053926034933743,-0.14706106725889226,0.047894566356075384,-0.0015587629892580557,0.13288496189521942,-0.07093396315718199,0.15858521473159234,0.4025331729513838,0.09998188175674114,0.05244130744878935,-0.0064815197662970395,0.02575760882383656,-0.04865867793598222,-0.0026485253324312168,0.007135662947424333,-0.017057141972985822,-0.07885329257966421,0.010905051075029875,0.04783965641686678,-0.04594302017083062,-0.04897375145634518,0.022889904262169466,0.012086988758484733,-0.00715286430062393,0.003976050258388044,0.016645372208008935,0.026581751933265677,0.04376349941835751,-0.05067561405015966,0.06881487157841089,-0.0064866777334031435,-0.004521962145637946,-0.012992450165261349,-0.12105704725348854,-0.0722118155305779,-0.03442663993370337,-0.030782164930795917,-0.03507803211436356,0.030533663182071395,0.006105548039412834,0.038667082513619055,0.034276931018412636,0.10239720491987013,-0.04330859926845659,-0.030735874484847478,0.0971614384976578,-0.03495746689608062,-0.013464169965719978,0.031316256322811674,-0.032359713426631374,-0.020787321331741854,-0.07663854779229101,0.0401059434023429,0.011849603715473616
127.20954895019531,1.4582061767578125,0.020099924572465074,0.0795598555221791,0.013767832374683537,0.02425792275108339,-0.10810869402416777,-0.008924628076789686,-0.0005253876985939973,0.021426267957526404,0.02159420674583031,0.047523519771217576,-0.05362886293955177,-0.1244805134147089,-0.14032832449096852,-0.05795570122796545,-0.09944092839965744,-0.010865162763752972,0.0291536403985147,-0.05748529065296315,0.002704081096226779,0.01717708798623178,-0.04179335092330143,0.04864872391249211,0.005908977012974864,0.01612408467243112,-0.11227219126962341,-0.020978983642623773,0.03654042334513701,-0.034519883027142616,0.11387585266662444,0.050343836645023864,0.13976797754396433,-0.049051041355572256,-0.1135587380970157,-0.1129535339137348,-0.01110529200752286,0.07601133726796225,0.23062000006747566,0.13543650692195358,0.0428149067386443,0.24591105807788494,-0.13288914257585188,-0.006547182073842691,0.3652252006345555,0.29037574202789596,0.30427045786563195,-0.2823315822303302,0.04020064374097385,0.42495300329361585,-0.664755189395087,0.058200402007801154,0.21455359167461185,0.4371498364922766,-0.03155004171719464,0.017799678884894865,-0.21010194810773325,-0.04076192908291254,-0.043612602499832946,0.35262789691691426,0.1359349900119255,0.2333865049082674,-0.153692479983312,0.07252238998145308,0.038242870170138436,-0.04820792130678464,0.004399528372869823,-0.0016607118614749867,-0.018634296039070214,-0.06598522748759114,-0.007061869663090418,0.06000578465284208,-0.05406266315751209,-0.002193977315898543,0.06308463844772792,-0.012252380045169015,0.04155018892389089,-0.0021331121993099222,0.001135065736287266,-0.030356248750436063,0.00317122662933203,0.010129118851219903,-0.008065484845050803,-0.016633276632431554,0.01125093160272743,-0.015511625396515509,-0.04375759977525741,0.0037120276652546037,0.06099738972763846,0.006691450194218892,0.03813323938523315,0.17257022433864547,0.06023593703892835,-0.008625918776693725,-0.05722561961781811,-0.06446784073019497,-0.02487688537712754,-0.0759950842229089,-0.049631564635255684,-0.03489335279067615,0.048787711047138686,-0.04905562162399238
128.66775512695312,1.4989013671875,-0.032176114349424544,0.07889976676001399,-0.004766949226626344,-0.08107022412028839,-0.09867027853031721,-0.03196258591879303,0.04414741155038118,0.0786727809345349,-0.05333004727860803,-0.00015288256149762868,0.046355970003570675,0.03051958487570762,-0.005885338681679349,0.059293004123508075,-0.005399895191876089,-0.06273939113816503,0.1035695020294966,-0.008167869412500181,-0.005844125777387254,-0.02802752597265432,0.0398224157690585,0.0740040278933733,-0.05002748951553313,-0.026764033505074,-0.09784480631919748,-0.0490514102901482,-0.10879937412349072,-0.11720438073308721,0.09097091277863448,0.03224600547974586,0.0554625450001725,0.25001981548518315,0.23409838250585313,0.3614611584289762,0.5222271732008855,0.6550114118738168,-0.3152165202537983,0.022691036180745215,0.11606550393252167,-0.2786166103378042,-0.00448944743841722,0.1444605391062782,0.23216201148624782,0.3024422049323345,0.02422080170835436,-0.4151433649034308,0.2662695569195022,-0.043597743974916496,0.13821246887821123,-0.33072268911654995,0.21710856429887504,-0.5153298256360553,0.128820544596435,0.27758384519431506,-0.025029633798735088,0.2744875581612205,0.03446586285181849,-0.007142110693061631,0.10934476417030697,0.008324898444069202,0.026232005610784887,-0.014804065033392717,-0.006525622771086056,-0.021003649090908474,0.006198732217571263,0.009571204616104325,0.04920779689382902,-0.047651876250818084,0.009050841169306972,-0.04608843627469876,-0.033555650488011325,-0.016673159366703758,-0.038678311025872755,-0.009194258252253715,0.0214436007008271,-0.02599929060261117,0.019431497098922345,-0.0426935222497888,0.04118090799953174,0.07461071797509908,-0.05180855380876734,-0.0012930239898165524,0.03773616825169828,-0.10614039777698282,0.00422444583514747,0.0013334966279355518,-0.02701382545853235,-0.00032439175966003306,-0.1336251032158078,0.07298854680540613,-2.148201642047931e-05,-0.07898168352932158,0.01936469066512371,-0.08443123335008662,0.033732837517630884,0.013378509098717156,-0.0648822690062039,-0.04986436256100239,0.008727468300484032,-0.10890911852156854
130.16665649414062,2.9764862060546875,0.04808170341038215,0.06849413119619492,0.014261272562332375,-0.0026855148992268535,0.00885794163823811,-0.007424204784455125,-0.0023346643746213662,-0.06957513531213252,-0.07162286126349107,-0.07396929509566562,0.010034517746796293,-0.0069104237481681175,-0.020893517310860074,-0.09872663995509709,-0.0248033480729562,-0.09166020071035297,0.005095673329890962,0.003445923517918075,0.0010572414538768818,0.06600552165377677,-0.0030474496453936906,-0.026692535809707495,0.09106971633454684,0.1333065152009688,0.03225731438684534,0.08478700185700283,-0.13117977764273886,-0.07050790594026767,0.034250393862203195,0.06780075434804085,-0.020500279484461408,0.12737313978084586,0.09975908049362915,0.1713247387067303,-0.007927933217009298,0.1549301984701009,0.4156039070738951,-0.09721202347357555,-0.4340827825339867,-0.020588073310214644,0.21953813741044761,-0.09852773408431556,-0.05226871709998793,0.11367064489532994,0.002181232026558225,-0.4817695209069783,0.010858219082678526,-0.6436414323274862,-0.03228782102183649,0.6000007853421089,0.3359519340912102,-0.41768640575824056,0.40985093944052275,0.3635072204013825,0.07594062967205126,-0.06373254282491805,-0.026462334366074217,0.023948825019428664,-0.011354465988733548,0.03611382656938196,0.07723193435445727,-0.15707548317856143,0.014960036528767264,0.0919012774955273,0.06633537752130564,0.06581325673463294,0.032471772261543755,-0.019780321882505197,-0.0014714060033271942,0.02751038365175215,0.048564191347132725,0.016552355054527887,-0.04065274834577658,0.024298419391016512,-0.03613500525026169,-0.016306631285069793,0.04106011512835842,0.04630643290035913,-0.039136112318863776,-0.06105915909099775,-0.02751292577515667,-0.11039026577708828,-0.051513237585602584,-0.09766428713624327,0.004840600157612489,0.026458521026343843,0.047477664149049026,-0.19220464214568753,0.04134496562849576,0.038477547680960435,-0.002654114951990805,-0.05947024061343732,0.06323150375134697,0.003734040560957951,0.05550622834758039,-0.04235140852941582,-0.022097510701486238,0.052987712596675736,0.04362402496055242,-0.03523404463834655
136.07005310058594,1.5681915283203125,0.06341830016347136,-0.04188483163191609,-0.03960809170819997,-0.012803255212647248,0.010497808604896063,0.11330347898013417,0.1448148431227893,-0.009108876026763331,0.009738611592098614,0.0210438779102355,-0.0033897091337216695,-0.015300042088924786,0.05195443208382658,-0.09340662205286099,-0.025933716527253556,-0.013388350400953689,0.014405963409835996,-0.01738398325937943,-0.004422878707421404,0.01056054748668823,-0.013983750043839947,-0.04386278081122848,0.310418225623323,-0.003372919485226559,-0.4425991157254388,-0.005611000299695714,0.06934898385787504,0.4158482278641548,-0.06126208405652033,0.044249869404714454,0.20263097536521046,-0.3545486849457041,0.0819095882991694,0.3508341186102386,0.10824378443790278,0.33677392033314363,-0.05954849328231625,-0.06063462201258299,1.2704911772741498,0.5061252913299336,0.38822316922407835,0.2557452986666716,0.3411964197970827,0.3918890226075713,-0.11674142849151498,-0.4184246452258158,0.09249446957192135,-0.18461318381430714,-0.11472228792258965,-0.13630766608080747,-0.17567375043560646,0.18678478009638333,0.14400060534867165,-0.0029526832126476566,-0.024113158602991156,0.0755255744086841,0.022297253620733475,0.005725659645148517,0.014388114431519421,0.03094670290976765,-0.013482684438495847,-0.06104497011309685,0.0063179026694723086,0.09093510336647162,-0.05966658408639756,0.10314175941408665,0.13796348171048914,-0.023387390412000594,-0.04432841910675368,0.015616604158193758,0.026324620882944818,0.03905766161162995,0.07297578620743919,0.03291052561627048,0.05676041429930882,0.01802779611905777,-0.0063935064321382525,-0.02292196689943561,0.00039209099463348007,0.010447659031583532,-0.00019621061105346612,-0.07583557087115926,-0.003881188726596029,-0.030068319301425034,0.05187614051438637,0.06440854536506738,0.01149570684942438,0.0395890621300225,-0.005458345099493624,0.00032113173340112005,0.022026373015637177,-0.019156441479691724,0.10594897251605008,-0.04865570189719559,0.09611049303639731,-0.03059470199247654,-0.0365082252687342,-0.013467261368973837,0.06840524902044733,-0.035624183934158005
137.63824462890625,1.5077056884765625,-0.02526237284799629,0.025842998817903556,0.09782392564672111,0.01981081219351029,0.0329945611424836,-0.06712931056122616,0.036675716110926564,0.04220143104270779,-0.02152500092508173,0.1144905268001333,0.06748486564774966,-0.008271222373445268,-0.013975686616029067,-0.06458955266700539,-0.024495276153089388,-0.0019279426661846987,-0.036748979762465384,0.013387955592591476,-0.1071543911959445,-0.0003290306368555447,0.008448848747298707,-0.003322708146463184,-0.010802608844016418,0.006256524315883968,-0.04637152126120714,0.06704387071432301,-0.1523754257111303,0.0024767893984851685,0.22066894847164367,0.1629629979024187,0.08348874143459795,-0.0064023946029808515,-0.029523832984053033,0.036877792373121235,0.05327592914808313,-0.13010346053277888,0.05620479988289006,-0.046294690920222877,0.11838020800444285,0.27916867249927313,-0.25750952866993854,0.3575002410969501,0.5462126067772382,0.7623362093924189,0.03785260389097118,0.56917523874546,0.5120594635337724,0.012299967094144057,-0.35600498595490715,-0.14525294007446427,0.04911085215683733,-0.3841505039223136,0.39977579604623753,-0.04029233380822504,-0.46774125601840283,0.13175826981566574,0.10068352358850045,0.046771409180814655,-0.0075624960207812605,0.051315646539897036,0.023821461420834193,-0.048286018025988295,-0.1278855431430207,-0.058375659612326776,-0.0368562486916227,-0.02845225596423711,0.015441169609659666,0.0036810073241782763,0.05087664501728237,-0.03552921310807018,0.019109146842168103,0.051986234871535725,0.01507500481876843,-0.045565232914070955,0.03057701320581303,0.009634215551593156,0.04543687071793229,0.03156050939067557,0.02535521011637999,0.011558841202504819,0.06685041564320778,0.058823164512117235,0.025641990254560713,0.03019364850000046,-0.03238948132622363,0.0861097829623985,-0.028604412379466163,0.05638939294721047,0.030027698930511243,-0.016105530152803187,0.024957331016638898,0.013398012201523701,0.00721551263300782,0.06117209749342262,0.017988624458564226,0.03916345748030642,-0.016421488975379945,0.05083995688306149,0.052157939050881834,0.05785310295619541
139.1459503173828,1.5388031005859375,-0.07485870783127818,0.013541977164186605,0.08241001025468382,-0.021046138806984645,-0.019543776268107237,0.02816058252591062,0.013287979753184445,-0.00037804850186630684,-0.07010022380385272,0.0020772113515151046,0.03456520669336416,0.10753205403589347,-0.04956308994093822,0.04667647703967513,-0.09340409329698972,-0.04512143698103606,0.01240883033827074,0.015205082815642023,-0.0002825890486080247,0.030893294343130692,0.03875523614493785,-0.04395623312237525,-0.01845843600362891,0.03202314504524085,0.008657406402373363,-0.08279874853450189,-0.05083425320334657,0.10971368495617637,0.07029518903742447,-0.06471720038473902,-0.18856423386817206,-0.037838060076655106,0.005686204593140091,-0.22212553640206045,0.052088171912722275,0.33372139640401577,-0.059550746676257385,0.06295290869632822,0.21269943993490698,-0.37860772566043954,-0.1881741132555183,0.20384279748055867,-0.43709562253582235,0.41061557036351914,0.29783495525273906,0.015826390845465832,-0.16883686814797963,0.06590727813485242,-0.13200456439391597,0.19033996155945904,0.2839453579749639,-0.07376454621903669,0.41278645292124455,0.026595466805480042,-0.1776185624520329,0.19924264817585757,-0.2693042867159028,0.4103228947195239,-0.15874566326386397,0.03233009701993715,-0.012061507163788811,0.006900318623385345,-0.057751205984758955,-0.056608783347602956,0.0008457117851756735,-0.04882875865207873,0.01888702093973976,0.06641147702390546,0.014035836012688188,-0.03713271113752747,0.007356763202608949,0.04993841390149207,0.009168655903199041,0.02812775830278863,-0.04775582018717525,-0.03238743034038719,0.032359340067573045,-0.03312929017961504,0.07773517061545158,-0.08453604486529762,0.015822136265453854,0.03426751493418485,-0.02807016966610233,-0.06047208045167329,-0.11719085516309088,0.11720681484623108,0.024588157310417427,-0.021175790749254273,-0.011799966343924212,0.055566243645272226,-0.0031577569498627773,-0.0038142741652517163,0.04110237030115139,0.05008735900161851,-0.00043259885394865297,-0.02888717517592987,-0.013530467308959427,-0.04302695442113429,0.02630205115764235,-0.03932104671446018
140.68475341796875,1.5381927490234375,0.11182755342748903,-0.11523415229479,-0.12612136088085496,0.03594225958714426,-0.04878779242285522,-0.014810019664476598,-0.004196997829206711,0.034568250383057955,0.05765966169633848,-0.07119641940823747,0.005665862863483966,-0.10587913241848575,-0.029251615301648277,0.07676027464403501,0.012552887111130773,-0.07162067579821535,-0.006622650582226766,0.08977747352126611,-0.03336442557729807,-0.04874652488953407,0.08282156100603802,-0.022082415550191203,0.051461552602369405,-0.0627697455649119,0.11066371834149175,-0.013019850908221645,0.12768818132118961,0.03324742214413579,0.004635941565503954,0.07301806059516094,0.09457574290514977,-0.05609943651535079,-0.03763647417756804,0.17297558352339704,-0.03675864597803356,0.2030612342608727,-0.1817536981881811,-0.08564493740029812,-0.08444306712213502,0.17430078752007594,0.13359176847246995,0.15196040643506845,0.04097102549318278,0.00341194515641712,0.23454738697363212,-0.07099419506092847,0.47877146971915224,-0.4480593029626999,-0.08581289870287427,0.08583460313758862,0.09256472976681848,0.01860859584675787,0.03795571149766945,-0.1329741103748314,-0.19101842914323433,0.22905793590049037,0.08961693141434598,-0.022310809380491937,0.0860444097073898,0.001222187087244253,-0.013793563250813233,0.01432934857884085,0.011224253288261744,0.022192191017272146,-0.07597951625888566,-0.01912009678128533,-0.0002938623536303184,0.048337360827134065,-0.06515001205729339,0.0814500306930955,-0.03314849718076722,-0.04290004138865241,-0.0013532397765084817,-0.0398256763924065,0.05000332207637216,-0.000907550261085216,-0.03125332251463649,0.02585219355444971,-0.05617781657112353,0.04060635712367974,-0.0012285423817589196,0.06130749960942378,0.017343260934185967,0.07602648796124707,-0.0661722960734319,-0.004194919161292689,0.005950049120679572,0.010835543082776986,0.05031072543088301,0.01988890665269654,0.049932693690785096,-0.0037187340491915285,-0.03691683871269881,-0.005523026638111405,0.009701816939436001,-0.07089426317844585,-0.02364750806309451,0.009908572860446503,-0.04367091951019855,-0.05075046014371247
142.2229461669922,1.5382080078125,-0.037345644554456436,0.2821885254620372,-0.07842219279737418,-0.01191797687857693,0.023536701227040387,0.0036836793987313375,0.00364054474053462,-0.02254322788766883,0.1214385357949833,0.0969168009016248,-0.003197696315067569,-0.016407577172945338,0.023113442936791295,0.010373257526263823,0.047494690764520744,0.061823250199934024,0.0012348580637484888,-0.0011561060730862886,-0.023084207836909752,-0.016080804623693754,0.06598966638774593,-0.09780884789184299,0.09720003922514386,-0.12225276893544447,0.037625900299299214,0.011017749936186143,-0.06995668465820212,0.17030353350491118,-0.006312830756779301,-0.15541747784214152,-0.12780950486266893,0.059389842912864046,0.08728450328104169,0.2729822477052642,-0.035678415900749647,-0.0986400508860999,0.034982083469727906,-0.12698381876644282,0.18754298938834774,-0.14894054060758444,-0.11972862389302068,0.6962502492304471,-0.16853052503631957,0.01045089376919428,-0.1119071062217436,-0.5006946509030561,-0.1808635621232076,0.13595772453857258,-0.06268899605765012,0.5466615491400442,0.11102927430070424,-0.07858156710726502,-0.34931889420751694,0.0038170946512762153,0.18343526588269105,0.2933118086266911,0.1799900631301484,0.16983394749785116,0.01791571700228881,-0.021348360078348505,0.02096145184447303,0.06366888603325103,-0.014204597492976019,-0.07574641282929455,0.10719369690245918,-0.0021151157710747113,-0.018059193775777277,0.03999524192229458,0.05626131544144723,-0.01042647088289643,-0.01795349389971776,-0.01847916900459386,0.033284811657509294,-0.028597586695155816,0.03571341333638324,-0.0222167230106528,0.0779764830057357,-0.0073931116597189695,-0.0637860512473317,-0.02904577166782388,0.03529434373297868,-0.06917040691787778,0.014995417237957602,-0.0693888938752871,-0.03488930000855465,-0.011857869896352331,-0.010498373107958512,-0.027790209411610336,-0.017944036418128303,0.043102199775609376,-0.0034930859481404107,-0.022358636921472753,0.031704382757600326,0.0009764755840967762,0.021275647813185358,-0.0041620062421233355,0.03506099975491117,-0.03706481487386114,-0.036827161074522934,-0.01587829242706781
148.1758575439453,1.5486907958984375,0.11355640274370571,0.13915518340277272,-0.044066870801743985,0.0405939054788469,-0.0810257996299222,0.10710498028923303,-0.09866489441480865,-0.03468377054459944,-0.3105393813620044,0.28487814606747186,0.13242268585045847,0.23802358237342627,0.17182763821872066,0.30428381738433463,0.37268810303430955,0.07178895457429679,0.021340430208799523,-0.12497765147785429,-0.11184875283033759,0.027235275130687315,0.1258266641804048,0.0009879597035310748,0.05376185338172469,-0.005156912281565387,-0.02878893226210961,-0.03425774006326002,-0.11495292693402571,-0.09251870463343977,0.20078028739573747,-0.04693900366326247,-0.009572065792816447,0.0672853091636064,-0.04673609004670197,-0.32030686934099056,-0.2609974509269892,-0.28112150536011477,0.03497174339273305,-0.1276976407025124,0.06323273161872639,-0.10442264453733414,-0.1401181758646171,-0.5055378589906794,-0.28003635968802615,0.18896154530353954,0.4502525379459216,0.08095696322376397,-0.007292022051942471,-0.06161043712085884,0.6340308394279063,-0.3864249422223177,0.10330476099968174,0.7101146836154776,-0.08804243744666199,0.23156364082990444,0.07908221471541226,0.0007383392663675081,0.026422858286186138,0.08932145652586941,0.016046599105466585,-0.024204868500317098,-0.0009878667003175058,-0.014257084777706121,0.007966894772930472,-0.0752096872612416,-0.03402270854705625,0.04670185354541731,0.024514063929894726,-0.06959222892473675,0.03148246925776079,0.05485251671656203,0.024115878714496213,-0.04243114293064607,0.10348155719064574,0.00737208432404032,-0.05833708356366207,0.018661963079469174,-0.0025440974859360227,-0.009577753289126434,-0.027234860888664284,-0.03753806213429306,0.02029540821233581,-0.006497338495709026,0.0608915516643216,0.0058717433428518515,-0.006958314115368569,-0.0035113413218006125,0.09542133292644842,-0.022135676554616845,0.0023122415261781337,-0.030594475925582915,0.015464864414087847,-0.05052280426153492,0.02916920189491538,0.0004881971303457673,-0.018715869706659987,-0.11404221148743839,0.032408504296049495,-0.11402512871403234,-0.11496184071297144,0.026863608358799765
149.72454833984375,1.5283050537109375,0.03644210903215179,0.005101323659352237,0.02956849214849519,-0.016016821412807705,-0.032458467300128725,-0.062429232029085305,0.06265330211955215,-0.002454687054389636,-0.04631555735656618,-0.02858975569415714,-0.015761348676078247,0.09425603967901916,-0.0365363769813028,0.006596617804714268,0.013635486157305497,0.0017632334938613805,0.005088311010530817,0.002120336360707989,-0.027791455698218222,-0.0038149445587674765,0.07265510184211862,-0.01686205427025589,-0.06571157859709266,0.07674155940748158,0.007227361067564955,0.06486050160620936,0.029135371356221598,-0.09323652797673132,-0.006916495849513319,-0.01071334607412263,-0.029062002933347205,-0.12830010403685602,0.008126942535661472,0.10183453603746527,0.2720833620916863,0.03251404176279599,-0.2413203537956186,-0.24842308130185964,0.24494257680910997,-0.2078008461587703,-0.015275152381024115,0.10448181447293486,1.1248824558927208,-0.14087138875837613,-0.14005165639618805,0.18116784762681626,0.7221436333169772,-0.142186464836207,-0.2294103823599289,-0.17315078953698038,0.36794156997641514,0.2358210298588938,-0.6370096548711777,-0.2561616720823147,-0.11490288989229926,-0.04000367574936453,-0.03003469916138454,-0.010962002160731066,-0.17729091148064627,-0.04832099685245526,-0.02196576468980914,0.036034154051980995,0.0015177313883994292,0.04831499515192694,-0.02396416792116901,-0.006653930546489776,-0.03811714112818675,0.03385332742758184,-0.016926338110882323,-0.002803636202830237,0.05663780966307523,0.04532404951492003,-0.004733868362358943,-0.024845369704521034,0.021967552573140287,0.05726485132594547,-0.008119511887726786,-0.051817247886770695,0.11393783387415601,0.01720496440258723,0.033995442634788466,0.00022136969514936506,-0.053813049676719356,0.038387253208636174,-0.03156723213887246,0.01711058138351501,0.02045295440158989,0.037834207087136675,0.003073991176243678,0.02217722850290296,-0.0029670361055008834,-0.033810219354224555,-0.01084376002463494,0.03737991772060999,-0.005985927705522176,-0.014483502229478064,0.05225329233729954,-0.026948838046418823,-0.012686866633961513,-0.11077273233608521
151.2528533935547,1.5281982421875,-0.10512875904402244,-0.07017534905725269,-0.01183214111022055,0.07765282646381601,0.037226715480970896,-0.020475158880117472,-0.025849596826286556,-0.039922152712488945,0.06000046771610411,0.143607446487564,0.014008026045648464,-0.0022052944216101886,0.20260324443039257,-0.05535087730184101,-0.13951633604439984,0.14882895874058183,0.11898595489839546,0.06685937643893353,-0.03825815710178163,0.01719228330167681,0.032357549347146485,0.013842219243683247,0.04578122774220563,0.04615809036977351,-0.005217722293492573,-0.018267089891805543,0.009107190690270396,0.07567826433302205,-0.06528978949413083,0.031039731429838614,-0.06086552904560204,-0.14382318603781571,0.12171561930658878,-0.024004529040021563,-0.5461082427563727,0.047158405100013776,0.0900409961015884,0.5822629285295745,0.46138325917141915,-0.15036818219232892,0.27819169722685394,-0.24460067628684898,0.3605413995006082,0.9456864775563119,-0.31717773552931466,0.10501564672054134,0.03919238990762988,0.0821571781451494,0.10110850923659112,-0.3468498528704695,0.4188043869270681,0.08842484643922234,0.180279787118227,0.07596376294241312,-0.07595273686596701,0.036775106287051364,0.04083291348640641,-0.0018111041145037051,-0.0069315830402464605,0.0018023278252029282,0.09059300688428067,0.005288086513799582,0.025398162408208167,-0.0799268152864134,0.015506959894921075,-0.035800091418617785,0.012711915884876655,-0.015895264748198506,-0.03958686671319072,0.0457177851519802,0.026203634758494798,0.01527610635195633,-0.04064554183728942,0.023374369140289,0.06891748002245514,-0.1173046902736205,-0.09374358238449121,0.009564414569672962,-0.009955181879250659,-0.02939161535208696,-0.06280509991975501,-0.056474853804902345,-0.005398226731308215,-0.03332417147842062,-0.040671944209767275,-0.04149653738165699,-0.017131566128467262,-0.013881349444027805,-0.02376378013017818,-0.014908046329687154,0.01465542981620146,-0.051522238887570924,-0.011421043376117226,0.005648415468275783,-0.034065466181241164,-0.013855939379052561,0.02405262223479925,-0.039909680151811726,-0.009066063870539466,-0.10417973007104586
152.7810516357422,1.5377044677734375,0.04955968812608118,-0.018886337671073738,-0.07834847646916683,0.019996001778675165,-0.02141089688055637,0.019635036260475417,-0.06792360889603327,0.0027100768254078866,0.0054983877147881015,0.040195364536367226,0.08371111232201778,-0.009079252573424929,0.07222577555250019,-0.06970309224110892,0.018733835256728396,-0.007569592482446492,-0.05850610226536946,0.039467794100648344,0.0556977017770714,0.004554948918157359,0.05340238521612425,0.1089997644929507,0.006434875704788336,0.04682890377450585,0.058526012809328995,-0.03738002661706816,-0.1633159449869525,0.25021758742555983,0.02946970815814029,-0.03881812855899502,-0.106458251902428,0.08260612258317944,0.06224444998554123,-0.09863782135017808,0.27050908345805064,-0.019936791842646642,0.02760743771469234,0.015070546191225422,-0.35854314833649803,-0.798483168856623,-0.15628375487545265,-0.9058038880671937,-0.7089788017070726,-0.1242103848531006,-1.975378647320815,-0.30076547377986396,-0.12140045656492435,-0.10780742082827,0.389284677085898,1.2662655135850203,0.01764050589482568,0.2653188751464974,0.14391288203321942,0.05836112836576608,0.0664924763496155,-0.09128065438366136,0.0016637327077117237,-0.04961673735191018,0.04880735533590381,0.14324329377980122,-0.009964785189132602,-0.07322859243396516,0.03606419365591577,-0.010494585296456672,0.016794256500609075,-0.07891641940770625,0.025421720466091452,-0.050500687773990735,0.0012926626434805579,-0.020836363859548374,0.046217543375208184,0.03350889038483887,0.073459128979695,-0.016049252334572415,0.05537893901366317,-0.04257909603837702,-0.010028803349337484,0.10612699942983284,0.003078979261789157,0.019061613010184556,-0.018730628290699727,0.02061381343051964,-0.035209278891309106,-0.022488728063122274,0.014754639623702824,-0.0023198330279660395,0.01823389838637063,-0.006413029457107032,-0.027857313749185226,0.014215077678731907,-0.007932119137980783,-0.0016994619054693256,-0.052904452322724636,-0.024473988754736775,-0.028676613672475017,0.06700341656217394,0.024595751960026068,-0.07098449850516267,0.04650600505108506,0.06702401952095048
154.31875610351562,1.5189971923828125,0.07267303839846531,-0.02833016531418601,0.017365124340146094,-0.053790998251888836,-0.020921420340854067,-0.04310809702030317,0.007279583660116537,0.048456072703904694,0.042375248845390956,-0.025422511216335236,0.09946808322793889,-0.012584886650659337,-0.054980190359737356,0.02647515636743686,0.08921153124400834,-0.005075542630814188,0.006188149055339612,0.06432301833377498,0.06654505136674611,0.008986779280463476,-0.03306378695679309,0.05316555386744286,-0.07328820630105443,-0.030009746606470555,0.001133188557604206,-0.02794164323998094,-0.1153230627088839,0.06662677212193474,-0.06899541438856646,-0.08823027983583424,0.024640428526785774,0.0220620628283434,-0.12215837316553822,-0.15956549976249493,-0.2640680627342724,0.07825825808924981,0.12450160542916759,0.7479328549647573,0.135312024244492,-0.02551728537479822,0.04597035144630545,0.2100108577835901,-0.15442070534273616,-0.16439540682493722,-0.5414298677876793,0.9132619491684665,-0.25369541675928986,-0.7397548446530098,-0.19519702718547488,-1.0501294666622314,-0.21651592054808555,0.034373983349093196,0.11630837871599103,-0.022309290599938192,0.017563073025401277,-0.21424068251210263,0.15483611667669503,-0.006065606018593711,-0.039311145396098146,0.012396725795531124,0.008601502301109728,-0.01645249109208354,0.09067663518345963,-0.0037818893944763384,-0.01786058214765411,-0.07097524465259307,0.08697762046658357,0.047587634897356325,0.012544773259300271,0.11908776384001811,0.10200661057619026,0.05043175238871812,-0.013797287811629921,-0.010978290492650113,-0.04454584651491222,-0.07969588728764519,0.07123546347339808,0.03456648014785299,-0.005419090271865462,0.004109958564303155,0.01858983382977017,0.07396616325111564,-0.0097272494432339,-0.06154715325678476,-0.04423271032573829,0.05586200015179624,-0.05314970866794672,-0.15035475253215438,-0.08023891480944345,0.011019036129303723,-0.03306361370010784,0.024907241592154912,0.0004250449427166996,0.03614228924113776,-0.0005617935735477935,0.026236398027960333,-0.024404977064263787,0.0251752473187588,0.07259116019428156,-0.09690121730090018
155.83775329589844,1.6378021240234375,-0.09026991361579559,0.053789731670495645,-0.026088420614155065,0.15431450186007495,0.07416548888682589,-0.03123400370801139,0.046008467152802546,0.12021758781929372,0.002111379563269336,0.006014873336728195,0.010108930883902757,-0.08007433091103801,0.023461389157737437,0.07362991663888525,-0.07974063477736847,0.0020112846134187207,-0.015822620845297307,0.1341942689670427,-0.02938509735016548,-0.14822064190981554,0.08804821409651167,0.1411115681783135,0.41002048210609154,0.08030885280970045,0.00787102936771056,-0.2137668794188965,0.005505806996790203,-0.029782485168781823,0.011004347909024492,0.06203113239131647,-0.10750329156307648,-0.11547356153973291,-0.059792904037820616,0.012545058398474432,0.10709156195546173,0.615860119796228,-0.22791861184055348,-0.1868416496730091,-0.15995722050699177,0.2917668375473645,-0.07180279415670698,-0.19747932629147621,-0.31729955732136933,0.4808733095119881,0.08968319022700381,0.4387180267946708,0.32082128451225944,-0.6222530113991743,0.0947849480662589,0.05903984738225923,0.1393063695088543,0.24523988350129305,0.1105013454107765,0.036649671442824404,0.10433608259428305,0.041187240517013994,-0.09913024403702297,0.15912557033013097,0.1499470728372139,0.03781312306058158,-0.018877529802910686,0.0041145558472565815,0.00550811165234074,0.0039436745203871755,0.015359545206316726,0.018181930208246676,0.10374832734512057,0.004317392348658323,0.010939905353128847,-0.024324752546872268,-0.09812672320182608,-0.0513184930668478,-0.022294716816885794,-0.029696579400186114,0.13663177752742642,0.002882903436220263,-0.019913059637448202,-0.027919189632428648,0.05695110843295459,-0.06308193636211168,0.13475213027797672,0.04698718315042385,0.059005156748043804,-0.011032224968381677,0.04267270791078181,-0.021427197950334643,-0.05474986616987581,-0.04645947747895172,-0.05641575605428254,-0.0015852657208330397,-0.05989200595330585,0.08936369651159408,0.082596899330334,-0.030731852855910225,-0.08689706672243669,0.013489987637218467,-0.20484100578748882,-0.055945769837391704,-0.11141165194668215,0.043128170002757246
162.12054443359375,1.507904052734375,0.02543861081623502,-0.03488332999236566,-0.012523228653429024,-0.006927442680655884,0.0902664300999992,0.06105688616548406,0.07801311839500433,-0.025178856451391125,-0.05312554017220061,0.06421709827612546,-0.07112254002975063,-0.0990991960796154,0.014909420848111187,-0.04965572792747499,0.0015776547918044592,-0.002422140447481758,-0.06692817788212477,-0.07306844731425736,0.030305965219008246,0.05129810007730462,0.0553431957418459,0.0077458632789102096,-0.0034528417929425917,-0.09634480407514845,-0.08962531807907502,0.0006890472045058028,0.1427154794901544,-0.06306978001060577,0.20794806901784244,-0.3812011904104564,-0.10158472942457522,-0.025755249835583145,-0.09044524827147513,0.05036338417080177,0.05177154696498926,0.008137260816841532,0.25460705938591804,-0.23087055916831312,0.005929193331981667,0.10433111454373616,-0.7536701589837053,0.019159794269524077,-0.4035688129607511,0.00532841434907378,0.16968690759317262,0.38147958270208354,0.3088051313210803,0.13310334808226465,-0.22475422855027186,-0.3796007133332452,-0.05665478267238094,0.373289424513836,-0.22732964994017368,0.553549718809264,0.17302611309861818,0.11060563329441032,-0.023908856695724203,-0.28007242957420825,-0.09057336556006192,0.07262141203694296,-0.026874535675060807,-0.021373881093969045,0.06865446628978145,0.020201673366592128,0.0246096251366454,-0.09657222321589769,0.053540579544391266,0.02833023499196284,-0.07590560739626999,0.1071059546436367,0.008051424636969742,0.06841715407587938,0.04039180133378719,-0.02354310893110872,0.0845459796638052,-0.041795229999224345,-0.023475021582691418,-0.025772416568031576,-0.10249598377231418,0.11058469635172094,-0.015103963784852419,0.057148222511838105,-0.03389920126137508,0.06792590427572671,0.01927991518367911,0.0933280212002721,-0.0005408379496643327,0.03764516994009763,0.1203962315261562,0.07590251386767793,-0.016326458610818877,-0.00950510235210067,-0.013968108572664794,-0.06069870283565257,0.016684988429811847,0.0025884747419256393,0.06399855524437498,0.07768010072844302,-0.019723714922506668,0.0038651758594861543
163.62844848632812,1.4989013671875,0.011726779896567178,0.06479555478241211,0.037900719181344855,-0.047229917699147576,-0.06144389951006455,-0.0572822532818438,-0.0054287897044013045,0.01168899767868722,-0.054382370832000225,0.040194338844960716,0.02602898987820649,-0.04141056822157142,-0.06357243102164964,0.015743093202521014,0.04387753466582933,0.024980949546111825,0.10527301296475756,0.06296750595096356,0.0024115936782500057,0.013365422379594621,-0.04906520459524958,-0.05937634204089706,0.013544493040145773,-0.06268344567880944,-0.04630672828069613,0.037198025081471194,0.22892454110468186,0.059432543969596144,0.1761328042332519,-0.04042472762618492,-0.04063612190343062,-0.20695217073731975,-0.15433357147228952,-0.22893642052288718,0.06271768247546647,0.11090001618268278,0.23730928305307813,-0.062041817174161684,-0.02330923023330789,0.03954924920077424,0.09969267685301553,0.631492764240332,-0.32692048907487814,-0.2918892560424714,0.19430826241351828,-0.126099992248023,-0.10389745237141915,0.27582551253392906,0.27232309744142014,0.6761037527637723,-0.2600620967749744,0.07390904597460513,-0.052992529591845666,-0.17326816335786555,0.054864539640530126,0.029151349077395833,-0.013574730320664717,-0.004703440009073718,-0.0019729400284824276,0.00649540289340092,-0.0555450472784033,-0.013222672532417577,-0.01477208371086885,-0.008245450088564928,-0.026398206738585107,-0.023882704601385987,-0.06154868832346756,0.015285410176970082,-0.05278784700346557,0.07645699039887231,0.015586338862643873,0.03551231111238168,0.005159203619501557,0.022476953837805104,-0.04704426734975866,-0.028919851975538317,-0.01772556684479941,-0.06841426253588366,0.007891657854418348,-0.01704852476626216,-0.032458722533692745,-0.06275143061969005,-0.004881382846218862,-0.013424172992332398,0.008219489320590662,-0.012457155252353897,0.024733500572983912,0.10629784908815369,0.041380969825571594,0.00736704068218269,0.06541454321358134,-0.016076290234403552,-0.02524960160318216,-0.03533325466294379,-0.07439955499197735,-0.08719244823377803,0.015825109092364106,-0.0003149546849855276,-0.02976550635833622,-0.061910879288363134
165.12734985351562,1.497802734375,-0.0564366134995535,-0.013579162515380975,-0.039127879332895674,-0.06301658607706545,0.12105093473980076,0.00031204163979569265,-0.007291997272790078,0.08691161574481272,0.12650874709915305,-0.017572266423528247,-0.013121931023078653,-0.061459692172963994,0.05666239850962199,-0.0032901627896728632,0.012963966471170825,-0.09759594947616797,-0.004385444665411151,-0.002285887551591379,0.003414574743916992,-0.022860766960393283,0.039497825434225975,-0.03537267499160354,-0.005809735336900337,-0.04145800406658893,0.12706140542187053,0.06406507857224156,-0.006558301009685637,-0.02942123609714503,0.13296850237253469,0.13986343240797788,0.06924036018623123,-0.03356775867095217,0.13729266966298959,-0.11573542748167111,-0.038381643668198365,0.18078116136315153,0.1371946192894619,0.13328055103302738,-0.025925990011294142,-0.19497721483929453,-0.11291454455591092,0.08675179531008775,0.09404464347545685,-0.6122396834121295,0.06433510057181438,0.7496972857144677,0.5087806491277762,-0.22612932868146848,0.08463177610706034,-0.00725842508821543,0.11798682190378962,-0.0029121123212785607,0.2636244095699243,0.6415285607262184,0.41735150412976,0.47151046568777966,0.24204321180335842,-0.21054147460481298,-0.02135737552515319,0.04702992030538441,-0.1501322425642639,-0.04892955026099208,-0.10365469481931568,-0.038128900634433686,-0.005534912838939216,0.00013113916858387207,0.10026976453646398,-0.05016249503649271,-0.055024321055688656,-0.05617724738302452,-0.01349778391197658,0.004821354114135146,0.03388452383034154,0.022656234416583633,-0.019185220526259573,-0.002013617999385514,-0.07695779742997738,0.08226875341363454,-0.045689134028702796,0.048932539102125354,0.02307043275145044,-0.012949314050870936,0.009603485301981757,-0.08098576116303803,-0.053466723166152044,0.018534945462702335,0.01572406462736778,0.05216486232924419,0.10188925794220124,0.13080506385231291,0.00217696865687058,-0.029317968474840674,-0.1501842147477166,-0.020150106292254773,-0.04004164362682869,0.0011012012371335866,0.04158614517887389,0.03125967869982967,-0.010559010462723414,-0.08199679862829695
166.62515258789062,1.5085906982421875,-0.06966704758545303,0.02188257666335727,0.09111240742496679,0.01836767452686669,-0.04469929517624396,-0.03271742955922813,-0.10355694171585839,-0.001660800153718354,-0.007690886047678848,-0.026768231214915863,-0.04681150425343738,0.0017153413018850677,0.007360372200201418,0.01748294626385754,-0.009601350471517507,-0.043496069082676156,0.10416160322095876,0.1346072143403526,-0.08213993471305103,-0.004657102137400761,-0.0017289362098735883,-0.007357228841410695,-0.015094825139398027,0.006045060691742571,0.21383422908382732,-0.34643418101798096,0.08414153365120834,0.055024716029262975,-0.03559914399789199,0.23725329679452375,-0.13704352355483254,0.10170927915831736,0.1268968789501077,0.004737143267710794,0.055963293131436664,0.15285805556918272,0.41662353948428826,0.14597410492929103,-0.5640762762167455,0.13437811608113215,0.14008047772561474,-0.05820427450723501,-0.19636910424866372,0.11985393849883336,0.6221115044821175,-0.5178557227908963,-0.0942057711325898,0.006453620105236227,-0.14596506303510298,-0.04078905190430074,0.051985180767240756,0.4541966387721607,0.15719661471621724,-0.03411595943910198,-0.1343220621678922,-0.023664751508140396,-0.0624903601412258,-0.0022803112897264374,-0.08791111720580008,-9.644283635251065e-05,0.12394867910989649,0.12250606769881842,0.014398834280279866,-0.0025262886250443355,-0.03846643817146515,0.014558488561447794,-0.006033762246937327,0.03281974685170848,0.028265518880758976,0.11286553498354596,0.022209363297544013,-0.008461883189933983,0.024197830390165535,-0.06138070526497387,0.010060004972085939,0.02348216343752526,0.09455255178488428,0.011715764691637147,-0.025927699125870313,-0.0067163710384789636,0.08086326789783566,-0.048328742132909795,-0.053516370904372175,-0.004422035700176955,-0.03202050610218761,-0.07430956500397583,-0.08510223563276068,0.08799715860612745,0.026286053466187745,0.0150538883962886,-0.04950482858204554,-0.09119306572857479,-0.017801297149576047,0.06985590158623943,-0.013727479993586955,-0.028514562808937438,0.013256341435873356,0.03391225378838897,-0.10179629196926421,0.06650857942816252
168.1337432861328,1.6279144287109375,0.07568376170029617,-0.03061834836508973,0.07569945037090799,-0.005299119350638251,0.061129130074116564,-0.0029955809139568385,-0.11625247252718508,-0.02533025356301271,-0.0532586740696141,0.05415655149423426,-0.011312678464748193,-0.04765721846285928,0.002593913059893562,-0.00011553225949156886,1.9757982880658014e-05,-0.01737580827986378,0.014377875309398182,-0.016408478506893476,-0.0011978280898831107,0.013043157993259067,0.0688853825394333,-0.05441083305185925,-0.000591053701745608,0.2440886653001623,0.015967991421006782,0.031184430306064312,-0.22974053246027004,0.10556314236595694,0.017579548533308564,0.02996509897450798,0.1385695730742564,-0.13516273124267114,0.032848352106081925,-0.020583870857299708,-0.08132444462487505,0.07427487008341077,-0.13260911609765538,-0.27698700338768556,-0.43309071988075304,-0.19229011119297912,0.40153255300748203,0.20207090453908644,0.02344023844593116,0.2393342379740061,-0.16479152810510386,-0.07806808980463126,-0.4877590728641133,-0.7816583662374894,-0.13350816199541643,-0.06727308356931301,0.06689166508453348,0.09156568173733177,0.13714315979398745,-0.0571653762855525,-0.02421509467261179,0.0632461390231732,-0.10076862444742751,-0.09570579701723343,0.05442998172170047,-0.01894963544928728,0.006578763069037777,0.0710629459407052,0.00825619098749427,0.030026026389385944,-0.009911281403244376,-0.11565574100849567,-0.016990887609472635,-0.058454330861201456,-0.011197089809720891,0.02510498487987406,-0.04394072409006671,0.022377514085925837,-0.07786130855479917,0.03258870514336042,-0.03650346486358298,0.014274860253215452,0.07028817698556876,0.010825763662347172,0.015354642067028737,0.0560793825045783,0.008217794607320306,0.05520626946564063,0.008873092248293375,0.05092372714299987,-0.046270202278413976,0.001349090432390678,-0.051972078230866525,-0.019481230172290778,-0.04803151064600832,0.08565060206940607,-0.12523582330077535,-0.053959237906293915,0.08168497107341788,0.09993803779654858,0.1045379994653114,0.06825027411256987,0.15125777875628227,-0.16236278254240477,-0.016566762856749573,0.13105819808387187
174.3467559814453,1.53839111328125,-0.1251500495148597,-0.08173039726945816,0.04869160167654921,-0.0020365152543363185,-0.004045537112225478,-0.06384848469645298,0.026914702463449437,0.0826040992096379,0.0654063640783931,0.011031248542571842,0.00703598326226775,0.0015533484013368088,-0.03507637058130308,0.016832714812180682,0.1014972885364909,0.002579426434482404,-0.041308927155495986,-0.05808006347442499,0.03361659826887378,-0.02850945966142916,-0.013240855652235034,-0.00566920784082721,-0.004456647706850551,0.0066385350259522,0.0022003744970117032,-0.013542085512343824,-0.00026634149546403966,-0.060438294096141244,0.02945456194953884,-0.0924913140844054,0.0234810309458298,-0.042426054733672044,-0.17884712104828954,-0.06877032757216525,-0.13494919595246202,-0.04081210544616139,0.02509019228639832,0.1799221868008872,-0.004460762006227151,0.2483396967269397,-0.3093478885522346,0.0388265206975901,-0.05632637706892758,0.24821055924434798,0.5870542865073106,0.6605788680767756,0.16696701596410596,0.31764922995175615,0.11175467601321107,0.27046838019625746,0.024860813133266085,0.10845763812877374,0.1923593202786849,0.05127037893139008,-0.09473029475494164,0.03207990770829118,-0.212904126638876,0.034042776811308,-0.06857199932107506,-0.025672019278008197,-0.05884632923492428,0.024068693899408647,-0.0029246240995894437,-0.017651526142863486,0.030641655403593537,0.024649751619943795,0.12793062233554464,0.019689018996285185,0.026692125052894686,0.0033478925475374185,0.03263722126427061,-0.010378479612112992,0.09166299383797735,-0.003657807578034966,-0.0034480557574474583,0.03861853753078803,0.0760603840747004,0.09689664159386928,0.05219760104820345,0.01710177252161328,-0.011396777613002826,-0.01453773065419153,-0.08243211833489668,0.03144337149342463,-0.04140065754819018,-0.07664398287819049,-0.013346145864618868,0.05511964863303072,0.0017666399280931062,-0.08450224146619313,-0.005616767394369934,0.08974795304224367,0.0072660906320935045,0.04913890318929228,-0.06952407163539563,0.07915573425773778,-0.027720100643796784,0.05949036684023473,-0.05445588930236384,0.03940768227194855
175.88514709472656,1.507904052734375,0.047129364478641605,-0.051905576527692815,-0.1708925881145815,-0.09405085927304685,-0.08592156861115248,0.04858557366287387,0.025743114525480996,-0.08700970389331902,0.003733946791452296,0.07201328924283044,0.003838275786014228,0.033922827464020935,-0.009977599408636767,0.026935357229863996,0.03935115722275456,-0.09242119364960893,0.007465874305977963,-0.047079356376184246,-0.005298004669215067,-0.025875623986208407,0.022921398026681822,0.10455588225318661,0.029438710733756746,-0.0896738407146648,0.037443259540913106,0.008110181274744124,0.18038364293699855,-0.019381822478423842,0.04296588937892232,0.024859284496207723,-0.03152299670403284,0.04999805598891573,0.07591943977511442,0.06269503702816048,-0.0296193921456289,-0.1779357298801349,-0.07140302047135016,-0.07112929643750507,-0.03292237442004393,0.06531773541885538,0.27681301698093863,0.06934799999566356,0.4574842571250181,-0.6094621892289586,0.03711710937902051,0.21549190411459032,0.8950100931557361,-0.34889757407381333,0.14340478271290089,0.0014658357431107131,0.00540910391040933,-0.07426866788001371,-0.021947908137503747,-0.04063917847343362,-0.03339563736154675,-0.2488506874414931,-0.12243969023535671,0.11543021269600474,0.07114426579459988,-0.060471910047618316,0.007041320542007432,0.08312609580145701,-0.010441307955424103,-0.028285177802529968,0.003264924859857156,-0.09161949492978098,-0.041834543441640504,-0.044321446892474525,-0.03909224518939491,0.033972128164347595,0.010118250624084566,-0.05258502716818394,0.020301066385313447,-0.017550813188431772,-0.07358376967290209,-0.023461148647010693,0.04287357469281752,-0.037230147309539496,-0.06921323179789787,-0.039793793564488214,-5.9888121679535066e-05,-0.04064055363457385,0.009566907092109698,0.002581025904510778,0.0264209023848385,0.015409374666492991,0.031229417770147243,0.08190394222742547,0.03524191687779654,0.06339706551403254,-0.06320911774857095,-0.014808070512103795,0.027128898613265756,-0.04485853295937922,0.04124984089978857,0.05213520871665093,0.10239577703971266,0.06248505378075438,0.06493891122383703,-0.008901721859068719
177.39305114746094,1.52850341796875,-0.005866804474854404,-0.05368772109553329,0.036199034238099795,-0.009604680295501256,0.03371037127833994,0.10971423780677327,0.019583631822083232,0.013909405696191743,-0.027052889847208494,-0.005263513874367269,0.12501833624556244,-0.04262015285499531,0.05355806694142247,-0.017547470804463068,-0.046883608089155766,0.005375417056248749,-0.04996198752884341,0.05722407703399006,0.0770833713300362,0.04310462750095089,-0.0205792504700893,-0.008835254099147299,0.07821697126611284,-0.013242275414807532,0.0027552775072015347,-0.026703336609651757,0.00855120627648059,-0.14573053068739358,0.0726651217483058,0.1326350308699248,-0.008398656981161328,0.46102594586184314,-0.16373493902788644,-0.04127878822316062,0.1442133248736085,0.17879942265243282,-0.3665038438891458,-0.96376361248201,0.09454444634858582,-0.06639938784018304,-0.2771694618748346,0.14436645445131666,-0.1368737321666884,-0.20019136675316285,-0.2850116065196364,-0.002417531220444309,-0.3605447705206474,-0.06333660843935508,-0.0990524809753221,0.09278699895064935,-0.2642746615340475,0.0645353982603776,-0.40798659883288185,-0.208390005226905,-0.46848801478648006,-0.2800599775136475,0.1321244452830996,-0.03357726565073166,0.024492755236599852,-0.09086712199684199,-0.0055541642197467255,-0.020476591106713956,-0.003790350819621278,-0.01157435561945197,0.09968861661543099,0.021402213000675366,-0.035226006152727675,-0.06315617704551943,0.02881059627267691,0.07072273210190305,0.005474021497823603,-0.06392719659374604,0.005070800617004804,-0.02631707400242476,0.07174600977975583,-0.03699961629231738,-0.0454382903536647,-0.059220091420591266,-0.04381688321697114,-0.017734079863993765,-0.013983697634794531,0.02100169353743328,-0.004073974296612569,-0.029825616000740848,0.015541275791249224,-0.034621714786858895,0.05764382801492475,0.1173131663573827,0.040673745169500924,0.005197351978848917,0.016730599513674678,-0.08077758317222036,0.007878140623601978,-0.04192898605528592,0.008578007357072542,-0.006672110533641336,-0.03422841369826242,0.022363783932799766,-0.05279044783318301,-0.04000631681161011
178.9215545654297,1.53839111328125,-0.03156537722649157,0.13584529894523548,0.04492119441002967,-0.028268851737790316,-0.06034337532768239,-0.08615425786191523,-0.08251145589937033,-0.030099123768554295,-0.06135022178974187,-0.09040157626884347,-0.008204730500058627,0.025645824813137617,-0.016363775046218523,0.010576360514804756,-0.03511630166712551,-0.023052820649111745,0.07311042300006222,-0.009207517019059301,0.007181462366787028,0.06550923609566454,0.002147461789998502,0.023152236310781033,0.08117352296576852,-0.02758339283000448,-0.0877332747668239,-0.07761963002787858,-0.019984397152321177,0.0813876524848244,-0.012611403314250393,0.020784982633174257,-0.05191406502059467,-0.14807607174356802,-0.01901226497760991,-0.06338115894862766,0.01614307257017817,0.20921637904984283,-0.31413497610202995,0.23196021390230295,0.08182596455211315,-0.4491618530804318,0.0648556305897529,0.20695486124228568,0.2911476060265912,-0.25646168066353425,0.39846648733440215,-0.028892118448437396,-0.012227476937294236,0.31248388087351064,0.41468042653145043,-0.4618590599925069,-0.16376052138721447,0.3652179721171495,0.386011987392834,0.3218223952279271,0.06863131518418925,0.041591331392800975,0.2263015390236444,0.02389655420855972,0.1447826244593768,0.09891411158644113,-0.04164176235733994,0.009457486920061344,0.02309083569043812,0.03085775300741014,-0.020606867987385563,-0.0280571023775252,0.017165845969096857,0.0399072516332799,0.12390517392249042,0.02490678278639831,-0.026925039443312836,-0.07342100006292357,-0.020268495573464784,0.024605594253806887,0.004355234004647254,0.004151577009279067,-0.03672592896694814,0.06068088549092262,0.06352908023579144,0.005822197858525391,-0.031183714408947853,0.028688445432555727,-0.051474433043564985,0.00675873635552298,0.04410775729154198,-0.022773313397788535,0.006468086057669659,0.1647124716305935,0.01627079999806941,0.0055461088372953365,0.010107478755430268,0.03338975612929762,0.0036112656113401337,-0.02128923411777603,0.026968040878220266,0.1518952974072375,-0.020125295172689628,-0.04553670323494243,-0.05249926992561314,-0.026735066111653688
180.45994567871094,1.7378997802734375,-0.023322774883121275,-0.03521392447446797,0.026417754842781672,0.02931356171488764,0.09202991935328629,-0.12488074428485113,-0.054561637769057994,0.016315948511442625,-0.11195491944299396,0.030367306122342598,-0.02440968034378628,0.04063412411876703,0.015585089544990563,0.004699439899379737,0.03331136213537025,-0.10588979086321577,0.006222351662307158,-0.04376171762745243,0.02353145597977205,0.01913276476528545,-0.02672981255356683,-0.04755123926922583,0.06268389859657648,0.05829557200231581,-0.0397087462008805,0.028511573233303895,0.09302019341840997,-0.04123979934050695,0.3817924674657552,0.05918359680661733,-0.23062862208998103,-0.15291148189384463,0.028341113971462602,0.17462961398908183,-0.03410990410647875,-0.19617446823494825,0.08563084250222736,-0.05438218891051769,0.20625751269961,-0.08163137873542073,0.08073137113897709,0.45100602544116036,0.2941727845667001,-0.7845619668696681,0.010432159739753394,-0.5911730411238322,-0.32080448836802444,-0.10460859479280085,0.12695282707479189,0.15390081731123562,0.04495468644625253,-0.1925580483269824,-0.05717793569194318,-0.08575638057554565,-0.24361814971030243,0.052196208184438236,-0.009198921512703325,-0.019814682196565993,0.007917565413483867,0.0037204789087692198,-0.021424637582121972,0.01405721598136496,0.01307328621813327,-0.006801068629903933,0.004213195992012429,-0.04880634303996304,-0.0015941664403260694,-0.06204192432577418,-0.09156998522371665,0.06842447779320132,0.11301468152224883,0.006854756061547597,0.032080445504246755,0.03788084194696432,-0.045643242900928596,0.017262374898027115,0.007665366400214077,-0.01285420735385212,0.051330598478343516,0.03072135173141371,0.01895877415047343,0.033285258249568274,0.003130309541586671,-0.07788132846815284,0.0493502113394616,-0.009442342380128558,0.0003711369902444136,0.05198066156808713,-0.006137570757293785,-0.0014830747563964338,-0.02757727290167808,-0.05489705887022768,-0.13577673016098654,-0.019339631011497684,-0.015921935989356553,0.04797514208231486,-0.16726038167696738,-0.15028263598317293,-0.03236567675293752,0.07323043963086533
185.3540496826172,1.5785064697265625,-0.016734796964903348,0.09650582873265778,0.12002085054471096,0.032130833186806804,0.08482412589010062,-0.025548769404783567,-0.0064993685456302425,-0.008732984729040043,-0.08875540601236892,-0.05725404941258475,-0.0587054905132241,0.024498111403388218,0.10973688708395142,-0.05816319964255243,0.004883620609732034,0.006073854803757717,-0.07435107643182322,-0.11982654084128541,-0.11699224867686324,-0.019352820945374168,-0.0349969709284405,0.17697090689158454,0.010914478932081043,-0.13954845059918683,-0.24344559369740357,-0.036761600330417324,-0.32747163930011575,-0.21111056645925166,-0.012237820167515706,-0.07811026077458941,0.0931799979656725,0.20705253202602766,-0.10324058878039828,-0.29500144608280077,-0.5349611184873736,0.06839982543849363,-0.04491311873236839,-0.007977357875128807,-0.08447010737432757,0.10534871184783509,-0.00023384633427781312,0.4555042612891375,-0.11150439168963144,-0.14293169919490098,-0.26232677336735655,0.05207748700540906,-0.2678524937558418,-0.3479109841567295,-0.27414267928179165,-0.35386573325614723,0.057632625427832256,-0.27539817217063556,-0.10417474167532363,-0.21642369183294732,0.019617316199468757,-0.055058022708855056,-0.043308864531018204,0.02054946116459431,0.004784985413311596,-0.02427837610071319,0.06346742860514497,-0.03027235394685295,-0.0018149779460004988,0.0012426251375373617,-0.002366178663737131,-0.03389449190838786,-0.06468931361107574,-0.012662608334326765,-0.01023403355808953,-0.07252664435946518,0.010212201149094062,0.010376468426847378,0.06708985465082108,-0.05107115746843211,-0.010003656330479472,-0.05780630780910509,0.0011699226890804313,-0.013672708868896424,-0.08015154084627973,0.0027415681812195027,0.004820461551715112,-0.04444501097710875,-0.04789290063953393,0.022603437740988424,0.044499138026438984,-0.04345405253477915,0.0016287256638902344,-0.1033987964800541,0.026330534770085533,0.011173490955057694,-0.005813205960118325,0.04525450322586456,0.005726423280764188,-0.016176928867916156,-0.03828279650323195,0.05612676734824043,-0.002843702684170103,-0.07362200201756146,-0.028954108992810278,0.01520659332437516
186.93255615234375,1.5078887939453125,0.026569141639983026,0.008519679476043027,0.08844619493852252,-0.05514196612469249,0.025128631700133318,-0.12853782882453182,0.055031203688919,-0.018085056853167688,-0.04720231731888842,-0.06662917599222996,-0.12624814880826665,-0.138508267263788,-0.03113291457308769,-0.031748817956991505,-0.026134511475650487,-0.019428810141724123,-0.06891955172862475,-0.019167823265784832,0.018065773869660056,0.0037202999092750947,-0.013692915664444277,-0.06669891561097104,-0.07116489188271193,0.0040436235519611076,-0.00215359495762986,0.0027481438090258947,-0.03988747069266675,0.04646851973844443,-0.0017187436868579817,0.04808861647259875,0.12216884305095671,0.06115623516113249,-0.05464901088747627,-0.12258801718719406,-0.09714390651126392,-0.07273282566549095,-0.09834454656046739,-0.004674167256710891,0.3229078209393654,-0.07876334913890588,0.12493041069363738,0.28760454048601647,0.10131827280238456,-0.1367833986871264,0.6261221355206721,0.3094063194251307,0.07027807381403098,0.23201703905340923,0.5035389129451195,-0.717284908767542,-0.2628039847486369,0.6062732786803083,0.081449867425494,0.0375403972999591,0.004554815712735604,-0.01275283293033904,-0.0007150989296723755,0.009544732796685645,-0.06578668020074098,0.014541745298143382,-0.020416514890011447,0.05677001579673891,0.0018812701530263407,0.018009652088875425,-0.0007279240625496725,0.0024101355414565184,0.0016061829390787447,-0.004165612547400641,0.0009230123311152342,0.01618447907848914,0.002194471473415005,-0.05061316464199893,0.03991752519895774,-0.013857238001280598,-0.06146768063751973,0.10164988024438666,0.018445384391712907,-0.07709173538859,-9.96128750804931e-05,-0.014665944386772432,-0.02029690229927145,0.02974988321820318,-0.006638478851066703,-0.003288357586199443,0.03359393463632148,0.0014815743324869163,0.08862957530220172,0.002602785756000319,-0.0012184964488472672,-0.00448018557381323,-0.010970206366309238,-0.001936139205130527,0.021420284648283074,-0.015984149594576374,-0.028699945003416088,-0.008775810661215334,0.013998628945129293,-0.04220057432405375,-0.04686838595614579,0.08390765512389187
188.44044494628906,1.5186004638671875,0.09129405752266082,-0.014011435629741845,-0.04823570949900986,0.09966621289762524,0.043000257254129745,0.10955358017437608,0.015736235522049887,0.029972514657828082,0.00924184575512769,-0.012428737018910065,-0.002241603438770376,0.02695899143072076,0.030592718301743232,0.04861609882074166,-0.08376671714051379,0.006266862498464412,0.0431177807154738,0.04906822816969732,-0.02288944401025446,-0.0018105014957923503,-0.011189621836788895,-0.08794197829619366,-0.000652142198656786,-0.018884541706723504,-0.0703238494512852,-0.04490388752197441,0.048307710822283585,0.08578968352661463,0.010460157829304404,0.14018217010095532,0.03138920778489662,-0.28934772840117934,-0.01355453712333124,-0.0188153119820692,0.013078775076831896,0.018930666323190758,-0.04761471751707743,0.1013452315435325,-0.2370393626262684,-0.08123691725989436,-0.15524007089579495,0.20690428827786259,0.0697949110014246,0.024066913811210316,0.4673328077559883,0.30245838297901917,0.4145405801383375,-0.06443699347793173,-0.011207843379337279,-0.02355790999422333,0.07098681967377113,0.27895106445355206,-0.053335426380915624,-0.011039305675099753,-0.13834024069715303,-0.1845810601776628,0.10694901664743324,0.40321673662661767,0.08196383294594475,-0.03465086307801693,0.13646698969601698,0.0395666774951369,0.027718729203233032,0.08939376252522402,-0.0082777529858776,-0.00807486771009088,0.006940010633355627,0.015221043503516676,-0.01794572477338244,-0.033522321233350166,-0.02849926687098029,0.08746281204495629,-0.008204718429468141,0.043596128858161054,0.021633304189449188,0.0188189129155066,0.05528567445319782,0.03567111278419828,-0.047133505637067724,-0.03771770859945778,-0.013745491127334891,-0.009418661004820326,0.04472972036320536,0.019809788724229553,0.011847501604353527,0.05568131125257315,0.13447566169084135,0.05759005581231384,-0.09873893196245509,0.030590021820979002,0.09056272769321894,-0.04004221106318579,-0.01061767063351947,-0.03621365488482304,0.03269962198615392,-0.036773813093513394,-0.05406820159791563,0.001327649395937408,-0.06354351818320139,0.03404185446364919
189.95904541015625,1.5185089111328125,-0.10201836152083156,-0.018151251490279435,-0.08940244101589417,0.10652655368959187,-0.01710354935115721,0.04181643669587082,-0.030297221588294843,0.03663756684882064,0.0789808672187283,-0.06822600126743779,0.032841576808950404,-0.048632630534528175,-0.04324512052217993,0.01923257546093271,0.022813559389993833,-0.0657818446614017,0.09370024656741201,0.002103533420107659,0.007711623830153659,0.06969642375693444,-0.02050544529213821,0.14410711354527886,-0.0784441325009374,0.04586110416055453,-0.09712402374233686,0.023409252503650634,-0.042837066903058066,-0.00845949644917392,0.10884965566514421,-0.010025026484530693,0.05150045575550282,0.1981967354178069,-0.318017178862845,-0.22385465516685094,0.011120575728765143,0.032426534210522134,0.13315433970582208,0.2522815107585105,0.3663432785072265,0.18892366682499126,0.6158310307140842,0.6544786335438679,0.9090923301373004,-0.13491765593835264,0.0029004400039152993,0.3637522662315317,0.5753572195351153,0.027543132315481767,0.32488179591905914,-0.720438694982937,-0.4618363723904022,-0.23491582889260776,-0.01901922127553673,0.03900491320203589,-0.14682857926155335,-0.18015465366207112,-0.19445706003364946,-0.04605357065829559,-0.03013494264243509,-0.10669746897202306,-0.010175097657442757,0.00402207266095469,-0.012080523526461003,0.021486106245545016,-0.014343409718872699,0.06561230353010654,-0.0342357702735719,-0.060778768059644495,0.1020625079959652,0.02566139828895832,-0.01367335396732472,0.0017665348205811887,0.0645117620445868,-0.011078538247964002,6.135159395870358e-05,0.05587952968584088,-0.02112459596632373,0.00316477601435036,0.018573425612354973,-0.04140305826772711,-0.025137291892108417,0.046628522892536245,-0.08589630010003282,0.0014984480988633787,-0.002889472562765529,-0.0783067193467745,0.1197118868644925,-0.03841687204014648,-0.049508041117119844,-0.04691713004990598,-0.014102563355987217,0.017337499619042306,0.029719071417868483,0.04494382712137952,0.049525509903177875,0.038357073502883365,0.14225656653937085,-0.02396863578821247,0.01858794065596453,0.03891225307829682
191.47755432128906,1.417694091796875,-0.10574581154543108,-0.09997315158572782,-0.061201535718422205,0.0462320968063031,-0.037097926063614214,0.11772174201382103,-0.01731069032619692,0.10491165916173686,0.017684739517563247,0.014384397396086143,0.06450830230108215,-0.003521397123639856,-0.007790078849315249,0.007117466149287794,0.02445103523610679,0.012116234598704319,0.09063474440096488,-0.0586326535033953,-0.043287679667452485,-0.07033877870381394,-0.031967327297723024,-0.07972200204224683,0.047818196046031804,-0.01624344491816888,-0.026872825033074366,-0.20248164560765555,-0.045062788482767194,0.08745240801252503,-0.00021648577702359194,-0.18413104047290427,-0.11898322960416412,-0.3669057170330911,-0.0905736718415845,0.10032231824382118,0.49467251978646287,0.11103307413367286,-0.1110247879790836,0.06560369033407602,0.08495556597960528,-0.2229194881760498,-0.7930729618338543,-1.3338526208599313,-0.21791785372535738,0.21852613966497259,0.04656859975696792,0.06792463196066312,0.04608935929700822,-0.14677677328084426,0.6157795631215687,0.06766256786677956,-0.1787796106101358,0.39185879504130466,-0.020017541792596488,-0.17503350642721344,0.07069432708942401,-0.013532428253688307,-0.011841852152866317,-0.01520002752109774,-0.01776000201325101,0.012923690517014693,-0.07288946402807564,-0.040730510087423205,-0.0019817530440340535,-0.001044416080211177,0.06638752353421798,-0.04565762999950522,0.04128978812175203,0.005368404064723268,-0.030471344872332565,-0.06090042505402718,-0.0016473565402921255,-0.01260442415209426,-0.016458936783771097,0.006773320877735713,-0.0006796714844887791,0.013323658679004206,0.0019079898462899237,-0.09783463168647787,-0.07726781048434922,0.03352482854056081,0.1727861330546215,0.004130762966954185,-0.06494859716177981,0.10351376286430304,-0.06157268647515258,-0.07983650455214213,-0.01729455276891692,-0.09166839521877612,0.03225014935298633,0.018409294423660537,-0.012757621882708948,0.038283799538756914,-0.02953887547511991,0.008630533379618107,-0.009977402291486592,-0.008126400692017081,0.003626247332946393,0.017140165290730234,0.029422693468816354,0.01951585451514912
192.89524841308594,1.56890869140625,0.026329510507676804,-0.13856340131011924,0.07300135696229504,-0.03496849751779458,0.022165988749334356,-0.02590234861004737,-0.08464520301067241,0.045188623263067995,-0.015514295250964757,0.09931988462635978,0.03125262724041704,0.05306847685372345,0.1405583158946485,0.051669197638785136,0.052542540442490536,0.13726653654091772,-0.050259392250710896,-0.01817782436477225,0.03949606994471781,0.11081600645214713,-0.002280499629909699,-0.050972979413985556,0.14718666948117493,0.039518342311936155,0.17766725528897437,-0.11726922886437091,0.10804831979028659,-0.22235023067462537,0.16715181085395617,0.0899304683572194,0.17506639283165235,0.11949262337460145,-0.00020612218456027287,0.0002959422976752668,0.0085699264685897,0.18801532285133998,-0.06474891705451098,0.011642442597946542,0.07117643991187021,-0.19741981998229338,0.1021735386598952,-0.3511804711435427,0.748589017364584,-0.1981322064215137,0.5235070199737608,0.5535237742261433,0.31336159597506535,0.19997409274080583,0.19158029273166094,-0.19112030242158567,0.307621610978094,0.3958615238147396,-0.12472832372189921,-0.0574774695334192,0.7442225743915977,0.11738296371945481,-0.01467794608740637,0.05679357557499251,0.06787527457000019,0.13167242669385343,0.11912310919312545,0.09162113029008177,-0.1091967636488272,-0.058932602243432185,-0.04069301795068485,-0.04583499352650206,-0.002645860754378584,-0.07852056629202472,0.06835352390219356,-0.013055872325699502,-0.04623842958182228,0.03414620191573284,0.018829122041139193,0.004051757386317285,-0.029034678798521566,0.048006694998243234,-0.11900430935531199,0.09439868858193695,0.0697742647715237,-0.06264752825559519,0.051512174415532325,-0.013440902967017566,0.0796403712200383,-0.00325893168574735,0.04705477573084907,-0.002281240613874603,-0.01369630095902558,-0.1023022741952212,0.07338782635491564,-0.023989239221117113,0.2853223648106137,0.13841360845584982,0.0333386523025096,-0.17493852830090864,-0.035182133794409515,0.07292127010266389,0.0524498076207453,0.38167644532078154,0.06731915712715413,-0.05142251209049432
199.10885620117188,1.5378875732421875,-0.04888945880985861,0.0012221294083290223,0.003903962003817196,0.04973397038033961,-0.016307969532865986,-0.04120885717469027,0.05359049940109352,0.026549938091924866,-0.12729547928777998,-0.0020325543895543113,-0.0006710872553902039,0.01379580068571392,0.014135318552935733,-0.11039640362113502,0.05242050379327829,0.07812239902297927,-0.03346136758822912,0.019707069677431417,0.06646108914565736,-0.005142918816031679,0.01313016779423301,0.015805416380621974,-0.024671550277835755,0.006364053886366104,-0.013563965674696832,-0.019272421743841837,-0.001703759515782431,-0.06217020556666768,-0.045841949216320135,0.056231434309511025,-0.023934933867855335,0.07544467003693602,-0.11747725673459286,0.10411222308836922,0.17554852174042102,0.0798288998465162,0.6996705110551895,0.2208511342052125,0.13891843903046855,0.05323717366775106,0.3162149544073948,0.029167192716610987,0.03229498961193393,-0.07206001504144192,-1.736459753635931,0.2359847896853119,-0.07000671556567477,0.22164160412730433,0.013355630571206978,0.03444274849828653,0.05520701031154153,0.003016105551406209,0.0926682825897877,0.043939018970587614,0.4204645289007503,-0.003936890440031508,-0.07280203832044141,0.03838321514792882,-0.09541528078105531,0.014695812021331902,0.019072766150638878,0.03459237790274266,-0.024437255294042667,-0.1218977603265044,0.00846968524519844,-0.018601734635525145,-0.009617659830213973,-0.0008424598254764908,0.09915167238890873,0.0011543252441462179,-0.014290347528853907,-0.04244666228596489,0.05051322768726475,0.07866354898074798,-0.052399002592550495,-0.0013675119212448006,-0.006800902039242113,0.07853743021215959,-0.01761290759722445,-0.0040120006728291135,0.10750699065183045,0.04726354001037314,-0.03785068120737588,0.019942825792991895,-0.0031404816155399416,0.006771723522985903,-0.016213304404068003,0.029322565409274456,-0.03752845746171319,-0.005287852472398724,0.00020931282375207015,0.10022422513786547,-0.04160665973967211,-0.021914761097113187,-0.08673327770467494,-0.05350444043438922,-0.018668773220772837,-0.050502981018807944,0.10395212406967479,-0.1432031114214672
200.64674377441406,1.528411865234375,-0.13828142122491865,-0.04181800612033764,-0.029366086269043835,-0.009692040643694971,-0.016159579770964973,-0.04718203167856595,0.056298433621616455,0.017657982150562884,0.02377832888959842,-0.07828784955499728,-0.0014553186842035798,0.01143890013934938,-0.010855331472950624,-0.06381375307401052,0.027904905168272202,-0.02710228579398552,0.02540477321474017,0.04204701083083726,0.03387440237931278,0.11547387795499457,0.01271916531757376,0.015878807160171753,0.009569036358242727,-0.014391228807105307,-0.12293479142414378,-0.03425348220978843,-0.01555971295461636,-0.21397074872803218,-0.13385637640695733,-0.21219997239384017,-0.0029577611778402457,0.09169344723987871,-0.23691669246437116,0.2708509757638892,0.2703156497818973,0.4349079206680212,0.0710089282797505,-0.22019518660092713,-0.30892372480462843,0.4753425991224929,0.18815316192328388,-0.17499991334447587,-0.025580514570474833,-0.17126497087063014,0.17232310277584684,0.5246714626914454,0.3354399171487704,-0.1307385126386441,-0.36157176936318647,-0.14668879678107805,0.5557720338348769,-0.23207867994820097,-0.48817144237513244,-0.32084728535454615,0.03228594085172878,0.09641285862721133,-0.05807035023107328,0.17103541003220724,0.01899807671488357,0.04650955450065164,0.018582189699894284,-0.10461789755332401,-0.016674926801158795,0.0013701393085172628,0.11771320821854209,0.07298149768659316,0.008108561398277703,-0.05308054485689384,-0.04981364200800293,0.06179066331620359,0.006410478925344189,0.025823323375369297,0.025481402336951252,0.052325326021871864,-0.05540138023425441,-0.0560753170229232,-0.04284146348440526,-0.09751441299579575,-0.10374824931899786,0.025504193848372034,-0.004416902073444265,-0.04960668626443401,0.0316051116332401,-0.0008663917803496421,-0.013172147007173179,-0.046149044983974034,0.025840437602554986,-0.038198955068883995,0.004471985503351325,-0.004124683199908037,-0.0051986334636809,-0.04306672429302605,0.01829491289120998,-0.007967922038316502,0.01751713453490578,0.03229984825473534,0.047194360275567,-0.06621577232705413,-0.11728454361333246,0.10243969316252571
202.17515563964844,1.5885009765625,0.10706694730768027,0.004598992265986478,0.0019223197284475154,-0.0005737600859812217,-0.07282427702234008,-0.0075539830622749805,0.04965953849094673,0.0026704843994389397,-0.05616292894556775,-0.13413062723371227,0.015884943719062822,-0.04044658160893883,-0.0377735976715423,0.00962922496837242,0.028019599215701792,0.039858016204374236,0.068697253346401,0.0038596281896014187,-0.059179640338261216,0.14159672540378482,0.0140420197097956,-0.0656786218424906,-0.3650180383975324,-0.10641231259241139,-0.06689408836101263,0.0011350372767126304,-0.05284207012772568,-0.04005963097188931,0.005901052460942122,0.13157884582234733,0.24431740556857243,0.12589816060380507,-0.162994786801241,-0.20685862330313323,0.16723851218758595,-0.07501620570396403,-0.3947784641562462,-0.2363496803425603,0.530490578240385,0.11676385771907044,0.3705995172123344,0.2179544688192056,0.1120450778885358,-0.05590590076139391,0.6604774038827246,0.3330721064728606,0.32032266729244424,-0.10662674430533498,-0.5847309828647838,0.04416123004061753,0.21641416823080445,-0.05706394576479575,-0.031152835518823377,0.0857447369816372,0.06497353760538321,-0.03248368776091819,-0.03127587220134141,-0.12199009031987684,-0.07956410307705891,-0.0042978072178786846,-0.0020249933101395704,-9.748728759909097e-05,-0.02117438309511459,0.009815261362124534,0.0008131157860607613,0.03553541572701162,0.03470174120020543,-0.07080659948226678,-0.019449932193969434,0.03166342201646801,0.07916827660082394,0.02879909035182085,0.08513170439659225,-0.04397705544445199,0.012416575306489458,0.03528171862778742,-0.024768827628751263,-0.08342345725514431,0.014298909368853637,0.07965961616567076,-0.08581467745203161,-0.013444232303042477,0.008843403920417256,0.016759689002693166,-0.011749180333937256,0.05027675583453289,0.0901161876243183,-0.17939701735809432,0.0030378411594588275,-0.04079768286459014,-0.04076968669204981,0.020070053981395858,0.008496552004004896,0.10407381980687763,0.02917403236671531,0.12634449030365197,-0.03938442744395829,-0.012316279114267838,0.0017956376726350008,-0.0857498424729934
203.76365661621094,1.558197021484375,-0.08158185895832412,-0.04315515205864119,-0.12669174877021033,-0.012060231215856969,-0.03012495268812681,-0.011134572861448965,-0.042212543256102145,-0.015107339553021213,-0.00306764460439379,0.008000688219088987,0.08809394424173364,-0.05474097692951363,-0.10797995292622449,-0.03601902659884469,0.03140849950934713,0.07073615167730715,0.0767584537894803,0.0043179369625721414,0.021320341831302145,-0.03430008809760726,0.002954955748689526,-0.10848276546422403,-0.08183638083921783,-0.10380684293220117,-0.006257200368494888,0.025843252029769694,-0.04018810575254657,0.0010669582292309587,0.0748973534773594,0.05329064652016974,-0.12588596791744128,0.020354534351409923,-0.07885917346247245,0.06949520592264445,0.19781273200933044,0.20307881435265948,-0.025224853945018142,0.15870791835174877,-0.06908325727801948,-0.012796114998821315,-0.3335866832810084,-0.40053608839756116,-0.030100922664745677,-0.28734078950061126,0.08355296011453717,0.33994402034124155,-0.2054920046471208,-0.042355341670895,-0.13094056673285365,0.2322498917400322,0.40549031453872064,-0.038460051398932445,-0.01615616203198863,-0.12100959921631485,-0.035215597622956674,-0.0466956288893702,0.037997325855492446,-0.35627363542691637,-0.07113234919747771,-0.024965512137238487,0.0019391920076812048,0.0912257444623508,0.022084239421141544,-0.02427840491104328,-0.016968852238661535,-0.00153873234682123,0.0062779079366328,-0.04952421885993733,-0.01410615730199872,-0.03239451214542584,0.017654376350264792,0.017886222006944827,-0.015690900112720202,0.03890678433776358,0.008257716606172779,-0.013816287560615365,0.003930056183057684,0.0650962246472231,0.007070600455841759,0.022563145822557182,0.004419959459990775,-0.027207528118781445,0.009940040479941518,-0.03299657336101235,-0.007275376544850106,0.02956581128070113,0.1351161843122557,-0.009268478642642984,0.017901363498957393,-0.0030088664277596096,0.024058169200823244,-0.018523881788261497,-0.05905769932670562,0.012631228958999263,0.11941958636045685,0.0008610950945924068,-0.05836224486842108,0.056457797565729245,-0.005409742667976648,-0.11674480016493122
205.3218536376953,1.548095703125,-0.11540902366759176,-0.04230563784957658,0.07435625431826037,-0.0013047770226988049,-0.006214829635522958,0.0355681966083163,-0.0676482855972697,0.019674992688702583,0.07114461756233474,-0.007028581046020485,-0.045638483051971414,0.02230933199930953,-0.0024333695096937624,0.06386899752222405,-0.024055371781608006,0.018184118403224515,0.027705449314113853,0.01692729773094417,0.00345446771561643,-0.04674585343814309,0.008668044324575672,0.02732468326687452,-0.11036885611918398,-0.027850480347157314,0.060004334722646206,-0.13018800010487447,-0.13146469520009732,-0.12300103806385697,-0.016992838771246317,0.08010661520712706,-0.06395321497534016,0.025733582174319855,0.13013257911943754,0.32741716450249286,0.2886757857627078,-0.032511791452783115,0.10711823492297445,0.03847736902996086,-0.13579425723692495,-0.09480779157888536,-0.3170923127980271,0.004468191271052744,-0.17450574967529797,0.19215953700936542,0.1432828323791258,0.0385100704733671,0.01405809736699018,-0.016336537202067014,-0.8583988737330275,-0.5829231056956174,-0.20076491323249968,-0.15008865827492546,0.26895537464326413,0.15943698056427147,0.07605388108958223,0.036905263704374094,-0.2659450699658533,-0.017112581290502277,-0.0011194843504681328,0.05219122465092865,-0.05148149336521556,-0.04708961159048211,0.07840813272772826,-0.008959845888354278,-0.04478460568511504,-0.018831459425950856,-0.058327529847497485,-0.14636823804168134,0.05978813214865547,0.0035808815549266313,0.013921309883217553,0.05374530639936429,0.020022509656432857,0.05682754789023034,-0.01771344122935911,-0.00989399039100039,-0.03299411151335477,0.05928785212627189,0.017830090309063313,-0.013463087237875464,0.11486169340180444,-0.041839200510365236,-0.025848571143347904,-0.002138786109431862,0.0011007792364131858,0.03113271151286762,0.011753183514526463,0.00729017445701728,0.00029887577227237126,0.08559716552713953,0.017392383548692915,0.03019121783490836,0.0034838091378855754,0.08435262006170248,-0.06931041841461755,0.10423172883588444,0.12827008031920428,-0.08633526808415139,-0.05531202859432486,-0.028583595001003687
206.8699493408203,1.50830078125,-0.019549260865169775,0.015836789489748558,-0.07735363658669678,0.015732996160563686,-0.038866737506810245,0.0038945696638410937,0.01324274117446103,0.049854852665812695,0.0068770356524331016,0.008408253150406334,0.02772941847399584,0.08585356849448648,0.0091252867141859,-0.009007149059896457,-0.002111622360694415,-0.023821500467665707,0.007871757581787339,0.0004243864255596609,0.003994238683110917,0.0030534037549986223,-0.07361191093164819,-0.07052902928319237,0.011799690875092372,0.04564863178066363,0.03687964266790996,0.059332252845073166,0.10955918581297897,-0.07797175157190658,-0.2372526779062146,-0.02752538156440046,0.12556068273081528,0.02070078419550803,0.2085359379501226,0.053253084596590804,0.881236260645295,-0.022670169815167666,-0.01914381838452659,0.4537937644488448,0.18723946387261153,-0.016012781730335893,-0.09592823597750705,-0.08336244684219861,0.23919983003578366,-0.20091575543417503,0.15218630397616553,0.16085778530622452,-0.13361269536046647,0.25816226429718314,0.07680234473762704,-0.03122767138102968,-0.12571785736448743,-0.03757017699368664,0.09149341980716268,0.09113272020511275,-0.0025954905700603667,-0.04354706143361703,-0.012288188692691228,-0.01589407797812285,-0.059011319299652074,-0.016345607186330463,-0.001207855393927669,0.008473816954717356,-0.03806090679073323,-0.01823709962989864,-0.026948030945742635,0.03174933291794152,-0.021061670384263244,-0.04739289995000971,-0.026673693531226648,-0.03881402579918142,0.03032285226553484,0.012550215200774963,-0.018441026819101654,0.061117844215631795,-0.01611352801054485,-0.00430158504578187,0.03741155099102746,-0.04648542910470274,0.0010382141871349282,-0.035441352838270115,-0.07074048581885492,0.06074557726949577,0.0016912385963881223,-0.000576608405665549,0.054880507246812316,0.02906054252020622,-0.07923829080549982,-0.046578475874245455,0.003173774074501191,0.041245862956800515,0.0941741259918338,-0.06886328110351658,-0.01893608108803053,-0.11351987695320097,-0.013756632164924705,0.08639107266423313,-0.08928958824151394,-0.0450720883991868,0.06791532547982185,-0.06311044980627845
208.3782501220703,1.58819580078125,0.0854284465167996,0.007021273685668157,-0.002051682455440826,-0.02490788242362355,-0.07855209905659016,0.04124373041822479,-0.020965276629029958,0.008790674967679865,-0.030766943957228957,-9.903584502354845e-06,0.1125379513504611,0.014077815530628852,0.01586561644389189,-0.21129554463426028,-0.11388429280685955,-0.1320462903416999,0.06789015276777262,-0.12344511247858368,-0.2997138578194,-0.004882820706438041,0.06582808914570903,-0.0563813372307866,0.01333134787967184,-0.06517780129346103,0.21935885844014702,0.1810795555510442,-0.23613358620429564,0.31202287171329995,0.7627917209537004,0.2761370512589042,0.11235159987682132,0.07629811799378028,-0.09085419992627275,-0.06497508264465844,0.21837371170418407,-0.16979111755528842,-0.11326353894574032,-0.23269049190282945,0.12901362746547235,0.4300714943775884,0.5242380362516158,-0.4295777531478158,-0.6584531380830682,0.165968060713711,-0.11081877155781938,0.5403946808174798,0.04892992739171262,0.35540545112633615,-0.4731802126910559,0.2734432154062942,0.11389025347590137,0.45833205091756934,0.2855572234459425,0.6175861573120748,0.2988710424512092,0.255218524106167,0.23388250063454413,0.19807198282495195,0.14839035597373815,-0.1818613448050498,0.03461455877271634,0.020444683242748445,-0.08410670404951465,-0.006822292940654105,-0.0008963712203766631,-0.05651177511429476,0.048069790215891826,-0.022181540467708656,0.09407893971038019,-0.005928745638622552,-0.05453241571482387,0.017347104671762675,-0.019985333458904016,-0.02967186839248106,-0.03021568263879961,0.04390022210883697,-0.05043952898000639,-0.001525044111796982,-0.013736793696966917,-0.057136191839641144,-0.0009659755641242761,0.012980662631012028,0.012108126796338279,0.11803347706290425,-0.000678690269461449,0.0042360718159819895,0.0018590786469488356,0.00793960504471826,0.10903212317570055,0.0611827986836724,0.003425131404448673,0.001084396280611938,-0.02701286536874053,0.03795883551970507,0.019152178843282273,0.014941219318335155,0.09716611330473733,0.017020192403317796,-0.056473064736372695,0.12931712578859872
209.96644592285156,1.5279998779296875,0.13732806677357592,-0.0008541352931184069,0.012562687372164233,-0.03509237214685886,-0.033293922418273836,0.0375083182110927,0.018651851582029255,-0.07305740703630569,0.028565014849080847,0.06544170533572138,-0.020108061769869262,0.07288906851234266,0.03629476364827863,-0.03918206803324174,0.047718703010258975,-0.05277501534289422,-0.02331063029044725,-0.06040013492196773,0.02401598891005702,0.0043697100956554425,-0.009483174016667826,-0.03940211734107327,0.013427864266086277,0.0268575580155027,-0.03397468780388979,-0.09491669456147597,0.040077854160361345,-0.008137128521353584,-0.015192193996698194,-0.020637264757561957,0.02445088520234249,-0.02486016501903334,-0.10249964414730148,0.15060997033027124,0.11097997275359839,-0.026187320847599074,0.03068828945399622,0.015318906270169238,0.01958389407381413,-0.042306682786030815,0.04510529239836392,0.19288184928676033,0.11451807942367764,0.1602386526100626,0.33526158877999346,0.21434232791873598,0.05723689779393998,0.188792037136442,0.1512282617094111,-0.6477670315379156,0.1879640090847564,0.0479669487345086,-0.6577532040323645,0.47253239462620045,-0.39761097297540454,-0.12508800252127128,0.11896918603793652,0.06979042740072786,-0.08658118754329365,0.02830381831448565,-0.05089845925624291,-0.02077404281031737,0.01906670168895975,0.04055394185942032,-0.02437835340888319,-0.004997428032265451,0.010968651876538268,0.04516091748708619,0.008003390971286592,0.02307594377072951,0.02268092332028218,0.02205572147148857,-0.058675724141434266,0.00421642792489394,-0.04525549483124329,0.05079655332282727,-0.014843959083905893,0.004929730737288023,0.049293817295885604,0.04639636877353792,0.04122683558105283,-0.04673570832141394,-0.003931034772550076,-0.03169688464902295,0.005983201278597463,0.046784491714192904,-0.051007939854538935,-0.10320533213822128,-0.12813844107145733,-0.046245452349950755,-0.011604864554108047,0.0017542817478524582,0.048706552231443025,-0.020313463426517124,0.00035728150124440024,-0.023004244995540244,0.005784690653011215,0.04236573927032449,-0.007878108136987782,-0.009430094420728216
211.49444580078125,1.4784088134765625,-0.002711092065936893,0.03909151142564288,-0.03220104076811163,0.020096224717999753,0.03343179127902566,-0.0074398495281005105,-0.004106797360907423,-0.005651971885261851,0.12194739345072533,-0.005967457153092935,0.006529311225042088,-0.051087102626647944,-0.021018673828165826,0.005278042074631567,0.022545306356323055,-0.04209750849377007,0.0025952525963396757,0.07257542283436487,0.005123616831145932,0.030758686079658603,-0.0068417899552935335,-0.14003281390568095,-0.07824280801428694,-0.042986376534986374,0.05979930946227488,0.014015652064317652,0.0014631380485596443,-0.03162301526665884,0.06380136378999901,-0.11472846426404629,0.015071151430423809,-0.041610431025851734,-0.06609990207172212,-0.07344774758854283,-0.11821142291135397,0.022382256825511565,-0.21909744162610204,-0.14914184832701322,0.17987061759745124,-0.33161861104339335,0.2770226853175136,-0.1514588984355654,0.13884969238230624,0.24666069266988366,-0.00643853465979452,-0.48423199713679355,1.0788279961384295,0.4527329423436968,-0.19705914038654765,0.18122751858658495,0.6890697429524396,0.09347883497095019,-0.21771687806148607,0.09333384167454507,0.09991197314003282,0.008764430575585874,0.030199254556245513,0.08216814917117587,0.04292312575392705,-0.14594700659511475,-0.12129748180060336,-0.01762898624376688,0.0027228186465849398,0.05169620452039061,-0.0069553196784183985,0.008209714090374073,0.015895255377163114,-0.002514658330190313,-0.09800132584219604,0.15521725351892968,-0.014786856398830175,-0.007263778422718262,0.009039476372874455,0.06312485289630163,-0.005901521141480383,-0.004666579202724244,0.05116751404418706,0.07449561008338444,-0.06572524605272384,-0.016250875173561385,0.017678880316290328,0.007896835006326255,-0.06479827406307279,-0.02236557116126852,-0.009771787411711558,-0.044299718190303865,0.06471809573764536,0.036474156544088254,0.05179274215996978,-0.10080352640162367,-0.013709821564102873,0.09542498878341633,0.07337646733601734,-0.011309355958672846,0.03806343694820917,0.006967635901274388,-0.05104613981971592,-0.07593768688225774,0.04054370256128967,-0.06209502420386419
212.9728546142578,1.51849365234375,-0.05346727059650648,-0.006474515650856799,-0.08143750047126161,0.04459056841860022,0.03816835869684418,0.038654271859360254,0.05885010697168973,0.005740760771819266,0.08702443867506199,0.023667147241911535,0.1044425660596994,-0.007508097903575688,0.006286833283959655,-0.0032550234903188694,-0.06298665675430526,0.10623794365849959,0.01672443030301324,0.004045141520692536,-0.11895818785202977,-0.014540140364630336,-0.0369790252469813,-0.01906117544423088,0.052377698193753174,-0.027296264636919712,-0.01604037308226222,-0.062229195233749215,-0.0306175806002238,0.021485925064865297,0.01236375237554383,0.12674109394354016,0.1413039820968698,0.02546575890978127,0.19686257297681148,-0.05008943938232276,-0.10569194959012473,0.08242769516288433,-0.061131671225392356,-0.17252423864292493,-0.05890773722496558,0.20152044988173262,0.5830569023126202,0.2743989750706435,0.13411215257983122,-0.07481342569777241,0.45652893202457423,0.1077161393210227,0.2345699613598693,0.3595425874683537,-0.002422286480348229,-0.5436217511975906,-0.07733049095888188,-0.4759996575229409,0.11554185602211253,0.40369460227311066,0.10148226315926438,-0.14120449101965288,0.08942978305863358,-0.030517583738320402,0.017398245303696155,-0.015077249612702725,0.006727501321189651,-0.042914585527379284,-0.0018198218673123442,-0.014040172193214382,-0.011298656905352675,-0.010890404731067923,-0.08249163862435069,-0.02098467380363282,0.04806093600150181,-0.023883599301506728,-0.0026057052797951565,-0.0027333868576685507,-0.048087579336829174,0.08359801038107051,-0.04295647897705704,-0.06956327215046702,0.07825219920934333,-0.01603499116201485,0.016380478908645135,-0.021702812117877092,0.022293157123417225,-0.11450129448874337,0.006517924892080236,0.07913909755580986,0.01519042280885638,0.03262953355160741,0.06613149249171665,0.023796905414783125,-0.0052281256232099855,0.022141227552962266,-0.026086374027053258,0.0006137713117948947,-0.0447016671246018,-0.015667278587674506,-0.0012062704633335698,0.024324427818511213,0.007907027729058118,-0.029524918294138704,-0.05006375606621543,-0.19849518978841196
214.49134826660156,1.45849609375,-0.04857672268673063,-0.027190328636827094,-0.01051456284610098,0.03823851565338587,-0.016877440144550376,0.03789236669988992,-0.006722187676831415,-0.026489594434724217,-0.0141133103379749,0.04218400581972442,-0.06937733412399161,-0.015411324182501232,0.04918413225492941,-0.031480764645108655,0.057981612491956026,-0.07841081071486665,-0.03172939074812452,-0.0028624956022957936,-0.07407349987812745,0.12791056628564812,0.041551491483438285,-0.04964370410642061,0.06183387880004135,-0.05718844744398866,-0.024291998637066596,-0.05463562438177218,-0.06853949470598028,-0.0003005392140863067,-0.17315604610698745,0.1642891983334049,0.025647648755938723,0.1359255329127305,0.09965771080164501,0.02180556058114883,-0.0527319209533847,0.30533594826523697,0.5370912618897323,0.7678746096585022,-0.08867515416193508,0.05812779213563499,0.19715319830716083,-0.027148990286819427,0.21415778353393508,-0.3425737465920012,-1.590051580428058,-0.32113608321560094,0.6378575570502719,0.2849042708742416,-0.0022833204030611367,0.07067646128412457,0.5211032682714631,-0.013367182865518586,-0.2748938299310122,-0.23579262917669389,-0.02691557005439569,-0.16309796543242783,-0.16833060870852745,0.18492022718450768,0.023781591643357025,0.0063688593797664615,-0.09747887137527414,-0.0018188771266761875,-0.006158587153320294,-0.0666378040699627,0.08525974745261838,0.05289817211935435,0.08028308638328327,-0.027485720437290796,-0.0342559607113294,-0.008438776234692934,-0.003595814101219043,-0.0480771969128403,0.02394321975476533,0.039966874285234155,0.006069591681094927,-0.042629671639009346,0.031805829354893025,0.006855978627054995,0.011824476983649515,-0.030974159585742872,0.09277649992763075,0.03229486751304318,0.006630665604921923,0.05240704678331415,0.002238947156286637,0.024326258249901905,0.07957828296639377,0.0019629722809775324,-0.03821080500875317,0.047945966891958694,0.018403066051445482,0.04245203381706118,0.051292310148006684,0.005184158068517509,0.008629449502145661,0.04797642457637941,-0.022480556658047435,-0.09580303791536177,-0.05721976437136796,0.02480042445246615
215.94984436035156,1.438201904296875,0.033610450834997696,0.034607580238726086,0.02927344440687348,-0.029026794620637966,-0.09506253107649731,-0.019904724271841263,0.02105776922123633,0.03367685873929282,0.035755191359586866,-0.030827474592447654,0.009070275812845613,-0.13686508107384235,0.0007017429979037429,-0.03871066035283712,0.005897896587961903,0.08653367866146233,-0.09745894409160914,-0.05074928443776952,0.02834038141152306,0.02973533387036324,-0.05275586194933616,-0.06591301042704684,-0.12152416868233044,0.037495168089269997,0.012335421443449499,-0.008477630392317925,-0.22948994279501023,-0.1050203546567359,-0.0938628459689941,-0.049484761996829205,-0.30090257488330235,-0.1345800390195425,-0.03601771033309257,-0.05354774975089696,0.07280866777901498,-0.14494194658915888,-0.18707385693338577,-0.5959470072874155,-0.1417665075007932,-0.26823078496344893,-0.30144801939779087,-0.01805961954886831,-0.025664392385168412,-0.05673135333550626,-0.013688038833054257,-0.07999619094952604,0.076119858979498,-0.09064534402241999,0.2848182177356386,0.175145859549626,-0.9470815183515822,-0.23736263457050816,0.07091712816005219,-0.02939291783568873,0.04779248936863825,0.08948653932755948,-0.03392737425440588,-0.08415179516968595,0.05752324115687034,0.07274437057548175,-0.054057525913699084,-0.007144961481310621,0.017185181856176002,0.023646031887628278,0.0011556239694114955,0.013836165809227273,-0.03230044082360886,-0.061910427622591295,-0.025577882465531745,-0.06117443950494514,0.014785082148718511,-0.025977376949105013,0.008333588551527934,0.02900884960695514,-0.02356398663419053,-0.045624425250671445,-0.07324651245303646,-0.06280613041950048,-0.02504573239427749,-0.03367973170369924,-0.009417653766551392,-0.0355620587214433,0.0069781652601234685,0.0004858651283405381,-0.05843714484494899,-0.06258665378022732,0.017140458014089713,-0.019885552865262723,0.03227456519419195,0.09825711378255685,0.006704762405573709,-0.07780883523490403,-0.14315016490880095,-0.061823516122809105,0.0686726497671164,0.03367037693714168,0.0023521812262315947,0.0036424731738588867,0.06478827364400357,0.07197675801206285
217.38804626464844,2.58709716796875,0.07896778170268957,0.00561494280894408,-0.03235515035481536,-0.027128935563624508,-0.003427086560004559,-0.022871913676673634,0.029210164681097408,-0.0012904783136146803,-0.003906685921345035,0.05628337901490911,0.08805286534756027,-0.03821737274331948,0.06874414531432566,0.002097942356874214,0.007635515874317402,0.09606388199062416,0.031699716141559635,0.10700911018660686,-0.018762087594819787,-0.15250157181066754,-0.003138804454406333,0.2126598786337412,0.012684257874912931,-0.05754006623047843,-0.1955039148269264,-0.16686503852466997,-0.00900762092472539,-0.10070506693309238,-0.034642843443052906,0.014849398777505643,-0.00929442702120832,0.01875360656912739,0.15943739524296585,-0.04699507168333905,-0.20037023009480465,0.16521714785506836,-0.07802779788138155,-0.08745627773219525,-0.06646442091339871,-0.5788149513615962,0.050459022013969,-0.686736543492625,-0.14854834384282864,-0.3454554244795636,0.12502569717417467,0.13981702526364267,0.13892797817086724,0.1688117399734141,0.37106685017152646,-0.375000421441064,0.37831039303764924,-0.013701246948338353,0.10428484793134274,0.14273163911441883,0.36444356057076926,-0.036365371959726916,0.03676377210581671,0.13963967352452353,0.010090956369884403,0.002844751295506806,-0.11104943062358928,-0.034418279754752826,0.03317594856623342,-0.023545517800123164,0.05236518861054405,0.01776510907190838,0.04691063298819894,0.0024826325852559594,-0.09242233345950059,-0.05888772727746378,0.029546176080875557,0.03472633177384582,0.01605953977195427,-0.045131195354446985,0.04956186724515076,-0.0190124391642641,0.010172785227897205,0.04575239541470921,0.08464870335172647,0.0577093482109939,0.054118683531018584,-0.0028855168823894886,0.039159036861406274,0.062122462770486796,0.03311713219407551,0.025665736531850298,-0.00397607969336126,0.1143631400425812,-0.03047094169074866,0.07410364454810704,-0.023265655244286147,0.006186167031894468,0.06820531881358896,-0.15630382812892393,-0.0803898467221714,0.038196438766677006,0.041780369979910435,0.017819614469128404,-0.09554410749174842,0.03253727892597518
