start,duration,0,1,2,3,4,5,6,7,8,9,10,11,12,13,14,15,16,17,18,19,20,21,22,23,24,25,26,27,28,29,30,31,32,33,34,35,36,37,38,39,40,41,42,43,44,45,46,47,48,49,50,51,52,53,54,55,56,57,58,59,60,61,62,63,64,65,66,67,68,69,70,71,72,73,74,75,76,77,78,79,80,81,82,83,84,85,86,87,88,89,90,91,92,93,94,95,96,97,98,99
13.6589994430542,0.9195003509521484,0.11692811543790017,-0.025971517650929688,-0.0177392427349179,0.06449266121797792,-0.045857144978600786,-0.12689147780985963,0.03891840198187026,-0.057470448509005734,-0.12079871877491707,-0.011871659313098698,-0.14347176134037154,0.07844762913207122,-0.0034484232461795498,0.018591413233517803,-0.031706150136963894,-0.06182867070757212,-0.12800150826059037,-0.015425381628833182,-0.0254280942632453,0.11107509141484569,-0.039608413701201904,0.07127085940687675,-0.0919921543828091,0.0018052284370601874,-0.2727695765040728,0.028277285552661756,-0.08653251179858283,-0.08071516606914882,-0.03565195735138417,-0.049079626091973944,0.08845683517116307,0.3189645855562965,0.4780261347963013,-0.5294231843793444,0.598359331386786,0.11373437218517121,-0.02062720583076002,-0.0967124248320555,0.9132314937512029,0.5532734894424012,0.1874324997006131,0.06017875846570084,0.6013945930380156,0.4679963077808436,-0.18475844111001172,-0.33117629361238066,-0.19311182394987206,0.3251569275065749,0.39484543971290936,0.07264716053962408,0.05462409942706492,0.09813609793916783,-0.018606275249812038,0.0006445498873294464,0.012504065868028756,0.014381158623504045,-0.03257413767553307,-0.046919651633694416,0.01373548887801232,0.07059539151218938,0.04294733001575231,0.043421153540396995,-0.06607804532274525,-0.05319715796653905,0.0348125196676352,-0.05142561450136303,0.16472387605229483,0.01378309276940453,0.058771377960300235,-0.021810949193320175,-0.04836422940952584,-0.05181093834737119,-0.018879916173027575,0.038763988911487274,-0.013520976119261428,0.007828056194074881,0.0018572984399097686,0.07439577340088821,-0.01014828610954245,-0.012675347993725381,-0.004948126753532619,-0.027199424427169952,0.01544809667138288,0.006080930621017262,0.0035770250867592918,0.01503657207036932,0.01765165443720598,0.04025570763466541,0.06902889962793814,-0.0011610357643659266,0.00971635004326563,0.03326733944023412,-0.0900001101607485,-0.03201486513157204,-0.012230202960334984,0.048261971321579895,-0.032703541433470734,-0.06000933664733695,-0.0051344487657991045,0.13605333006210982
14.578499794006348,0.9289999008178711,0.006736368844393575,-0.014842990237656211,-0.10755592183207026,0.06570671618224956,-0.0783296052386331,0.046073609274565094,-0.13539034312920595,0.18475145256428074,-0.2657318395400724,-0.20754371258238186,-0.07240304364339115,0.027637140732312254,-0.03769750669112328,-0.1082457693779274,0.0021449848506937255,-0.09889065685790882,0.1814450484703854,-0.19187381096059886,-0.10913882461885346,0.07269212732001093,-0.04886367409294749,-0.134990427170563,0.03151775150781906,-0.08517171282060865,0.05199517962401245,0.07245255648252501,-0.045225820624749946,-0.0890603613417954,-0.23397022727653302,-0.3285794906698439,0.14012320659342037,0.052901593533847414,0.4299472067490677,0.08840444796430023,-0.348647643522977,-0.37110379991722453,0.8295974406594144,-0.10531559970089548,0.30073162749721466,-0.6172451805139596,-0.16375822057381656,1.4479271042526762,-0.38841430321627757,0.18308427125989205,-0.06956490613996871,0.015916856248908234,-0.27409733140895043,-0.27676126164198617,0.28158394145853427,-0.0015251441151402359,0.1499156592318351,0.11576340896765351,-0.0040406055161771705,-0.07804665789101595,-0.013879826482603263,-0.05009593707180998,0.02539946636708945,-0.019972782081544058,0.0075190259408238515,-0.10289979216922512,0.11920085451922485,-0.043472066814934075,-0.010098070551031277,-0.092248630344619,-0.019175370553868018,-0.0028263557201089274,0.06751637786397337,0.03078435285721639,-0.2466457044484665,0.012816407721874357,0.053406528795506,-0.032627538455079264,0.08869230414618885,0.1069263736516826,-0.07383285106790877,-0.03485608067315496,-0.07102506118401698,-0.08065284172365536,0.06204577840517739,0.03275814579490258,0.03175437009302725,-0.031241107986084114,-0.06085870607639002,-0.04171450809535491,-0.007925923425597284,-0.054374742715361954,-0.05052330848953573,-0.05690814120255723,-0.03801612258868665,0.032955873453693725,-0.009487969557721961,0.01923332761092869,-0.08139339439027435,-0.030995052151439707,0.03125526228015032,0.014090102702604919,-0.08164165816335246,-0.03986773183377043,0.07445275637785931,0.05720176656386659
15.507499694824219,0.9689006805419922,0.06699430990395064,-0.015135159645078777,0.06574711868970684,-0.14947225540193038,0.15271852286365795,0.08127774878149341,0.11150341606092298,-0.009458719286843165,-0.25476475508384083,0.7471296142215745,-0.09837462096153202,0.04733134368018605,-0.12233364583787534,-0.011238719656513274,-0.1837683646927871,0.24486087945015844,-0.3207629800102513,0.39701517648971296,0.6706027868539162,-0.27835407260215417,0.04385897361285132,-0.028861990962386952,0.010017377411975583,-0.07474496003796201,-0.09273048791298119,-0.007831951062470557,0.05883458228676256,-0.01130113439261192,-0.11174102338605842,0.4698083575482233,-0.4225765919767701,0.07121197115907782,-0.05311868756254068,-0.3396508895065877,0.019829414444145464,-0.5855885415277441,0.216940327536672,0.7199684495877908,0.06468828524085463,-0.8156860418109306,1.0891447696256238,-0.7317252627904219,-0.33529168031754053,0.21420014212145672,-0.0059980627103519285,0.21442814648307568,0.845795797772538,0.8065043224067298,-0.1436692025650013,0.07485240038704077,-0.2804769733336153,-0.030384757434039372,0.05310711011104964,-0.043963280996816914,-0.08030915966789763,0.019633791483596015,-0.027378747742457826,0.0351678845013331,0.056318054984092876,0.011144672504266765,-0.058699463083455375,0.049633089327217224,0.05960452039844501,0.03924374702455971,0.010734778820063781,-0.00439044947726284,-0.0681274690461841,0.022608207447186963,0.06451910338824207,0.024576401682426866,-0.09630012335007883,0.0665220668327261,0.03605195256230291,-0.08675596169085366,0.086316324333203,-0.09110581464029369,0.01866191506138771,-0.02286202538465637,0.013488541564855829,-0.06661081051213281,0.05082592509181779,-0.04034001577434082,0.06897245795981512,-0.03565865835135881,-0.06960202891662735,-0.06545827143692035,-0.0010487444960542835,-0.019675836824621873,-0.009426626342937366,-0.030334020935649374,0.06678276850289548,-0.08698413608670202,0.0293522749923447,0.016570634878208743,-0.04160773789555622,0.08893217714097457,0.012698152004848834,-0.0628690960438876,0.07365636980145619,0.0864917182500725
16.47640037536621,1.0487003326416016,-0.05830220015450773,-0.1158432480639187,-0.08199108374359819,0.05804455079606615,-0.24024204425134743,0.059588856294644325,-0.10306427290794909,-0.0749102024546768,-0.04488696126342291,0.10018346835214277,-0.060232430869009285,-0.052790319854804646,-0.07369824508515346,-0.07981517800563175,0.2194602088241744,-0.1263056439644948,0.08922771383168217,0.33263329878378056,-0.16476707580759833,-0.022705411613208104,0.05724477321077145,-0.0006778746173647162,0.030648030504162073,-0.024442794437452994,0.026215188219451294,-0.036447601244942576,0.0034936692307889405,-0.06919347223315067,0.09799242001190626,-0.11353159904720382,0.43164904523365555,0.05288313773229629,-0.4911557409256787,0.0855547729031783,-0.1130892775110751,0.042616740581663176,0.2180592187295773,0.5898382647453129,-0.5827259261613047,-0.12270873113695262,-0.1349389915117818,0.5434662051617734,-0.13390762872727566,0.38492466932698066,-0.17947745095337864,-0.20144815919336048,-0.2357203029384293,0.19565875943062905,0.6044480716588695,-0.1268429291930354,0.23363746671044558,-0.4221046083357627,-0.004546866529945525,-0.09386956239114151,-0.005073724775599786,-0.005359866183298562,-0.009848285576405632,0.02681388819266429,-0.03833863901930408,-0.007308836373054992,-0.02709301006135429,-0.08215226720913202,0.024059463319852835,-0.014311355352129773,-0.04736285243719023,-0.026918979043727434,0.05457549665560479,-0.0717584751802509,0.09285947015970523,0.01668011368876086,0.08132623326922533,-0.03055083156254039,0.0028203444780310854,0.06198371684315007,-0.016068639479011992,-0.028232162048503234,-0.014366033803404643,0.05311796432134508,0.029694067846776542,0.017258122624213168,-0.04398574414176126,0.07012124684919972,0.020518836808804976,0.0222670649855684,-0.05169465362998336,0.10426120123972013,-0.20165202099540036,0.05473656192728203,0.008511303417941297,-0.08089715783527522,-0.06604584032473504,-0.017419543586276183,0.06441230352278463,-0.1506018905752909,-0.09670497502662888,-0.02537531543097432,0.02870560638965984,-0.4451554495060725,0.008285936111390613,-0.32490661002428584
17.525100708007812,0.9389991760253906,-0.3093423346556754,-0.12020927396850244,0.0067907113809808255,0.13104607269742313,-0.6567807585530154,0.43975677914086386,1.1539212973164432,0.037591776214720415,-0.14638013175175962,0.03769061814536321,-3.679549795341207e-05,-0.9770125402430618,0.11455159851139539,-0.05004254832373972,0.0859796323604923,0.13270350265381262,-0.026555275990327837,0.2224392597048539,-0.6623631429075485,-0.25346681077430155,0.28288775985507253,0.047805654792218634,0.029026357409901372,-0.10810744830299485,0.2757014898300199,0.3679102028024113,-0.2000053366401657,0.20436391062932058,0.20041122889367521,-0.05113916474229993,-0.12659497516206492,0.4875325270262243,-0.1285629565767682,0.3907260761891123,0.5429435944377086,0.46217623569365057,-0.07168230750591954,0.7983958678224922,-0.4121485669056917,-0.2505475284171278,-1.2484172248864769,-0.06387295455009194,-0.26814563832216154,-0.02865455869780023,0.02424034563330206,0.8051978173731711,0.16533416659322026,0.09062999648559517,-0.2222456413131417,0.3006372018307551,-0.07700006503003748,0.10177725681394201,-0.013164105203216104,-0.09913281362986155,0.18226709298769425,-0.046564925918185604,-0.042449853238111596,0.004072486475648722,0.1570649702822953,0.06908460510582241,0.062471775051877815,0.021204207608267682,0.1178350270054991,0.013230303394672991,-0.032434530357216954,0.017002145976500568,-0.0610079801596178,-0.03902609827977528,0.015618584387801462,-0.03559317186892778,0.06170727589530438,0.11111874229133756,-0.10626274801180569,-0.07748501652188619,-0.03556932385843867,0.020515202095204577,0.05345344455679782,-0.004533373677352823,0.030228497374750297,-0.006035518433058004,-0.06878540059227987,-0.03432070492612551,0.009037045988424421,-0.0009157634980739319,0.005111798924842351,-0.026422657921840485,-0.029685276417955084,-0.08326930053285628,0.04667972008127272,0.07362226314008306,0.004320413398413332,0.026878070269729555,0.0018861907244615297,0.03995548607845647,-0.1808001489141614,0.007804058557964571,-0.19967270781592078,-0.02721426791039311,0.16784288186549978,0.22210008992102256
18.464099884033203,0.8791007995605469,0.08303408564228666,-0.024545706060712012,0.022358961862739002,0.029893548143248058,-0.05930139262117626,-0.2798523401801025,-0.05479361914335726,-0.13110110464191788,-0.009911488365680001,0.031180871074988382,0.005981758691820162,0.0005078690966954739,-0.1607831567422542,-0.03922554205281916,0.07375502466130171,-0.02948820193036844,0.04391079528077939,-0.024306041550417715,0.03079560841668608,0.07112014379142659,-0.09360781705763423,0.14030651590083074,-0.30149808375219633,0.22448197209698967,-0.5988349895468571,-0.26828410642399225,-0.4886819613613937,-0.1336023259739597,0.42139722020389425,-0.12821499846137444,0.44342874065916305,-0.3389201933427279,-0.14254254385851778,0.09929788877440561,0.7096133337615067,-0.3869684036595828,0.3477400814440616,0.0677022767072237,-0.4929376890871938,-0.5135814279221201,0.33453281162281456,-0.7788776027880234,0.7815069948529696,-1.3232401242802914,-0.45024705237093876,0.22834489196051716,1.0311917681510143,-0.008036272020943834,0.057918456733434764,-0.5112225496493887,-0.7018390758662648,-0.41124822636659797,0.1260507931646107,-0.03198272032212532,-0.026436077200641103,-0.031063415262503946,0.005371756461992257,-0.011602094339215142,0.021891846023184936,0.06853277342905109,-0.09349890839478005,0.03538937290587339,0.06904874972926645,-0.12171749921704553,-0.07963848176444555,-0.04500257016123217,-0.049535381773645616,-0.13961756772321582,-0.10951998649671107,0.007776448978204551,0.028130699437011086,-0.07378484211374582,0.02465885857087574,0.0325647356797309,0.01815492352988482,0.01903982745050281,-0.06075733498727844,-0.04908146115495331,0.01580547968441669,-0.12044738729140128,0.010196232106167519,0.10244122217793539,0.06943923404998242,-0.07641911497284096,0.045044468305350346,0.0057324071017755595,0.008168248157492817,-0.052758122147503014,-0.010693282826898215,0.04263858288716276,-0.008277152104745316,-0.0687515913229243,-0.05522575867657584,-0.03015401904782032,-0.04582486509376464,-0.007508124628107662,-0.17248978132750373,-0.02114512607427631,-0.028310968845133885,0.047872130691629614
19.34320068359375,0.8888988494873047,0.05544187303180227,-0.03251136238288885,0.12646709553957436,0.019346175472666448,0.05206841757755911,0.024678106891111024,0.028874946248162482,-0.1515675455716732,0.116972411036127,0.08079703023813559,0.005460960487378654,-0.033794561708360704,-0.0004159325037709176,-0.021463666406194768,-0.02923591362677185,-0.052323719522471696,0.387488287473287,0.053451859636594615,0.3119193857346141,0.017474737435251582,0.012957972698501274,-0.027128044206983337,-0.10559932258908974,-0.068861162388002,-0.01694367162066195,0.05709695012674004,0.2892659889709643,-0.26617513567939977,-0.10785000335193785,-0.26351117734534907,0.2027035700934777,-0.12946816357809943,0.1376134004385713,-0.15516149504368126,-0.01672157930542599,0.37536949610606596,-0.6291329787732942,-0.6016902171257069,0.00839040341627114,0.4531926204972473,-0.8523495858946432,0.7814414241977421,-0.7297520173580795,-0.44409171357719185,-0.18451171742372913,-0.5442177757887641,0.8596096334756356,-0.25373581903327663,0.12665550663558112,-0.05029158085217429,-0.017667923944359697,-0.011986147189206672,0.01291725850087623,-0.04154591386959033,-0.022698141439238664,-0.0901706775347898,0.054351142541390104,0.04513714176522582,0.028047942738755632,-0.14655901691965137,-0.06969949318076056,-0.04231874605164521,0.07901811990631677,-0.041147440034292944,0.10621481222595142,-0.030738052475341157,-0.18825529850208983,-0.01297259605884743,0.014226850601670657,-0.057342850506914275,0.09519424291470273,-0.06504346139906411,0.0005863241367893766,0.05794815462809218,0.01450689320124737,-0.06699427588078886,-0.06249231708405898,-0.14051772853919076,0.011225726206518833,-0.05238899705691386,-0.022210155586685577,-0.027880370219067512,-0.0205395171831917,0.026569503077746116,0.009270380514151771,0.012007273710536621,0.12444597315351448,0.06714560809065362,0.0007864145098556057,0.04983872809993267,-0.006651584796657867,-0.009994131853092315,0.0021552255333732563,0.030256738557346716,-0.1014845075715233,-0.02830132451428549,-0.06397716768209628,0.04444142769817361,0.030577072171057467,-0.08667044870654358
20.232099533081055,0.9190998077392578,-0.07251594069109935,0.08821985350198627,0.0594170406176972,0.08904904225206517,-0.10395030044040088,0.03809694514992259,-0.03193275827401209,-0.011406453280768397,-0.24944645682892388,0.24904055727764549,-0.3043098869724543,0.10368344978621759,-0.02761996963004372,0.024514745409067486,0.06851859772861123,-0.027276426533111867,0.17244734481810237,-0.19415054691208689,-0.10038045558072894,0.22180906916918522,-0.15229986308325696,0.0016119559308874357,0.04694279521015668,-0.27555698898691927,-0.18185206173649884,0.14086846181810556,0.11148989263955447,-0.1532241135914986,-0.3471541970551307,0.07795450211274663,-0.2948426808173137,0.6457173039096588,-0.09878122364663752,0.06230387824352023,0.09887876752254901,0.04729934151129272,0.11752582235472842,-0.036064882600371106,-0.45328407569462315,0.34803113437972977,-0.14766824532228817,-0.017195177754168636,0.28548636401417166,-0.20979246909071625,0.4136406925475923,-0.5404127569410533,0.5929520833147913,-0.3271857742543945,0.09285956705684789,-0.01987795592246032,0.18469090774572988,0.003061847674636671,-0.01038627513274646,-0.0018835322130532303,-0.13485526866235317,-0.07728202485444667,-0.041585419985369944,0.039961095163067256,-0.04082297632823251,0.004836282959566056,-0.09175675282988424,0.09499619664839047,0.07833784608436872,-0.09180931991559949,0.13320310281862804,-0.07361554255590459,-0.08822549344386793,0.09207081265602056,0.02992516764364358,-0.005888551844448385,-0.056731884152928166,-0.04199203210508395,-0.039225865436843615,-0.11023077096336288,0.012040990484892931,0.0026308292726158894,-0.027437764898877365,0.004890959852486906,0.006305795722643769,0.09161086339264267,-0.02505738878404112,-0.06470923344086711,-0.030885033104366813,0.0029181455541911518,-0.07945188368407834,-0.039425091650554696,-0.06678113167909296,0.013725426124512493,-0.015671937116985377,-0.08187165516959727,0.07524221681633432,0.11264786895000602,-0.03875630305438879,-0.09446742179773764,-0.06205784125732996,0.08759993891797097,-0.09478201571866413,-0.008846030923254332,0.054227628759014365,-0.10334592302512263
21.151199340820312,0.9889011383056641,0.04675208732438382,-0.1716538973415718,0.0718086374326996,0.13196183346374762,-0.07606534256507308,-0.03128078015832133,-0.10108254418094623,0.015346612177858345,0.11590049635538874,0.2377225231489868,-0.16687403656872096,0.014980645621353768,-0.007687453578833298,0.012627272739232663,-0.043619825364056675,0.37791675901901617,-0.3731958542061768,-0.08862004799568465,-0.0742665791170159,0.29824335709306354,-0.2402449750250209,-0.007003599868148136,0.09657278539138248,-0.041288487364961136,0.034840730987308326,-0.020155973827059692,0.03731939694736032,-0.4535204140700092,-0.015066373009591058,0.06928328156412908,0.1325293627633569,0.09196255595920302,-0.6957506752319149,-0.32357864227131883,0.20492170490229408,-0.1847687176013747,0.1300783624265558,0.25822483828734827,-0.015380633799363025,0.38568275304729416,0.08824690191421142,0.06675032223143591,0.48760106549491455,-0.4169043894909194,0.13731061304833275,-0.21163275885377247,0.00474373074765317,0.13448233618520744,0.3709433644603078,0.18170841512319016,-0.11866648482099737,0.08663522346411975,-0.009687816582478817,-0.0589570695184509,-0.007301216636674254,-0.03875588304208989,-0.045136153372520124,0.012068364425275297,-0.07635774662442522,0.05277045202994195,0.08389257999579736,-0.07386930328403105,-0.034901187628297525,-0.02889089316675669,-0.04659321135826389,0.0678056899295076,-0.14693510262766202,0.011409408853731456,-0.11133401026421196,0.024373347273499393,-0.12379534843493607,0.07595088248097928,-0.03595602673668108,-0.010527181109510744,-0.09424701767028568,0.003884076706366575,-0.031023176738182823,0.10528559306268057,0.07158546727727963,-0.11309428411310064,0.0010737268508174275,0.015214576329331295,0.06751646395149721,-0.0027475352176212077,-0.015397184416715948,-0.01039016574054558,-0.12206678124079857,0.018731615769494798,0.04529199794118449,-0.025197111724967258,0.059288033236022754,-0.08882659543115588,-0.0056253057306897905,-0.030716067521481014,-0.039856333920173084,-0.004324251403408359,-0.029471149990774742,-0.06922741839814506,-0.06026310725083739,-0.03143684947245816
22.140100479125977,1.1688003540039062,-0.026753319241473984,-0.06712228971191234,-0.06006821675321734,0.09918056760931274,0.0454908667968274,0.003631388372324018,-0.020303682877765156,0.1495463125099347,-0.05821685105045011,-0.13305498040520455,-0.03952163786703597,-0.05412746221276306,0.04829870973351632,-0.04468832801690143,0.19830966066367728,0.273873198106835,-0.27909343725124236,0.017625623018473112,-0.02676008137152248,-1.6670594085446786e-05,-0.016856417380133645,-0.04545349748669414,-0.06372600078645695,-0.028935498718649984,0.0016362191667356786,-0.015721576735671296,-0.07131833069779514,-0.028356573530830233,0.08458068432566081,-0.4930420217355138,-0.11149104415424647,0.3402238806159877,-0.00719696309941778,0.10098599493174426,-0.2166149024605852,-0.05780334561612213,0.12342577799613953,-0.10650910475527445,0.014197454089333428,-0.01946507065923958,-0.14284874243264353,0.3206991151121188,-0.3406856254703083,0.08808086755817218,-0.3155047654884032,0.15009051204862686,0.3238012450827882,-0.05046934976864231,-0.15467960105398632,-0.17517704278834467,-0.2738341456717288,0.002334082188781318,-0.09182971724800823,0.0027649211826068156,0.008017662151078735,-0.09115987437085042,0.014771570098368648,0.021925581251449975,-0.06558741490524132,0.04424701630168247,-0.13569906725165032,-0.0065685597371474246,0.16107915278250207,0.09991636714113372,0.08089981934618518,-0.059905356109016504,0.02808722398105683,-0.000987822659978984,0.005672497336647944,0.013558939558929416,-0.024153617051908927,-0.12522682721747413,-0.05405286483509633,-0.148965552548916,-0.0067755419926396115,0.060513264938920674,0.057180184444332385,-0.05942458760046583,0.010493007888740344,0.0422012106040997,0.044663252479032745,0.09013648182468109,0.008462004811489274,0.017830492023075434,-0.01568536004201613,0.04573464078091896,-0.006938071746223683,-0.06609452888101926,0.01568849195123755,-0.02880863847703506,0.06746508445276242,-0.007758210963719925,0.0615076390790699,-0.007892312003944565,0.03535718845642252,-0.031508793715486295,-0.0047514044246254605,0.0544499241653725,-0.059951743294712215,0.026481435386710942
26.095699310302734,0.8991012573242188,-0.2471863629478718,0.02617216881130354,-0.02774484165658611,-0.31824552725590677,0.02855936791531877,0.04540122946323206,0.0006893043062235213,-0.02432140443688926,0.021962909122278607,0.06526265256763364,0.09194447111762213,-0.1142164675295495,-0.09980986385387804,0.1260269803987471,-0.07659096396786162,0.055078069678384994,-0.1795002036753496,-0.15398949829526984,0.15336656297125528,-0.014662390985741666,0.12423491039348568,-0.0853693087462882,0.09691412792638042,-0.07245718797266482,0.03212745727059394,0.01243784336371578,-0.33056439368569934,0.091940517421296,0.02995816261684109,0.28757314209843593,-0.08467981319639951,0.06683536103475285,0.46180870078978875,0.6774386588808132,0.9291052319587451,0.3811818203917806,-0.11897456720251784,-0.38835207117424175,1.2744359346922385,0.47666897394807706,-0.2599649045226617,0.44327800802377826,-0.2259706207093139,-0.48604497360850996,0.5117722962797525,-0.032203777970505235,-1.052095132770769,-0.2781489947149627,0.6729029558978399,0.028231108080689207,0.03218853432584789,0.07621106360497952,0.005889515105220747,0.0018683406209682482,0.03926001806228421,0.03392554726313067,0.04417082080792177,-0.008678030388093845,0.004076710449377881,0.002894487740955798,0.10239194234188244,-0.01381148077937367,0.11107636825026065,0.0871070543680535,-0.08523802543854768,-0.07506648386191311,0.06787646458624867,0.08942422596468573,-0.0874607939327719,0.06839304955746055,-0.0629525832987852,-0.06885246159414851,0.007309391655400496,-0.11301405819207991,0.06154635775125068,-0.02563405309741311,-0.07517434652755736,0.07451900634459424,-0.017934009677733696,-0.0036227135344999526,-0.01582086091651693,-0.05646139083351686,0.07163115889367903,-0.013491270159310242,0.047669072552564015,0.000877704535723443,0.0010306569325846484,0.0705658739675469,-0.0036843148522400088,0.05332000354985809,-0.07363013523795764,-0.08005603831603723,0.020674266589469848,-0.11257744926654212,-0.009674976356121315,-0.03709537706657684,0.012332966234371256,0.16448237054679016,-0.07752045645764324,-0.19134473410846117
26.994800567626953,0.9388999938964844,-0.19636747034691204,0.05648637983986098,-0.027728318247572166,0.14323544722483983,-0.06564436746134421,-0.15125222628394797,0.024127715119944822,-0.39152409297306967,0.6158949564348526,-0.03705825225333052,0.1460930177846898,-0.08194678834863735,0.13562505193772562,0.09276633830436885,-0.19460538066123917,-0.08767299939043023,0.06841928351270105,0.5458760448459881,-0.4359355970105547,0.0626396765531218,0.0929411277087714,-0.0648274054361047,0.042173605536104865,0.03183863019926945,0.0634128589463691,-0.07036798791757282,-0.05699552370118843,0.06382070852199281,-0.181801377236711,-0.2556671342880045,-0.28998645379620236,-0.06247951328243568,0.8087864983857098,-0.791002817054972,-0.12772434787521833,-0.783042533662856,0.03626596841890031,0.4918239690763514,0.44552977540550875,-0.32108330826451487,-0.17129368086682425,-0.0933255674673053,-0.9787503070067296,0.3478288792061951,0.5665680869257687,-0.12341765646705799,-0.8872261094095146,-0.22833631431231008,0.3256474288416304,0.09039718857775887,-0.024514727068700948,-0.09306015293339623,0.032563510807523975,-0.03253136686846422,0.0744286897534551,0.0451139996375531,0.059328103602787965,-0.004791610907758972,0.0480329134070017,-0.055718756501295756,0.09763492438598348,-0.0300981833943653,0.16739092046336113,0.011925236557668745,0.12189302184429514,0.014452330564452609,0.07139978533552932,-0.08563923794123512,-0.13963397827029295,0.04138951761551064,-0.02191269558767231,0.004121135352977422,-0.1324636426794602,-0.006984201927605654,0.08978322082787966,-0.019327532662803522,-0.030236105655050742,0.04997664451318547,-0.02665098755612323,0.05749547729577788,0.0001071481218757848,-0.04496176342627504,0.015059009830737925,-0.01628673495003915,0.02001813394991636,-0.03298288824987249,-0.010051033380967455,-0.0706606052427881,-0.024357413569746363,0.06725651978057286,0.00274097450051289,-0.00682941728819091,-0.01840595195370788,0.04541667963371617,0.09301771761075883,0.006615834930588251,-0.14432709518155834,0.03716756491817243,0.1239372239318352,-0.01567779445946154
27.933700561523438,0.9090995788574219,-0.031221788551044953,-0.117168915310857,-0.13866469952439414,0.040535156553389406,-0.06258366536797579,0.06180902593918729,0.006091611901987919,-0.03710643615728337,-0.25838613271104804,0.13927811821575106,-0.017298384758973398,0.07368226501979577,-0.032853722908356905,0.12265275132061171,-0.14378485997403206,0.08369121317679824,-0.5689606150913178,0.374383241049367,-0.7875138270878795,-0.06668732512445678,0.00333050449484925,0.0968509765849136,-0.005891121683808065,0.18592619635669225,-0.12515692495780584,0.14936508761009895,0.2826919277926579,0.2565908184890803,-0.3245353962962236,-0.30808026567542457,-0.2360310665087213,-0.1527623130342325,0.3774628097106599,0.11708777322646688,-0.27125015590580276,0.13420587391941935,0.5082172903492814,0.5073851413380334,0.18128133982926628,0.39534099680557516,0.1061776107647695,-0.1364605519667687,0.09117179120987658,0.1933779233697404,0.4582638477789371,0.22980555216440202,-0.5427162450945331,0.2577700885080635,-0.0016096391929370166,0.0048068798574765915,-0.05026823455033835,0.08536865688512996,0.033956835827569934,0.008819337570728815,-0.037540137296156795,0.054664648821773056,-0.0004910863076005023,0.010103419128414032,0.08865538026943091,-0.12143589383511416,0.018824717889682555,0.03126125996952771,0.1573407912185587,-0.03997334232860948,0.03052610258260801,0.07593599550746398,0.06350343161410757,0.13626905796871802,-0.04118547467571628,0.10300153406977025,-0.021353827456147216,-0.05776901236519385,0.04394609391122571,-0.01583882814383089,0.026650202746826338,0.053577996878159666,-0.03077288223184811,-0.03689986830085709,0.04616112513775186,-0.01779617399892432,-0.037847441880949614,0.03824833727178273,-0.057275205610733376,-0.038118166016680874,0.06020410337187986,-0.0759190009707256,0.05883638318607915,-0.008016721802200099,0.07721815259255764,0.0019039766047080754,0.011998861235303547,0.027437726752939956,0.016616279149652594,0.031089307877182365,0.030778156877911682,0.024910315046023375,-0.052951591408499574,0.014427921024393376,0.011230012775436242,0.012081171682277767
31.71929931640625,0.9094009399414062,-0.18843160394665753,-0.08858064335744813,0.15482242639058827,-0.0471572285062233,0.003692747698798529,0.03068407059707999,-0.003371086404778501,0.031989902822936914,-0.020764183905376116,-0.042087485563061036,-0.0020067787115716626,-0.11613106866999928,-0.02003489639975042,-0.026839194234875366,-0.037127022519962485,0.03636342598368582,0.10156413377613768,-0.010346504809981718,-0.11115934882668951,-0.2001468464919431,-0.11881488123725593,-0.0197371638763105,-0.13346971183371048,-0.07124492430503067,0.1312288633482996,-0.09515238811864057,0.03018792470112404,-0.07683638059209327,0.17037789918146662,0.23621987699458974,1.189371227155387,0.024394169339544785,0.25721096979181013,0.03150431922774723,-0.0031417719176631068,-0.06542028577043886,0.5408661133105558,-0.3795984994556512,-0.9938442889095545,-0.968235845274345,-0.31224474677823766,0.3745832044333497,0.5607870482963073,-0.8510132470982928,0.8581570909405091,1.0793818489572282,-0.2926441327614004,-0.0011008349251974484,-0.2663691805129916,0.3386175410355033,-0.10873148755758356,0.1282671657726318,0.024607588919691673,-0.033137866886775474,-0.046997465277742644,0.04900979563410594,-0.0054516765703423835,0.04760020773604703,-0.026582573003147356,-0.006478779014508146,-0.05313489097470835,0.07801283267295399,-0.06806884024893674,0.10705779374822456,-0.0594018130075298,-0.011112767118811573,-0.05069859224109254,0.07249743945401578,0.028949506777679584,-0.053049329545445306,0.038935696601768974,0.03275872628141112,-0.0003807539899822445,0.014136576566414795,-0.12476247048908368,-0.0006461226648521237,0.09204345572355062,0.02723720718860491,0.0349996243335647,0.0012536544735361928,0.04116184568283993,0.06519691219512971,-0.03608105700439147,0.005771315932247485,0.03135295446501501,0.06646011048644566,-0.03489132380047055,-0.018128545020967946,0.06888786276578489,0.09210219823169216,0.0037015556269008,0.09830049635361339,-0.021552606434271215,0.09318209761201336,0.15158139072625962,0.015115044788490628,0.01483623528248639,0.0034387485479031796,-0.05417838556933657,-0.1629069271261597
32.628700256347656,0.9288978576660156,-0.14787885034236853,0.07686725675653451,0.004837348593717941,-0.2980810426990065,0.03262172155831883,0.09838759991938197,0.3171395584154219,-0.06819663637077845,0.023097801826523084,0.11131369454481593,0.02944670531123144,0.020394508138577787,0.1510224058773449,0.021312002200266186,-0.2913227261407639,0.16414066515748924,-0.38979620575132296,0.057246077086844635,0.2396363868880369,0.0010683925674237202,0.06961927483239179,-0.02653135452288042,-0.04657428970422697,0.05587592503174045,-0.12495015552804382,0.21077178090131915,-0.23488208223446655,-0.17418300071004,-0.015067363484843815,-0.0982055889846556,0.22279366058667946,-0.27097001586471636,0.4234104773100529,-0.09992570686893325,-0.13685164811543046,-0.1308370977876349,-0.47677867599402945,0.5181214631313562,-0.28183585647414816,-0.6304022333976413,-0.38660592009020817,0.2854937115670911,0.027972778515174962,-0.8340858937721852,0.8958955378861241,0.001327630249678663,-0.9367857931942479,-0.05494614576583964,-0.27208019627058,0.05668906241202998,0.10866397251028219,-0.0875240029831283,-0.011996093473767757,-0.0017818339723377828,-0.014704198412121724,-0.0058810088637213775,-0.09312119818814638,-0.07486714494323406,0.06146823925400718,-0.10758770755961988,0.13470406822845044,-0.07569334482283586,0.04782699112786508,0.07704337954943219,-0.10327856276436354,0.038484813695616196,-0.1740639409827765,-0.007316050768175875,0.10279412976526245,0.018372178378182672,-0.034355700175443434,0.09423847209809022,0.012333064655818887,0.10633145016826658,0.007582201005182546,-0.047887053851086915,-0.029873167508884774,0.009741216875614331,0.03618763552742432,0.023133769482867356,0.04576993747777753,-0.036209583183660535,0.053507866861518184,-0.05150169436693029,-0.03259151639068969,-0.06382829821530414,0.011855575696202403,-0.10011853903227248,0.09445749777865027,-0.020395219974070775,-0.06586599266441295,0.06695276788630491,0.07292705420303106,0.04525594372155507,-0.05174077144187123,0.024906430263332432,-0.10858112073181851,0.100661997893737,0.07822691866906777,0.026922741777671927
33.55759811401367,0.95880126953125,0.037053947754980485,-0.09316967895316838,-0.019035503455473675,-0.15777249414352984,-0.2902320597496787,-0.13387365938293325,0.11715078446218918,-0.14640924539652345,0.016178676667006734,-0.1397966324283583,-0.0471713351081799,0.029609671400122748,-0.020183425947162974,0.03907104592984506,-0.086922918278171,0.3303603425710018,0.7940249501962722,-0.32371257278520765,0.04617884064176672,-0.006928150268223846,0.026148003039544423,0.03606679407422179,-0.009324575349009849,-0.15410143835740428,-0.03613211326718334,-0.17384177764281444,-0.017435639915733755,-0.16242601688566935,0.3002975281145298,0.09257036618485906,0.3003761604423834,0.23547791812592722,0.13493438086001275,-0.2746774632574694,-0.09166339542818751,0.600424074071099,-0.16237648155550555,0.1637060854097794,-0.3842180739577331,-0.6653166969186075,0.11064388468666142,0.530729026313567,0.35457999231114695,-0.05244472947278768,0.7815868618886461,-0.04961898374649075,0.16992795789232792,0.42694245388052626,0.12482379515526015,-0.07651725311919437,0.14508617941042035,-0.016573991816535634,-0.0009443235231484694,-0.03408331169853947,-0.05707514507610559,0.0040386472237928794,-0.029174480736799947,-0.0736085519723665,0.08548423589916268,0.06593602416240324,-0.05179328934287396,-0.08561495692533193,0.05415498690123688,0.06617028351437029,-0.045830813793609176,-0.010462429974252733,0.013246477592032358,-0.003003427342150463,0.04662621368317084,0.0895060378503725,-0.05616481026405569,-0.0533725434704411,0.010444836303409652,0.11644092485413622,0.03759428094793641,0.05171220659861477,-0.002332862218777765,-0.053099625414809726,0.012124341628040264,-0.013785095662228599,-0.008981743980401464,0.0712755808074837,-0.0036275374189694842,-0.009092471779209226,-0.04431058279105131,0.001622240560107225,0.03508454225451001,0.021670806838347385,0.037198932024456996,-0.040848829072487026,-0.011726974075205121,-0.019665144573007737,0.04512448519888901,0.1367082333682769,-0.1300023177309614,-0.0018742027083212018,-0.05841594624526188,0.0006459201126403559,-0.011142642142366627,-0.019123699212274293
34.51639938354492,0.9388008117675781,-0.023006955249292454,0.08968626492047903,0.06767149286667788,0.01797244003377521,0.030850981209930895,-0.024906182644695157,-0.10917525242961779,-0.11351486120845147,-0.026934507201901468,0.04094089459757586,-0.006444371210256373,0.06886083275831022,-0.031075489557475723,-0.041534430685915044,0.19186442562820683,-0.562948666885923,0.10945495620227093,-0.15352133400552903,0.000848874077299546,0.0248830814422536,0.11152005419158369,-0.08947957913569293,-0.017573545764092976,-0.14418048897322355,-0.028090841227586625,0.1715994264895209,-0.1014908696233602,-0.2758881187750794,0.0970687667941892,0.06912117275245042,0.19804760624938136,-0.2535648132081869,0.3379191865331605,-0.14790980692516312,-0.1498703443227167,-0.4359040889982477,0.103507306883832,-0.209278419721862,-0.511765311201998,0.1571714263645888,-0.08453892575020606,0.26337619722913275,0.08458016843248195,-0.26204051411966023,0.3777363306589099,0.288694938935891,0.2821803592437078,-0.024574129228956063,0.11114975108902064,-0.2914766306198851,-0.16248934516920657,-0.29608817095404505,0.053702744872892005,-0.14954238671725184,0.10733101428218084,-0.09542956576523524,0.06204176808197121,0.018587103218620928,0.02127093612113017,0.05815117936350182,-0.07243037384066946,-0.08622317992910514,-0.12154552822539627,0.23508933837962528,0.053482141690375996,0.051732763365976486,-0.06815633177675705,0.021813029224231714,-0.03319774092093224,-0.024097987898071896,-0.07562757551549044,-0.09838933693950822,-0.05067689540670475,-0.007426652905268584,-0.03619600659408361,0.033396264610674825,-0.017819269142505204,-0.10494383366201973,-0.06825225798895974,-0.06991415230502558,-0.00037498185339467516,-0.025822095349594308,-0.02545671939787747,-0.01828922639763343,0.02502543760588906,-0.00976431107990379,-0.07301442865515857,-0.05784828150583712,0.07648501285480903,-0.06833323886177833,-0.14491844023691472,0.026626010600790284,-0.029069351784058617,-0.0009652409835344267,0.07061175019579058,0.014296076253491708,0.09472625670716239,0.007871342378307514,-0.14664965306369665,0.02189780581930792
38.20249938964844,0.9086990356445312,-0.20472787687490368,0.10649332376459293,0.23616540616520906,0.07002660314342428,0.052880696354769365,-0.03466422523630617,0.06300899899108124,-0.036321312420014705,0.012372370973682156,0.1277986182622248,0.004509464380900443,0.021566457199632905,0.04314259435808464,-0.0328412098554611,0.008685324128072533,-0.14531718637580715,0.05166780079463254,-0.18863740154927439,-0.051256213518031266,-0.02811337251699754,0.09466408716570307,-0.007506867664510208,-0.002023909152577611,-0.03860645469880965,-0.011105094034989453,0.19538873713989804,-0.39360391442593734,-0.018337391992161486,0.29981006649177677,-0.0015569946918781875,-0.3106413411034682,-0.2632235715978975,0.8372616763385072,0.01013256153534045,-0.2966683928867509,0.08228962528492342,-0.31469176570499635,0.05806771609372268,0.009586660045305652,-0.6554079649742954,-0.16585154090387155,-0.4160397407728843,-0.0057782392544130645,1.4368235407133774,0.24838565196687093,0.41659696417910996,0.5724637017104375,0.6597754181329373,-0.3853343145827203,-0.025699165528379697,0.28378629347742657,0.3900106839522197,-0.060630092552067125,0.024340481326035335,0.05701758603790491,0.0033643569813725264,0.06309815227484546,0.04788904925334282,-0.18183199462817093,-0.014495667461930794,0.005656874289601786,0.037180284193460617,0.1384157253973754,-0.031386525201396405,0.024491716757408764,0.15900205025891073,0.057641999363953596,0.01128091812139994,-0.019081027319472005,0.07301383337152965,0.001970685341687508,0.21333432750077352,-0.09726052223147522,0.0509478475467242,-0.020349062625034487,0.03438478331202433,0.026101697965953383,0.15274569186537032,0.057353941118433435,0.038867002445244735,-0.005090327972417942,-0.04999334488939974,0.04744495522167626,-0.05622768345475037,-0.024779059567967866,-0.05053013656689446,0.03835764822298986,0.014267857050944355,-0.019344204088213482,0.10901334310362654,-0.05427165404266395,0.005442095223894696,0.18619561085762681,-0.08789612890479319,0.05076387710750964,-0.13724481331340213,-0.0315102823091926,0.014013992442753222,-0.12687221505934554,0.18195626831335937
39.11119842529297,0.9294013977050781,0.05795585037445436,0.25703871345937457,-0.0682476771050099,0.1749258023606179,0.3352204019185457,-0.13421568914832205,0.07240114292946803,-0.052263020895381984,-0.0846715614809929,-0.0012691799447066329,-0.07862088074075238,0.051161481480778974,-0.08044285679485558,-0.0807353490814918,-0.12887127266732462,0.29184323335016654,0.06666586155024701,0.1704954396225232,0.20521181783730097,0.031855829904106014,-0.08801815967186663,0.0383470031541116,0.007357474180014537,-0.0024523108487694376,-0.14764125892444208,0.13536753278481078,0.10451680606560808,-0.4493403933878014,0.21596190768777446,0.0009774331251624652,-0.44358828438696213,0.3501333551152913,-0.3100351614447154,0.31016607667872514,-0.6101560061282327,0.5201531052863702,0.09673824661612741,0.14506459586173745,-0.5258759166899872,0.050611794530276734,-0.005666015313551785,0.36089064564796974,-0.06906403905772693,0.47323774320376605,-0.13615484123421367,0.36633853910245295,-0.8082402920551254,0.06707398503897921,0.12802544716184086,0.008426779146210523,-0.0031182650280120044,0.06163557394350928,-0.057180230789212944,0.05756556442051432,-0.0227680129002474,-0.06927907542135003,0.061833873674560204,0.02885483589612501,-0.05900446628656476,-0.03102205208346339,0.2058111911536288,0.06738855847788688,-0.0445120841853565,-0.07230286225666908,0.016221889233137235,-0.029046325465610204,0.06479585733864926,-0.000246214196227848,-0.010451588456291728,-0.06846520691381495,-0.04774193346657614,0.033424187765582744,-0.06506518634892254,-0.05362147087499966,-0.13370034668662728,0.004877867098223715,-0.011502774840998799,-0.07837802294684554,0.03627633095610065,-0.03614170958136295,-0.007779145003601183,-0.02680509973528676,-0.058544260495951767,0.014852582321532332,0.04416423683687496,0.009172601057679006,0.040807853031154764,0.05282891109720307,0.09239708762849218,0.02291057989910241,0.014057615318973322,0.044436710562272344,-0.03873367727484723,6.086759249476466e-05,-0.05618721295754308,0.0018792885172911472,-0.039211927142259566,0.03024374265156389,0.24302777837060108,-0.018850882343978765
40.04059982299805,1.9077987670898438,-0.16694947374555097,-0.05135520770787225,0.2255105435892339,-0.2387538226591386,-0.06475324775767204,-0.12777301964774984,-0.03522131626740256,-0.010272215953687325,-0.06350339096282358,0.033575792820221786,-0.04566500539492805,0.007402279134554636,0.05188566927566078,0.13275626175817345,-0.148824198861722,0.22254953105663777,0.07823181994056842,-0.2162157669139896,0.07099568806642685,0.10974482991314986,-0.04024218639442289,0.038042315226560965,-0.07165636171663967,-0.004094728152950866,-0.0007417565483294197,-0.010808920326317018,-0.27797866978027114,0.8781077600325972,-0.2911902302188671,0.04599343222875227,0.052751198339069466,0.30521102215073703,-0.47055746411158716,0.15896277757338514,0.18744590604429406,-0.889750790287473,0.8398325002907107,-0.6069057000755956,-0.8006341106745676,0.6748537976003326,-0.25145021568235226,-0.024758424259320958,0.29155007887851603,0.6454592938213346,0.1982192131550067,-0.07248316346661711,0.11491432795366952,-0.19761086721527676,-0.017683832676077507,0.09607174921920085,0.0002681066674465678,-0.0017176073392350273,0.055655657926071196,-0.04758406197518557,-0.0071585301190205605,0.011502114384596604,0.0684200203605754,-0.019833408121668988,0.040319407895698614,0.11640675770515038,0.15015473925639194,-0.1180749374276503,-0.014622099434720426,-0.01198991946951168,0.008740677600340443,-0.1795591411434163,-0.02635184854331502,0.011271876420212646,0.06131521707373495,0.09889304657347366,0.038035923919256726,-0.017716065485617577,-0.04421118583134555,-0.0013398463791805034,0.029125082004625852,-0.012784761509668428,0.060157280923429486,-0.007506549366916245,0.04953547636218721,-0.041848280282965146,0.006778144432353694,-0.09238544543976374,0.008433845382939766,-0.0444989871420249,0.01756230111922402,-0.10829389737736424,0.07796821515142792,-0.008605098214946212,-0.013106741248522057,-0.018507484400234107,0.02927775787950687,0.07441467639376961,-0.07818520913470106,-0.015709930872421472,0.055889736946448484,-0.19719871115136395,-0.026380606969886807,0.026506440805769187,0.09131608408261033,-0.0622988509928859
43.80580139160156,0.8993988037109375,-0.08974022926638539,0.0925426828016303,0.19915590441559733,-0.20092574158920967,0.11735225992834906,0.06261336328802769,0.05104623747559264,-0.052428051783022483,-0.09329883526434847,0.017814933359686022,-0.04739521776795719,-0.007841948569845422,0.03364755594912587,-0.11923680619210703,0.2284416784756498,-1.099389261180629,0.051790126431323136,0.07222242202991305,0.16503001334610362,-0.1579126000993311,0.05311877926210669,0.0891939991973972,-0.07122019233915453,-0.00406410154370055,0.11421563898092463,0.05587593213212954,-0.3133227183526899,0.0021334765524594294,-0.362780485963976,0.1061820321247586,-0.5644881255195552,0.03445403429894375,-0.13861462604171823,-0.1637535297811336,-0.3615603787271904,0.4394725862335398,-0.3595554749972896,0.44290261830830424,-0.5844598140640467,0.6509301201227494,1.5239580864876419,-1.1862744519994821,0.2401602934380545,-0.8834352494802076,0.21983924455396578,-0.2815486096948305,-0.37960428487150977,0.2556138561457427,-0.34054750693866126,-0.04163608006467186,-0.13587750628079445,0.12927743156207103,-0.0062491566572473,-0.0032230925031954197,0.09288870754951738,-0.002230592091581383,-0.09449456923899473,-0.02410378524083942,0.03677955726716484,-0.07513490360540358,0.1284582829956702,0.07414479017857262,-0.041313249779206904,-0.10808947517406907,-0.0713428543992176,0.09393692452951026,-0.11302295204379156,0.04778234328202961,-0.12064015214907269,0.08997430059659631,0.018280026227207716,0.03397938533612231,-0.03221144226059057,0.002577309590614914,-0.03920433203203085,0.031264045026044594,-0.11592880037349333,-0.007243339079737402,-0.002226314742909947,0.15069895437656655,0.03141694153910933,-0.0008935690808238583,0.005626304610349437,0.06476134795673363,0.002011200092919688,-0.05727399953215573,0.007865514192831493,0.05104750784086975,0.05449781288029348,0.09323357639218184,0.08396487886903616,0.012576516656912645,-0.008736903910932521,-0.016393971679570542,0.010064088974633734,-0.0159681916089755,0.016784212234728438,0.04597065904868321,0.02013780216111886,-0.013704687438410183
44.7052001953125,0.8986015319824219,-0.15223390552153226,0.015825324066235463,0.027315687138049875,-0.04453139540852193,-0.13206828932321174,-0.048671762450644376,0.0553632214461638,0.04590144665654041,-0.14304537780235027,-0.07234865463022838,-0.08668481040176984,0.050052382084725164,-0.03145442555747342,-0.08935941957224994,0.09992197736616384,-0.11498993714263622,0.24932239451250493,-0.3131206851573202,-0.040538202342765534,0.16255424971006024,0.062489220245891826,-0.02044354492280438,-0.08026093637727993,0.0735823451414018,-0.07317177776058612,-0.005670095238949166,0.45998698144577604,-0.3508277700278148,0.5836425464314697,-0.2761800598157892,-0.05845606390300813,-0.02516189554361585,-0.14033694960118584,0.17839328247260797,0.10187103501266447,0.1295399669293901,-0.44065550193604064,-0.40933342477241696,0.4078641935371504,0.535948254854706,-0.6324462572066368,0.5672979153763733,-0.016909914496445962,0.14129834686567827,-0.7968849241821587,0.8022012332895706,-0.7466747457924613,-0.5014194067944295,-0.15572025786991503,-0.10091587094422697,-0.11478029823613035,-0.039719502030156846,-0.07327268388511565,-0.01119315507277191,0.0822269049335943,0.04489115826476404,-0.025714218562878095,0.028257695019078814,0.041849089068724796,0.0017708566756017398,0.029196385618020744,0.041830395540166036,-0.02245562073944873,-0.056279302560608396,0.03761224475352979,0.06135001249825862,-0.07661967567107414,0.023453890530644422,0.009297627515537359,-0.07144682135928777,-0.006543163166965026,-0.1034411492062506,-0.12108924930272291,0.03370675010987831,-0.006974235148912086,-0.12047793832969919,0.003032390071177067,0.0032123959641393897,0.03860436745528885,-0.03435154912434224,0.007541324419223793,0.03484043272731372,-0.04273720831232484,-0.014563029944148681,0.012393857746915215,-0.011057978911316881,0.06767544544071684,-0.0211229028749305,0.12969977969190047,-0.049237233793829965,-0.027798378073836387,0.0634583673991242,0.05348012955112218,-0.15576149300235756,-0.01398732765967535,0.13603827777795469,-0.14175510137688233,-0.053129679803972,-0.03570075608933484,-0.12701741031640224
45.60380172729492,0.9594993591308594,0.007460147884749135,-0.21844990510664564,0.23124469490169342,0.3507329972900285,-0.08293353685048929,-0.02516391197069251,0.059940462035416184,0.03295611196081309,-0.004761980096102197,0.03952472165394065,-0.1821439407921746,0.0038750109168416078,0.16119363777348786,0.030905297330176818,-0.05174782881900881,0.009368475944924744,-0.8165847253967528,-0.013170370918370825,-0.109945126748676,0.259426151262634,0.14995181570867935,0.07633207692687048,-0.015775260417954913,-0.032991608453798005,0.004208423167589212,0.08518686956356382,-0.022086543133126253,-0.1696133533789818,-0.24467966566061936,0.04308618911912658,0.27459565763117577,-0.02092289995143064,-0.2571084910152898,-0.3647087166403666,0.33213991719494534,-0.2752435545181262,0.38865707197835286,-0.3552445767814498,-0.29096986671065384,-0.658030765211756,0.595231902589512,-0.23945080262177104,-0.5649684105895241,0.07385691767837296,0.2766665776364207,0.8609339076366365,0.9888916013409583,-0.3776269126691983,0.2530055259551873,-0.02202797408561244,0.024102085506874385,0.2398796815444309,-0.08172002806128525,-0.021412905678616853,-0.05085215193591052,-0.05798276020091879,0.04061293023643163,0.011370533586644829,0.07030460247344122,0.02483190204060307,-0.03246132877290151,0.03817797230684261,-0.05172875214683628,0.05022714559227405,-0.0801371544636182,0.04948413242494662,-0.023343713226260415,0.07951238247325458,0.1055508686513086,0.07271212498787065,-0.1326080316253888,-0.053111078335595516,-0.004132443925674113,-0.04050765373264121,0.04059881924615721,-0.06309887271695201,0.06186283147692842,0.008715150517989304,-0.006974534203106765,-0.05114990305981991,-0.07442816949183417,0.008122769513884534,-0.04723363763826223,-0.04380814702769198,-0.06410830130346958,-0.08275977367455578,3.159297465985065e-05,0.09882755876921945,-0.05752064895691969,-0.056999133245091704,0.030435007031637352,-0.11148636013276408,0.06993918483952284,0.046115524317219825,-0.15852984533193615,0.010889647933942393,-0.015480732211117443,-0.15504319146862772,0.16349404996473965,0.027385280489114483
46.56330108642578,1.8978996276855469,0.04062707311152936,-0.03830111729156462,-0.02409048086037481,-0.04756779394365504,-0.09791335193800627,0.018618255136317867,-0.12535761428173145,0.35893823277060666,-0.2616187407575239,-0.32204660977095284,0.07795853389412997,0.08048520791123495,-0.17605899005665027,0.2028761836415422,0.09785484480454407,-0.12112945403635741,0.2740710341265325,-0.18896957247569393,0.01333306747702911,0.05933176212174882,0.08903596698340467,-0.07871806871093773,0.014068585302722453,0.019675758398982918,-0.020586106646695947,0.06500580320808086,0.005829200858915917,0.06434002656389584,0.053792136638161236,0.24285508228088512,-0.26331216612795044,0.10331438880323028,-0.12690597812866494,0.2902795244707931,-0.0024920110258211114,0.4515648033403111,-0.5227317161156884,-0.15210052461059545,0.30790968647753264,-0.09595751538990285,-0.03358074440925493,0.7911813739967867,-0.27618217557742386,0.08394339366383961,0.0014967867703580828,-0.35321292663135706,-0.03636138291083519,-0.739677500478113,-0.06624466903500122,0.322715029956857,-0.23743985934451922,0.08198676298324989,0.040359592313804385,-0.031946767984082886,-0.007219334124214655,-0.032340282638621064,0.049542442355627166,-0.036911544971893084,0.0491137707557712,-0.018578262279177554,-0.04684351085061649,0.07182896191560224,-0.054674169251765874,0.07332943412709407,-0.03100343898430132,-0.07680208903726418,-0.02973071644392855,-0.013008530208501956,-0.0970613711244065,0.08163430122819897,0.03892869706430187,-0.0028387912239865166,0.06485541374564645,0.03846676852510402,0.041873323046629975,0.0421303717830723,-0.10911908540624302,-0.08640643697110394,-0.03044822012977314,-0.02800130290627423,0.0652275772032021,0.03786229050721549,0.025321696636272317,-0.004490545849033771,0.06414890714518709,-0.025506537104107902,0.10484484058353569,-0.0759399190815247,0.06913718515476874,0.22566951886778286,-0.14894682906748868,0.03335753328308258,-0.09196797124399253,0.01173056347797653,0.001817157407272319,-0.14041818032604114,0.18752122471752394,-0.14443904658464746,-0.11749705761890289,-0.2801498909789015
50.31909942626953,0.888702392578125,-0.03234297689799432,0.11278540596048328,-0.009033747636514208,-0.08807893658480126,-0.05106516336440115,0.20469803443959864,-0.06720888414689963,0.028985382261371918,-0.044267533870135385,0.08186853143190591,0.0327345568984554,0.08650531532449543,0.027581745707515787,0.11937953587012107,-0.027748814761384986,0.19921246805808085,-0.5255794636102682,0.15477442940203875,-0.0729332268098084,0.08684473896031508,-0.059150266093929316,0.11503032283953993,0.020270682281542093,0.06796528166631102,-0.08181340931859642,0.05359796934937648,0.0011317952047406876,0.06263993464279437,0.3152533704400101,-0.2489477065054112,0.16907132661953614,0.23854115894825034,0.04040563700926422,-0.4172029205440407,-0.5456515250719582,-0.18625317874790354,0.5642008078315027,-0.20086892798702577,0.14570198338717788,1.0195303815406287,0.019830224623845844,0.2859480136656781,-0.5007649637226178,-0.436203794994676,0.24212865938435496,-0.27189180617716896,0.34909218110647955,-0.13235488937481218,0.16446273296861774,0.05972917423386803,0.1368760340580566,0.024374740022384593,-0.0635004776896368,-0.05136178485452326,0.002635927039903975,-0.08087872285778439,-0.049456642396430994,0.06200403697212273,-0.09928378717907989,0.04930208429562134,0.060228441700846125,0.04828865562031344,0.08524375676856977,-0.036959011353333356,-0.002564195535598085,0.08717889779260517,-0.07860928669739956,-0.042244009215606095,0.13373928171927207,0.03516245737702897,-0.10056067249713775,-0.014217472695693918,0.0419903799196865,0.018524642939603726,-0.07083222079735282,-0.049752305456822694,-0.1059673935592148,0.019855740699718474,-0.0013000264495925395,0.031491624862208724,0.04693989589460039,0.07057203652021851,-0.041078639209340254,-0.03172349232864477,-0.024830118376683183,-0.07339557028937324,-0.12342560325958205,0.009018225639167553,0.012074035728260879,0.0007625799410490614,0.011046907265131287,0.06138184822843573,-0.12841666286717923,-0.016725906169037706,0.03001465080329189,-0.20568670450487286,0.04769881324050516,0.029713102488182853,0.0648674539161681,0.005239368513777903
51.207801818847656,0.8893966674804688,-0.13690105587349252,0.017134098314566595,0.15461454206092778,0.20826110744250245,-0.02722277686950079,0.014003229951819431,0.0421819424152675,-0.08852460917469944,-0.096866441796546,0.10725321691762772,-0.05872495164667056,0.18613432339953173,-0.08540513016582328,0.03394163703490321,-0.029896188124884954,0.36765825228995164,0.1395149263509186,-0.019759716489686836,0.11144258215097834,0.0023474151459522124,-0.0377921873385957,0.11791502029941334,-0.3278002168123629,0.10212388496212481,0.11668351527051739,0.025972099941037524,-0.36104178408216764,0.07805542524542754,-0.32058360622662074,0.3691299852482877,0.015379395004554715,0.007418238977712209,0.4201066366774671,-0.6232061185834493,0.2304854033804383,-0.12487062195767598,-0.009530727855011833,-0.149378094325872,0.25782412075266703,-0.37441755606688143,0.1335206946656635,-0.5620769687536025,0.40680862004519097,-0.6620045572902332,0.1633173586488934,0.18975331677541288,0.3196799151552902,-0.23176570346139178,-0.40232417890669914,0.05484333244026322,-0.06501426062193622,-0.007503559481163526,-0.011625997793385762,-0.06732984071388168,0.053868491241709913,0.05332522384541666,-0.016381706835765047,-0.0270497635473321,0.06638742305469635,-0.04595293083599906,0.061451718807722086,-0.02321238953048891,-0.03492440430999092,-0.0027685483677945856,0.03875833292076985,0.10379504747773588,-0.007592351455143209,0.09398697193533972,0.19334692508238438,-0.15392644618921644,0.23549888914858264,-0.15139747688827995,0.06884173581773084,0.0237201168672211,0.03290202188780408,-0.025048061115007944,0.0248620871948019,-0.03362713407106909,-0.047863321026019916,0.04605203431072277,0.030548814478084232,0.05736048771606879,0.04635512514059806,0.02331522636956015,-0.03755385984282055,0.031080096164340404,-0.0023280255595615144,-0.01508121702287266,-0.025598286634678998,0.03740500154344685,0.06600987458280094,0.1762912973600499,-0.020057770773158387,-0.0661007783264096,-0.025876947778333066,0.05729706542552222,-0.07295891021944825,-0.05143727953569321,0.08241310749105463,-0.05761603665211634
52.097198486328125,0.86920166015625,0.08599055041735879,-0.0949211363651748,-0.24260329752742138,0.1552394637318698,-0.05691471181010362,0.03627116581305609,-0.03463806492610709,0.09098077720062608,-0.3610616641934935,-0.115090305864538,0.02761187866226683,0.1842504982386211,-0.028369191846597294,0.14316781703048992,-0.21368589703908694,0.3115424725536144,-0.4575245958269429,0.21425327416768516,0.051628133694074096,-0.03959844656836128,0.13788312487918858,-0.06366718846070576,0.09833566044935071,0.07943011222376947,-0.18912756405640987,-0.19285668395850422,-0.08777010170857918,0.031581978079488295,0.017810405297371202,0.20241099872667478,0.5691574410261957,-0.23939771670058263,0.5270835414712417,-0.3363207097553062,-0.16109717320468087,0.2745554786050981,0.18778839561843522,-0.3059133835134784,-0.0574147203508527,-0.5382784307481252,0.385020406703766,0.001075444913377993,0.44320487732611813,0.053198133076395614,-0.784387016089109,0.6055068176922203,-0.207937653933861,-0.37671712869937385,-0.044304977842375776,-0.16949497268311609,-0.0002180689665735729,0.04846077533747392,0.04676461169273914,0.011482772737728617,0.025841684441410148,-0.020447608920745586,-0.004781412197751997,0.07632546114645741,0.048283137092980495,0.12029150738512345,0.08275879080824525,-0.060864215309536104,0.03567438366102437,0.00571328750088155,0.1105251883917936,-0.025480837435880067,0.1122529568189119,-0.08882237820152598,0.0695681865823402,-0.03670837575722471,0.29979332901748235,-0.03454069869621844,0.06823086869853638,0.024150495156393913,0.01786349200668738,-0.102806828159733,0.007028042636517351,0.0017495983380342232,0.023514254182429983,-0.04926073195127643,0.023693457104255966,-0.04893413246468463,-0.024866973674429402,-0.03154929719631913,-0.01852363584518195,-0.028835535634373022,0.02681459310715508,0.07934449645957135,-0.004341155833725751,-0.08519264861548918,0.0779702333632046,-0.10685182261460953,0.04645973691704273,-0.0859348896102456,-0.04226522870673527,0.08271821699696158,0.014928518725273648,-0.14096606515272583,0.10671320451639825,0.09558469851339878
55.9827995300293,0.8488998413085938,-0.11617483591660219,0.11268656484967592,-0.01016448314372938,0.02222898205176125,0.16707478425256134,-0.04489840305330719,0.1316056304573092,0.09857900695462553,-0.13164932155456438,0.05232950009640888,0.14862324243933567,-0.07599516673652296,0.14800102906032037,-0.06288138602457449,0.06386653879103958,-0.5342159020094723,0.6909620243794177,-0.04434678650679472,0.1489141423843377,-0.020403053632305834,0.05342006887334256,-0.18271826317124537,0.4218131467209957,-0.3137136039462443,-0.05123381675481083,0.08022323543483567,-0.03887245361636582,-0.1001076893276963,-0.3585927448539482,-0.2449197407996865,0.2749025581964551,0.012626061076643817,0.1306103252741001,0.1104253211592077,-0.15746469002521193,0.15402881640714985,-1.3768623454809061,-0.6024547689619436,0.49969308448525507,-0.29928461163874553,-0.1598599474960276,0.031682319783320936,0.3939694807724747,-0.4491435918100993,-1.0116182501083881,0.10649843057733972,-0.05126804738959696,-0.6450812585138408,0.2182111567298323,-0.06987528200571788,0.048627337156840485,-0.010574596641375724,-0.01540525392538554,-0.04839649415876956,0.07505171815458471,-0.0036501020536295926,-0.014921051440178894,0.016027609652330535,0.06495653708757856,0.08730471120580201,-0.06854606908121295,0.08680897987034172,-0.08486551143921862,0.08490634055569891,-0.07185192586795529,-0.0734682606314519,0.06155014360167596,0.0916202677813218,0.03376771043093896,0.055903392310436076,0.04649982972520003,0.039912601283699625,-0.014488233448044185,-0.03410356128752989,-0.007785922620671296,-0.16538239882525357,-0.009254632901187564,-0.002513066807496467,0.10186225643665074,-0.10668514567929233,-0.0054450133953599196,-0.045195646074159795,-0.07918990571577274,0.04130991186049564,-0.07602694338873267,0.01720602138039802,-0.06625421058683294,0.05838930938449797,-0.03561025203158953,-0.0749799835224253,0.02674919586311188,-0.07978612859455099,-0.016940917430167984,-0.172343412114618,0.01378872146483778,-0.10277297667284313,-0.04249244643645002,0.008235435089147902,0.11490533079233795,0.2179199874433524
56.83169937133789,0.8590011596679688,0.08498571036432673,0.0005900691588800462,0.001504673323310437,-0.07977474179453806,-0.09431810143065215,-0.1267911892927344,0.13126179069306512,0.07919859803796711,0.0002862477607114,-0.0018384028274791991,-0.026626913129085814,0.02460457075609465,-0.15106993251656098,0.03925909516908658,-0.005452257641717207,-0.0032287658934054067,0.7187043309356305,-0.21955001994934398,0.0843768886120615,-0.14525791063643267,-0.03242680382914437,0.0848847895809343,-0.0006503817791695087,-0.0363525938990087,0.04420051497724951,0.017140207062948023,-0.39697712653976686,-0.05238663787079235,0.4983289579255689,-0.4468547939765752,0.7789223363993039,-0.4384184875677992,0.1825309069392272,-0.07303373639858954,0.07413016631279296,-0.29235968004479385,-0.41227747914499624,1.2626387148136495,-0.6297103882945508,0.4860560810076493,-0.7085816748519916,0.1009718776455764,-0.7871565633860927,0.42690274648143856,-0.23837100236065523,-0.051722647693482726,0.06792401311585639,0.20369245448488885,-0.13603810228182767,0.3191736830621828,0.08401702070112056,0.06022588429301756,0.013208585337518737,0.032591662708390666,-0.002616142244286017,-0.04019172647325832,0.04561176486001623,0.11442514952297261,-0.055309517842694694,-0.009932441386011744,0.07081414179498305,-0.03403240531472871,0.07462627605853817,-0.07939097860844495,0.011589812920400636,-0.02875640131895348,0.025198195089828734,-0.1144051738308264,0.047507737903200065,-0.004268547480759655,-0.009886639296169814,0.10644481466964109,-0.07045280846212627,-0.14124678795463522,0.06339814594175316,-0.010154617645357925,-0.04256767532065349,-0.028156118692651055,-0.013901741876476144,0.05719665842100132,-0.041757202079971155,-0.051713960532081965,-0.005994837031306016,0.07729142549542285,-0.05153068116718044,-0.01327895507344229,0.01838476217182861,0.01716983931449613,0.03914895175034299,-0.08628443243397022,-0.10260257002717424,0.035163101974716046,0.008326791595438218,0.006238913335470354,0.045924851705834685,0.08572530920179053,-0.11498966228513273,0.02920221341131822,0.2593117838435101,0.2813032918761027
57.69070053100586,0.9292984008789062,0.27074640552818807,0.010020651482621316,-0.07863845533131619,0.10431150449277288,0.08241804932681727,0.05696189555991693,-0.008102668239486877,-0.1017958747718562,-0.03743779258292643,0.08618440465761291,-0.003908867538467852,0.08767923068416315,-0.08991202747754166,0.1722458474148796,-0.7812318973795271,0.33539949717280865,-0.12143830641513757,0.5729538919624619,-0.10861064832703665,-0.09655496249416885,-0.020675879261330618,-0.06316819901960465,0.005471070532611855,-0.03542677471728087,-0.15310804901894587,-0.31142777351521655,0.42588661737186834,-0.46316108742536366,0.4097650201423099,-0.3087527506556218,-0.03364467892815371,0.3407614033045816,0.5963683157642513,0.44693361382547514,-0.2723503701693428,-0.09965005923162974,0.37239372771020596,0.1950873847620047,0.0835115290871899,0.12211485268937611,0.2530972429451932,-0.45833505962055543,-0.4195693689609958,0.49843345613887885,-0.9461864002950098,0.7214801174724664,-0.2490353891142923,0.12053645272551718,0.10074337390668306,-0.21741245427823808,0.022216726978815216,-0.10680654987804489,-0.02075606628887855,0.014592373524212096,0.018303552295323627,0.016587135356142917,0.034979291342607986,-0.0055031753401985645,-0.14209234088660402,-0.05972421342464437,-0.09778319069093376,-0.01471814444713547,-0.11316551060517221,0.04532846545219203,0.025309601997857388,-0.12998602778181384,-0.10852780350705023,0.07463152360919417,0.12649609881408,-0.1159318577147325,-0.06864620402994931,-0.03153053581905364,-0.027275410358424127,0.006062615680437075,-0.03929170880031224,0.1454102254546665,-0.053593060187199906,-0.019309299414962816,-0.03855508337671811,0.022164540180240278,-0.03476054599805038,0.00688403744258035,-0.03250844548152213,-0.0185773008445156,0.00857474021874798,0.00840555962821009,-0.02491468795387894,-0.00551643844851143,0.006306502802127077,0.05800673029098388,-0.04029053325488619,-0.01912118081825444,0.15185449271714335,-0.03912150543845794,0.13985631401778276,0.050330357542669985,-0.07004545275461896,0.05404761403212028,0.14250879800374444,0.08171176205679365
58.619998931884766,1.8376998901367188,-0.0446532306571157,-0.00899463258490596,-0.05931214619477919,-0.110306524677069,0.11769540070717822,-0.08072011080193282,0.12732851368495798,0.08619295993556052,0.017385813152180993,0.04291718448603004,0.05512575624041095,-0.1605684249592433,-0.10332972504092217,0.09705849600134142,-0.10306388466176138,0.22132890543911352,-0.3176624686869086,-0.2357876218410831,0.06770228110649719,0.288054968774089,-0.14121942869411014,0.11391367972354759,-0.04643981890399799,-0.12971817063102384,-0.018145893237027033,0.11826018937948014,0.21260001934680253,-0.27043945971024924,0.3556015709395948,-0.16684793129375758,-0.21191116850669064,-0.06413569355028557,-0.582953939290844,0.306117747012934,-0.535870425954368,0.2769214748266151,0.31870767377965403,0.6902356061122137,-0.7048694963949509,0.7306327036489532,-0.44499741742331417,0.004723352886778345,0.48959990010592513,-0.23397017265795228,0.2587769519034543,-0.8034520593225262,-0.06689909968276643,-0.08622663894582182,0.06220553767934178,0.05469543088728989,0.11182350885067215,-0.0910844303646592,-0.04167836576309611,-0.003101497657787623,0.03254180455682013,-0.009630150046197744,0.13071436306081427,0.0348462105680324,0.016416730160661926,0.02072184416997426,-0.19331040041021796,0.0028409266736615897,0.04250100007637187,0.027654483665085727,-0.1317762420593001,-0.08043162571886442,0.14474653401405493,0.0027570165160673557,-0.026058137677126336,0.014385579849857172,-0.01051209728145565,0.03939688190602031,-0.07138613323537708,0.01781336063567568,-0.04853729054760647,0.008581688908839185,0.0651881395691451,0.01943463830512611,0.0022606713205595846,0.001028999137321661,-0.03384233094129023,-0.0482256716997813,-0.04896289055097015,-0.08083342296617038,-0.009377237776331872,-0.05430918423935096,0.021203583411708502,-0.02859071982116763,0.07785327949921789,-0.03908800169602427,0.05347958984907203,0.10156621464714619,0.09134801640874933,-0.06239405119243539,-0.05142833499898332,-0.0765811003356323,0.03619984163325011,-0.09518907371364584,-0.13219990051163047,0.11983368904640485
62.16619873046875,0.87860107421875,0.29711472276012746,0.06309557813592886,0.08915670898694032,-0.00904654790346571,0.012859056727775112,0.06985475299097166,0.09336615518637785,-0.12439540670572571,-0.06431515046812514,0.09797264298098225,-0.05359859773171629,0.12648313010193682,-0.004742135240809272,-0.13366527100913395,0.24327810059835103,-0.01944619527526684,0.0914914786896859,0.0018938278781993128,-0.17133269325513964,0.14529861402735628,0.059205815427834374,0.08562604946530476,0.017396738088236316,0.0013070869415401196,-0.17355186543337664,0.49418048983750706,-0.47761284429446793,-0.0795072255190366,-0.149066588517416,0.14314238953437947,0.0737094331839127,-0.27248304465960854,-0.17525648246928757,-0.23517620317943286,-0.3321324210994816,0.41702493615255803,-0.24881446564480558,-0.7839777936216015,0.4531354897029511,-0.8383162324562576,0.36548931178239064,-1.758633137699367,1.989914358838773,-0.5607287425066921,-0.08599979411475026,0.9608699738264547,-1.0833301362724863,0.09219978342885804,-0.3418536052442276,0.08688713291407414,0.03951106282063363,-0.04743025980726322,-0.017126202943313032,0.00030861975372746715,-0.0522652280336935,-0.031246911834114148,0.04788784306156928,0.04478870187947073,-0.0361814139803107,-0.01294345388364046,0.054991620968467,-0.09109967403307194,0.0022750021301547654,-0.06409155023903737,0.038126236894055636,-0.137241740324663,0.38148307344454835,-0.27368844575778,0.08290838138671425,-0.08485853432180038,-0.0899874664216711,-0.0468773765874751,0.03706740090686854,0.05449027568745118,-0.037242447180323573,-0.09851202462014846,0.011926574485005656,0.06679479555157229,-0.01646139540864819,-0.10817358894985245,0.04527212625231566,-0.08409996543113463,0.003357723045326083,-0.0011276456309225226,-0.04484214909497366,-0.015300744921362158,-0.0033983509124403677,-0.0297388265050806,0.0012630117310208078,0.04337682944685428,0.13362008141809367,-0.17770647967646253,-0.11815787720228678,0.11748553232810373,0.008054097349747675,0.022650621057228943,0.07622279777492011,-0.2073947053214667,-0.36182192341690783,0.014509734961989859
63.0447998046875,0.8894996643066406,-0.13887669658962196,-0.12735672713584834,0.1799659734148726,0.3160639302695883,0.16825081564161465,-0.07566787582730769,0.2523700945930441,-0.031716988010221076,-0.04159248533004898,-0.05981437451447881,0.17306046194277977,-0.2635537537403385,-0.012291306481810484,0.0756083205824795,-0.08428720112565596,0.07407817943388165,-0.43907064833039483,0.03867389532246998,-0.03080865094684712,0.0034429979907718345,-0.026507798086196414,-0.08730659414362246,-0.022133474958592705,-0.29427886783594637,0.36457401741914397,-0.3799068502339112,-0.7590457383017591,-0.3719005918431463,0.3921664939447221,-0.44601909060221245,0.02820603447234404,0.0777412314785804,0.515781575749888,-0.2187042937579417,-0.10433740360031461,0.040995367691983475,-0.3401427408944815,0.8140153177661996,-0.27846273908245883,-0.6025679945346896,-0.16656517587777328,0.1815927637802744,0.43307568399742824,0.6734153951770282,-0.1841803827459316,0.8536476528876286,-0.7312107850972778,-0.10375513603956871,-0.0950880373580729,-0.024611956700544134,0.0002112330616403004,0.04925729708486872,-0.10046898724809546,0.012959634748613032,-0.00014976004069766624,0.11921162057122811,-0.11276164693849242,0.06336630265152682,0.00979477747638734,0.010150670555974942,-0.001922579760153505,0.08624532354475956,0.02216421882275247,0.08205098372422362,0.0636254459303685,-0.09089787645991965,0.04630811548022999,-0.12016542789119851,-0.021049549794256342,0.03406380219039177,0.012866619924735674,0.038579816551351134,-0.011241761142487646,-0.006146291110882809,-0.005208488168000254,0.005698587908162436,-0.06655117588306322,0.034057377123806465,-0.01416694313436916,-0.019798855330352028,-0.12215837727020167,0.058307521345315416,-0.03843131515970656,0.024142606519652773,-0.0047238300952776,0.046793614261206457,0.04831772590813626,-0.013879659696025509,-0.04928755972332901,-0.09885262135476916,0.0494892472375337,-0.011659817076208931,0.07988065181202886,-0.11500484716208101,0.016645788254313343,-0.22172216695686614,0.009199299903658864,-0.15325772299005536,0.027643277846036002,-0.12221335826823984
63.93429946899414,1.8079032897949219,-0.2636137078793884,-0.1654904922633102,0.1058780586016077,-0.06617862742449238,-0.0863694332529069,-0.22261796366872466,0.029639115791783664,0.05036170798903564,-0.03327358093393022,0.131007413538527,-0.0633549225178651,-0.05085191218448385,-0.2150236164809464,0.15765035497980767,-0.05983987012011763,0.3548348170141241,-0.058084859935827134,0.06814355139331447,-0.162504551483933,-0.07192223814651133,-0.11335649865134856,0.02132508620304912,-0.09541487837305679,0.12606353863725847,-0.1275781085312058,0.016873596008391376,0.44475687195366065,-0.13410140741492727,0.33755559544149444,-0.030385276977544222,0.023976590237638276,-0.2571078234565182,0.3620780889553741,-0.20110137480957935,-0.049202342509228184,-0.05319822566032863,0.15106653408097737,-0.05804675647720817,-0.703622585992202,-0.11255877542864853,-0.44422951948604295,1.0991896918496307,0.18213902161558174,-0.5540394987113194,-0.24598929661232596,-0.30685698152258856,0.09828733788120968,0.21870447619520506,-0.1266287522886315,-0.01594660285835714,-0.2512725472050117,0.0764819229921426,0.01331019588511934,0.03663339246732496,-0.028713024503884972,-0.014203236735348367,-0.031595564762353305,-0.04219538766449277,-0.0020469410021417694,0.11005830962315197,0.10493326699892298,-0.05000994732491949,0.08180340571704263,0.051563694157536664,-0.020115815948182965,0.05477599372978775,-0.04256909566301839,-0.18682972944615261,0.06885820064249219,-0.1384923128959305,0.054663466948331296,0.021584278720682266,-0.0236047333838822,0.09874170967260901,0.037663498424714184,-0.005485121429053196,0.06748471172017073,-0.11018393168917226,0.046768650493588845,0.022838048564649244,-0.013946665539545253,-0.0007847623285811706,-0.04716437260808691,-0.03910339886198835,-0.08769313760267886,0.023668000501849022,-0.03945960874400621,-0.02612367235265904,0.06296862031896808,-0.0627471509839426,0.11541551477804228,-0.07045216942168148,-0.05176452403041573,-0.004964931733764916,0.005599137850491699,-0.07729542120378835,-0.016394367015148743,0.046275986971621066,-0.2126362898336751,0.006946124379486107
68.3593978881836,0.888702392578125,0.22037715459147328,-0.03577090012339035,-0.09652933153908896,-0.06770617766379963,0.11183478299605999,0.047984379702415314,0.19669857019362497,-0.08100507184966806,0.0059413225309428615,0.03298857451925441,0.17162262598454572,0.04151827850838086,-0.056120779088190534,0.08568366857912128,-0.09644059357043232,0.3527088311374777,-0.8079920789488506,-0.1965400536501971,-0.06361132860391118,0.012529005830783797,0.081976087429143,-0.0027991549818475116,0.07606006438940992,-0.04884901524916971,-0.08585891268208778,0.10524284038035006,-0.07420016462698761,0.04538339413980237,0.2104999087298631,-0.07276318419230011,-0.06069263616098229,0.3298879838936171,0.3871453329804434,-0.16839130933718144,-0.04797452919328976,-0.5146744334326013,0.8500643311091683,-0.8616940764907817,0.11598714790796781,-0.23549252466503115,0.37197545400620435,0.09294407841491721,-0.7728721704177283,-0.2051570981616556,0.886661273181647,-0.4046050208839271,0.6618359691001373,-0.33302510532175555,0.15694686299296381,0.14085999608758393,0.025671317998557496,-0.06328782288726548,-0.012789709810570858,-0.07962495641829528,0.025851940895184083,0.05691890069634338,0.026491029728537445,0.02058416603169093,-0.11211591554226272,-0.09809985073085989,0.09520401166053682,0.013766472159056383,-0.053792847956949684,0.009130808733670746,-0.013189179335519234,0.1366141124288982,-0.03020426648032332,0.14697276379119623,0.07206118560503179,-0.07794906818498569,-0.0005102775464867065,0.12579179492610656,-0.10313906575372732,-0.004541352919506211,-0.05314288016934143,-0.1309634022986662,0.2617347323672675,-0.08743926516517543,-0.06374009276474601,0.03402114732972069,0.0018291170342109083,-0.04376518357869044,-0.018233721825257225,-0.0034809589302213454,-0.04194885869374046,-0.06998649376234366,-0.07188752559485168,-0.056289322352485203,0.03699665643988371,-0.016686895202550924,-0.04568470041459047,0.013352848105614828,0.040374541138987266,0.013831433606760996,0.12661526938001053,0.05507224382002983,-0.04875838260596323,-0.18990970931397747,-0.07437886541969818,-0.11667674639641698
69.24810028076172,0.9391021728515625,0.0404162069234887,0.04141015167843051,0.200645630916214,-0.0682199643910798,-0.044368334628223274,-0.05660569759853627,-0.12233205156428362,0.20191543954218885,-0.06827035710122206,-0.08917047547270766,0.10390994129536886,0.022112081286473156,-0.03611237477785831,0.01648814964308564,-0.08810148775875348,0.08218376624832562,-0.08867017321881805,0.21174475438157345,0.005947632311807854,-0.01158638748456227,0.003039207515606837,0.07128057249065922,0.06313417851624596,-0.11825422879144057,0.2153341494803471,-0.295982379749574,0.2996214478383491,-0.1355099378757392,-0.23197651055311197,-0.048222615778067766,0.19013027228656298,0.17620899591164924,0.10117765235032662,0.4056246813535186,-0.048664128537772404,-0.47285412554884465,-0.4169239136214023,-0.045375160974279835,0.06129572556338114,0.17453000309855163,-0.680627648888597,0.4987981012279292,-0.3439142756656906,0.15626699968671345,0.09842574386900024,-1.0923497914751594,0.33162922300557185,0.904140552506246,0.35135940206016525,-0.1755235228942211,-0.18474451415923848,-0.1502799224916788,-0.013328559077806857,0.02522891266964749,0.04019467245913092,0.10500988909743203,0.06236926191906069,-0.042517646666771124,-0.030684251533194568,-0.010554605244174918,0.08186415709893528,-0.055927487148493465,0.014728271218636377,0.030300369947013513,-0.08364787240746666,0.05619780739484657,0.06796955029394201,-0.014459600716561726,0.0194216845115482,0.11223829507724382,-0.10625106887166072,0.06150318589380835,-0.021114905041959328,0.10457088944551467,-0.03198706465582944,0.023980098161065902,0.03331800353113583,-0.009437767618599671,-0.016050251680632514,0.04437957298355796,0.04918032192668792,-0.038888249260613156,-0.004537656912040432,0.03799316454294559,-0.015725762745146865,-0.017175920993568555,0.017534878832287184,-0.08394523858581453,0.06965099699096282,0.030145135212216286,0.018721779891526222,-0.00369150832205575,-0.07855422039363442,0.07002379368626806,0.07894118938229559,0.2277206936247931,-0.041002172347070154,0.0011322742803974548,0.214819953212599,0.03901229064162483
70.18720245361328,0.88909912109375,0.0633885957089319,-0.063903054163966,0.07691889744077453,-0.013002013362426512,-0.21613761411439586,0.10891401969989953,0.17338537346809282,0.06356824882239326,0.29113737864817424,-0.13930115737807036,-0.22396129777313822,0.17622485220743384,0.06346245171282291,0.0010305491144414897,0.1643100460669014,0.24549888990916724,-0.26205062454655575,0.04069061408357396,-0.3002196385291544,0.5266932896529737,-0.10918541479191293,-0.011174860302765339,0.012023726776856689,0.13626558092045346,-0.04651764158608625,0.019959237947252614,0.008550982908605955,-0.10619915947795058,-0.005814735935184334,0.09681892480626753,0.06351430278193931,0.08527454831564074,0.08224376620597233,-0.3022781797749938,-0.5327199817468058,-0.24186146316936108,-0.36873203821987116,0.378696311704287,0.025758940152967282,-0.25163773292851177,0.09118936040904871,-0.29196840892610887,0.03115394773344022,0.8583439014419498,-0.273388241919329,0.3717205335667477,-0.5421537173825811,-0.1307705073312199,-0.1041027647787189,0.19370897576803184,-0.007091129247834083,0.0356252761168993,-0.09893295865467844,-0.000716881264257719,0.0008621068993540811,0.02446011608307998,-0.007944540947849632,0.0126760796821067,-0.041225189083877165,-0.020049305300386126,-0.10179372053800506,-0.0749215114668549,0.061168158707840245,0.047486950474957185,0.03480158792541997,-0.06303316894969482,-0.009916559492919523,-0.03711319395238209,0.01406067026139566,-0.06299212910117745,0.05586550156661366,-0.11501895596509998,0.039340151638959445,0.06825855137297857,0.025737542762817676,-0.13597613832887243,0.030203363048654182,0.03692043317440327,0.04009070433557221,0.039018704427642215,-0.023975631368613113,0.005015735580216021,0.047208443238781705,0.06345896822422267,-0.10350886932146061,-0.04248144380066095,0.2709202666086321,-0.13448443603605545,0.16758356192254203,-0.22820919562254088,-0.007391199601776255,0.2566062209487768,-0.17266255987020943,-0.2833266807395999,0.5210123289400451,-0.15891694072200344,-0.011604245260805812,-0.05424464468932659,0.6325903864931494,0.17252899545515582
73.73300170898438,0.8893966674804688,-0.1438493986825543,0.05300107811086055,-0.023490285902737915,-0.13268406345668374,-0.026860258041013503,-0.004673588947068701,0.15255590154262255,-0.11204054890056879,0.05634966286968911,-0.1572028779068577,-0.1604263750223364,0.1420859441774987,0.0375817621587932,-0.0357773934619144,-0.15281322277984688,-0.11613306609470893,-0.44424524212501026,-0.026115950899514715,-0.26621004518913954,0.016553774948924273,-0.007128173623543104,-0.06296625598813077,-0.08037971858556535,0.17583437442332608,0.0071232094491689504,0.019403809516454963,0.06192594792051918,-0.045265835175468526,0.17954100000544443,-0.25513689184910565,-0.24278338393383225,-0.27614292815535196,-0.007139273145617991,-0.13181590861453785,-0.36641083584413353,0.7892969516852983,-0.03493786681212944,-0.6601111083623862,-0.959771903703361,0.07584556668709161,-0.2548479226483116,0.900848730173554,-0.17741001556978156,0.9626131006709691,0.015014798806890807,0.18706490520638958,-0.12339530061688764,-0.037210958620454385,-0.15976772210329637,0.07015438600173915,-0.01789510305068909,-0.05542212400319246,-0.08147474841600284,0.012996381779178808,0.04653538222207351,0.07523074930788702,-0.02043136954413767,-0.08519588238778394,0.052170844676573305,-0.04571825786080465,-0.06658612169485649,-0.03354967336155451,-0.001610944248505657,-0.04463254347493494,0.0017999075245027849,0.030274047858800012,-0.16087153221688347,0.039969910864342616,0.14376696525775895,0.10317759788128245,0.03710587113064675,-0.01521554324537754,0.06044653058490711,0.025340064567252813,0.006363840414126073,0.060713699609201595,-0.04072865978492206,0.0024283426173225577,0.06276039687620621,-0.03365536966994905,-0.009241111440068797,0.017811378486347125,0.10075795020343631,0.0444891850489375,0.05572441936179607,0.020951548696063693,0.046875396493580156,0.019403191838049692,0.029733955746758384,-0.09978682542251416,0.16713623252427756,0.16243159652802874,-0.039291082376777565,0.08876365424610483,-0.10447178762433465,-0.15339893976751373,0.1123953826735742,-0.03871903888583205,-0.011163417449522381,0.03932772987210553
74.62239837646484,0.8988037109375,0.16505172378539074,0.15661217504988162,-0.2307379194321036,0.032165689708878634,-0.04838122835513817,0.09723713719076693,-0.12097802596112704,0.09016609355086119,-0.030434258747361054,-0.09594193860341066,0.23395598736529113,-0.20267584001559893,-0.01584425801614291,-0.20271329067843213,0.09635378006968784,-0.3739924715788991,-0.19856861964555927,0.02477828192985329,-0.3061040985609929,0.0486890074854549,-0.00046846446166035603,-0.015664799957273785,0.171175689616989,0.03139494319373734,0.004478937363685848,0.2163037833847938,-0.14147380279775892,-0.06568681234158642,0.02857912149241726,0.09141473282228887,0.6239391055385668,-0.04725633866805254,-0.12076786978879495,-0.22631176336564768,-0.26671744849472373,0.3742293968772415,-0.48551536672066986,0.4099420567590678,-0.8342120182502698,-0.013997408534691974,0.34701483181675236,-1.0485678047380844,0.25055867959392225,-1.2054831533279153,0.1299376638955152,-0.3327373451121799,0.7545463959621947,-0.7196996163655015,0.6085960181495456,-0.09973289686208325,0.09687090339126211,-0.005141016522291188,0.030733343157923556,-0.041502556920099534,-0.02855607829846563,0.002218541117492784,0.051500512457844455,-0.04296157392420816,0.14839433430774934,-0.016285857246661237,0.11205129155059865,0.030353964451899702,-0.07132156699742392,-0.014071318429101544,0.04596408168865549,0.12854931358512567,-0.024741301534170472,-0.005649284702933938,0.014306696090247602,0.0089025354804987,0.02264659742976924,0.07293366178366249,0.011513115336225151,0.155053219786596,0.07306103423417602,-0.05355545064681631,0.11264730650527108,-0.09671707047661164,-0.04144339352537067,0.015424385670462231,0.023128726923410364,-0.08993149086671635,-0.034794125799528994,-0.015587809202853874,0.05524950910253756,0.03784465733264917,-0.04790139014302521,-0.06621367860287278,-0.10756773270943427,0.08193108464143697,-0.08686961205492921,0.057051257059151324,0.029578200262072057,0.03110360020284875,-0.01839506962753299,-0.05947870414798202,-0.10312805304918118,-0.13742298856294882,0.24107830283305454,-0.047913673944669596
75.52120208740234,1.9780960083007812,0.08087149827017494,0.09300116085058033,0.002591648968591209,-0.15123135908510224,0.07522702112044587,-0.01589134028167534,0.10895687890914672,-0.11631901339808562,-0.014669426416534959,-0.12313755640432134,-0.027525299634168013,0.195716419917291,-0.08712419009292224,-0.05254447795273373,0.07504087121957573,-0.3029397238332298,0.31569735895789824,-0.06706268539266713,-0.15822923105090758,0.01073863658427332,-0.005062484857914349,0.07848870377178328,-0.12205836742045434,0.07367716149863193,0.079051107107232,0.08310189607191813,-0.21332520874077654,0.20132270926293697,0.08755016506360737,-0.05189183554952191,-0.3999637253879414,-0.14724802912206286,0.21495638523944485,-0.2743404420157296,0.05986154598250701,0.22308678676997534,0.37027088774921535,-0.16319795549522997,0.680732160628353,0.08632137920213816,-0.0945046095617339,0.5319246296561555,0.16731374539535226,-0.37883141888291966,1.0010544871982612,-0.06402899204294205,-0.21101317080704607,0.30811964983601137,-0.10105222803435662,0.539929413093108,-0.16567237716093608,0.06829001251266124,-0.08327827125995971,-0.05832573917351891,-0.07972233923163993,0.048318731636808374,0.08659582801182113,0.005230124459598424,0.011008195639252252,0.08655116869594978,-0.1312510835413756,0.09807911951383458,0.08813764562900094,-0.12828846354909007,0.14147912912569574,-0.13421793050426659,0.0713753629744118,0.13181211481641442,0.028800144928886287,-0.05038326721091479,-0.01249454848256876,0.16358172482105396,-0.19587335150241184,0.027883614132155968,0.010021944092954968,0.08313155141929875,0.02907453597360376,0.008558560328709757,0.02527688772117944,0.07539933288198714,0.05264140305147411,0.05856509660300868,0.0009050400461119148,-0.033116492440307184,-0.023055677295488908,0.0307243270405948,-0.06272068903519387,0.04312798120434111,0.052228546178265604,-0.05417146371675045,-0.01795513580290826,0.045560763728361035,-0.11684961598303698,0.17768395050120353,0.02028659982002267,0.02277138015265953,-0.05861757038858592,0.11530637720336027,0.022009531654583137,-0.08276024413918442
79.3373031616211,0.8886947631835938,-0.17855162482589956,0.03539836603700049,-0.04791542927261693,0.03753951340313402,-0.0061411799678620675,-0.02094899813321653,0.15357677268374,-0.06758938215794306,-0.06381628117718526,0.06178089617419736,-0.06644493043873603,-0.02743674475013991,0.03177751965250472,-0.1110857380635991,0.030715484591071554,0.022944122478242443,-0.008774024424795412,-0.013819259024110886,0.037645661332951455,0.4215954724532095,0.04562677059321906,0.1750656700324623,-0.3916526580962011,0.10739321178584216,0.00018469441011832385,0.3795936780902125,-0.4014360762239524,0.3950011892248535,-0.23789098192250555,0.11796217171803233,0.0928054193164526,-0.16080292142805605,0.2860162075340655,-0.1268924147346513,-0.19078524461200716,0.0418340291610368,-0.4517645173311417,0.48586389157457477,0.6889999347418754,0.7964926626940462,-0.46376945817950743,0.2086739241885952,-0.805223133405782,-0.5583634036551908,-0.10393739422835696,0.47820063367808996,-0.4718960468311568,0.1821402446361068,-1.0251603670425007,0.03116916282512541,0.2181112303738703,0.00039902994235151135,0.040879305568840785,-0.29520937298643385,0.015105654164079507,0.04095797277499599,-0.1117831564353105,0.5002096753720033,0.4520981650111501,-0.26865718282266887,0.05112140629187209,-0.10896843790886249,0.09347019284638332,0.08408300279132426,-0.052698678364548474,0.17735813914197465,-0.2494697806344926,-0.02429549449127784,-0.2070709576978057,0.3095237984762529,-0.1336894356829891,0.2977998954675518,-0.2742053761894859,0.16953507662441802,0.00013697753195550041,0.10494311321794883,-0.047354015492756654,-0.042315445249047096,0.0441133558307554,-0.010585897115444859,-0.12550099950990282,0.016522225619031494,-0.0920147417726459,-0.048431799777322676,-0.031383709953190016,0.05989671559739189,-0.009824092360087041,0.033530673737619206,0.04987089245373601,0.0855778075052349,-0.006462674640298302,-0.09614954501673938,0.05807082974555826,0.03354861946400783,0.06065468686244244,-0.24349227493814488,-0.10379630781382974,0.0444029736665337,-0.08170696632354824,0.16019394592134398
80.22599792480469,0.9192047119140625,0.15719052481166115,0.061938969267152255,-0.4624317045918531,-0.10159492016985668,0.0183734878929855,-0.33324530938431673,-0.0012067104721451144,0.35822764692442177,0.07928103896510577,0.16919854536545637,-0.01151086216078986,0.00808313069312866,0.1689580879560093,0.004521447297389736,-0.016824948820112297,-0.05918470045720986,-0.1479456267316172,0.9553645296070458,-0.17977824616998794,-0.011241884518635566,0.01652552485473583,-0.05579909838202418,0.06711740272303432,-0.00120871080140858,0.10079116105926202,-0.16288335145093585,0.08181324693034074,-0.23144062971203588,-0.15221463891375725,0.15786589365543957,0.06070849594744607,-0.029274184914880874,-0.05109316434561669,0.3623439139667306,-0.09811793266045518,-0.7097704632136683,-0.5347569758898826,0.1965873018331748,0.2114977298652929,-0.7098147488277241,-0.48590840315268113,1.218345426729828,-0.8731818823534506,-0.002530214871040576,-0.3157089698622352,-0.019330349002578618,0.5608008934219065,0.02755142637750521,0.03779778812711959,-0.16507074865550136,0.04920693301851513,0.036458085556267436,-0.013716352530639304,-0.08827305722983017,-0.0468445033490451,-0.028197311919802282,0.019273069031150374,0.014955679400768288,-0.0886168054755066,-0.04788475225050255,0.11019756845966135,-0.13898213625641148,0.018498359869780732,0.023702586113312774,-0.013327498613663467,0.19330708220317616,-0.09581148297112221,0.0923230113574297,-0.08988183165606067,-0.021838822013534792,-0.08504924274197893,-0.007128991549081405,-0.0606973927595503,0.11251925268012503,-0.027426692279878886,-0.02140368129833089,0.08441188898272045,-0.012733074905424505,-0.015668634635078765,-0.014003445068052674,-0.11445890942975984,-0.04505877352962121,0.00787938022362761,0.04664995984031038,0.025450050043046527,0.025762635043023712,0.05310795043770397,0.0017393041585456498,0.00012819205047173845,0.09519327074787462,-0.032351164764503136,0.07644233305371792,-0.0031660689131924004,-0.08578532685093677,-0.15672051978130874,0.07598502310079251,-0.03607926017406155,0.04104485309517673,0.13553057246614209,0.03721458967719935
81.14520263671875,0.948699951171875,0.024800965643916623,-0.04026028898574772,0.06958833335134741,-0.49723271498994603,0.3084140538211473,0.05162620535108464,-0.0815428998126511,0.02207814888653678,0.05973128255791021,0.06198278386509553,0.07543144106306782,0.06904187172121574,0.09338605805105496,0.012621326697435306,-0.11756962399539268,0.199592033065343,-0.867327314043451,-0.3153569873411097,0.27953813679752365,0.0889485411843896,-0.03556778617342374,0.010416809067838997,-0.09483628200636848,0.06322362600310771,0.08374499846297423,0.21954631343601413,-0.07155594826394879,-0.09278438728962793,-0.04733114584568557,0.4587822021307982,-0.005444280281579883,-0.506539109402458,0.18955024019855157,-0.2023020245133335,-0.6164725041588142,0.7592744925327418,-0.7332635450163918,0.32348161927725366,-0.1243873316364446,0.06981078254373199,-0.11762351149071198,-0.32897730032559375,0.3811299942301365,-1.0329330522213847,0.7068640008088084,-0.49618053569724063,0.34820849779875795,-0.5212838479634812,0.07894970394756518,0.10831973069915604,0.008708209176765406,-0.048413889635085305,0.044944177476242096,0.02635061534700546,-0.012119087332006413,-0.06605166190593335,-0.08093773794885961,0.11776775523868399,-0.09993842571443622,0.04541716739754313,0.07792076502968241,0.0416359478419617,-0.15639975109455598,-0.026425659823685128,0.13120221705712232,-0.17761130692496285,-0.031237787439459104,0.04619080096848184,-0.11107118579552983,-0.055351995693245705,-0.03600912738035078,-0.14959385740517225,0.0780778429339181,-0.05011830568747845,0.1046736420859855,-0.0589782161472083,-0.008049323914299246,-0.050608989459600975,0.057361944836787825,0.058690225396765106,0.031019546065915397,-0.023358934949146377,0.020251308592129022,-0.14966682837334133,0.015753431743895086,-0.06480407959579784,0.0441753675690386,0.04345951410765962,0.040872553631460834,-0.055546414926067794,0.06138973086271172,0.0883793945870385,0.006392977494852334,0.0061517157634683895,-0.028502293207628662,-0.08885167145654575,-0.023894141688845183,0.1763441372709014,-0.20749565048422114,-0.09093658526767712
82.09390258789062,0.919097900390625,-0.08784554720796572,0.08726044579912563,0.05355374197898473,-0.00895997673452528,-0.06661671601367086,0.12624037104764582,-0.06507616658766703,0.10662826134165487,0.0010391780824171928,0.1915293194795648,0.14854524466999647,0.09285171383680944,0.1374110155384882,0.032170895404176114,-0.19960592609973504,0.4302943847219242,0.22584478901415456,-0.4041163917775584,0.22844474397670123,0.14767925511517832,0.0876561799616107,-0.07914525270452571,0.029730925747497645,0.09395667431506474,0.07215211804835961,0.04521633512921049,-0.1315502674604344,0.20270200901415986,0.162662707028301,-0.03231124286503792,0.3071110024391599,0.18558392068091295,0.2042450252872157,-0.054083017365495145,0.10903266672266693,0.5855198365675738,-0.007545655180458539,-0.0785897141102071,-0.2559156416959534,0.14783133979029245,-0.09635217182712362,0.02530733835381084,0.12991350175412883,-0.43385240199943187,-0.053835632369994,0.15177856665144798,0.1478846337271842,0.25253567276216454,0.030485452439328972,0.11594804825515309,0.1312678812322915,-0.03730708747830431,0.0022768782852387076,0.05144833913279173,0.051376168034027184,-0.12243804716415613,-0.029465454747669432,-0.011401890585385025,-0.04087561659125629,0.022716714113358714,-0.09954851687535582,0.06917413989919349,0.06457492280209176,0.0658895733061697,-0.07017832316091588,-0.07508176607879224,0.08597571185048805,0.055048384003749964,0.02375389712554343,-0.07424373356939334,-0.17829113066103094,0.12202362756572718,-0.01615424374247225,0.14020033540733937,0.027982471097623904,-0.016374555735176155,-0.05112093752224234,-0.045058423764940035,-0.03872533027928093,0.013009197561749643,-0.05322586759611795,-0.020410472535076205,0.023685439219239504,-0.024904529855850677,-0.0027028492587701375,-0.12499922023319232,0.04927549370174968,-0.12805322375910183,-0.009641834161561003,0.07405357407635607,0.03778213375187545,0.12452974515342194,-0.050488723245129735,0.0023691378693526943,0.18474651826917368,-0.08182006498039882,-0.11431717045311729,0.3732784206167027,-0.018811592323383128,0.10636319217284729
85.89959716796875,0.8990020751953125,0.08749628496202323,0.02277453368348422,0.1625031923150147,0.1947107380126287,-0.1289347700684994,0.0716325988500163,0.0451036159090204,-0.03501019169383942,0.13837631647022677,-0.023864710187051302,-0.02230131883779482,-0.0058071110411421455,0.08710376118138462,-0.07030119909082888,0.03590730290283555,0.09318801336988487,-0.24282407697319333,0.4692292226894035,0.004301523965325619,0.14320731853103336,-0.13648965356701154,-0.007735551786644732,0.054070111697481375,-0.14603155236676668,0.09277233716483313,-0.3481474620601971,0.018611373678107272,-0.12317701852301928,0.14818934558752173,0.1685232339268964,0.06972459427915739,-0.011491644399599567,0.5231801766074563,-0.6941973519008099,0.6406643208594822,-0.07803312702797989,0.8510368454740895,0.19383697760797114,0.012234310992402013,-0.5761238508749256,0.9221873885584156,-0.5780931591986667,-1.0040661728255298,-0.24852016360724288,0.16881038070263724,0.27649671192893954,-0.2323734959682227,0.16728413088531435,-0.1553311125137421,0.3410571259346527,0.015509332771343642,0.08596180947825963,0.032023018546190676,-0.034265969931346126,-0.030852398693180485,0.022094836114175002,-0.09076458615403335,0.03078549418452747,0.07133461565505689,0.13264335205160332,0.023777824456164713,0.05331167777810426,-0.0011148689806151366,-0.06205947902137374,0.07025302453242864,0.18733757868735412,-0.13562359114129288,-0.0632086167142781,0.012587784326316916,-0.0047134794070914305,0.06471631498335734,-0.18398153707416592,-0.057073913967472044,0.0758808471370317,-0.08154594747386229,0.10443539800841584,0.035379144618457245,0.014885311730342618,0.03515567040139146,0.04371642330248397,0.06048760592780006,0.07395384428265214,0.016214898230761172,-0.028147845938643074,0.01639283601363753,-0.07329274846146872,0.009829031404908341,-0.0192433276474845,0.1495382657366405,0.09318894376595742,-0.06810246489404152,-0.014460020827947256,-0.03903777725923161,0.011652610188393841,0.0002152816748372116,-0.0910229128195785,0.10667572268900159,-0.06938087396639911,-0.02040795006440169,-0.22948246755611768
86.79859924316406,0.9189987182617188,-0.09282283970047545,0.163905749867817,0.05991177176590007,0.056451286970535704,-0.09972807496446842,0.15400899116317074,-0.016643816283844606,-0.05983051046540658,0.0032650401171199985,0.041610721504162014,0.21702100355035858,-0.06353868724573337,-0.0003948226382548721,0.12159644964815548,-0.03851318993089033,-0.04531046935140127,-0.3584945446019395,-0.21713834795186168,0.26048629035249304,-0.11586517926341772,-0.08869398904069377,0.05289591970485664,0.004355178175345635,0.025758111222130363,-0.03935696402605774,0.06767997598015843,-0.025137333514056642,-0.13977612961538408,0.1214441680664027,-0.03965337666937938,0.2525438562938701,-0.22841695779535218,0.1630195932568943,-0.5016270875985911,0.41519286789096893,0.05445515457691577,-0.10021037990525762,-0.10909687866872081,-0.6726972280994694,0.19429631533204061,-0.598835216772368,0.6602433334223691,-0.43684470071401477,0.22415808403827875,-0.9001832195422044,0.25562863977948896,-0.1135180628297309,0.4735604450877362,-0.2245579873697163,-0.08129258580697576,0.012086125896076055,-0.022650541017597274,-0.029358401499908652,0.08595451642473145,-0.019334862523251208,0.008414209963578905,-0.07929691839525047,0.08846979775949783,0.011279677219148382,0.11460716880147799,0.25132923643661337,0.12233549266357992,-0.011219276169830062,0.11162521399837935,0.020545766258434614,0.023142343411960364,-0.052542634773235085,0.047438927439393944,-0.09477863764149924,-0.0756593229804798,0.04026629711645625,-0.019466716244859048,0.0697838588094826,-0.11691841883787446,0.011263704996032929,0.05864605776416627,0.06241897287486237,-0.023619011417376868,0.020532245677127643,-0.044107626219163344,-0.025889640467383828,0.02336350202374702,-0.024646474788025473,-0.01925639312299747,0.015072957311431004,-0.0013525432257349979,-0.06451469236227494,0.09311154665021089,0.03558919103480225,0.04536798084934234,0.06121087117154191,0.03045493996646802,0.1089378505068013,0.06238966510628935,0.015045202059571145,-0.03334927771645761,-0.14255225069075417,0.02433633848505812,0.318852233478476,-0.25794337604996986
87.71759796142578,0.9093017578125,-0.25474756629600354,0.12998897316865163,0.0230559588156726,-0.13634475692125242,-0.19700072942348956,0.07272889459729448,-0.11528912116176357,0.0787787837790747,-0.09260842567311839,-0.130067638043117,0.150870552994102,-0.0022822505668346647,0.016354839389043172,0.005512036307923838,0.23951913379809286,0.14127078752644726,-0.08393246343882019,0.2828555618161663,0.014846808166503937,0.12449324665154801,0.007695395666646496,0.06780217082938408,0.0055778759375242,-0.02890980668188324,-0.18549952436488434,0.34125626255759606,-0.032032997790661634,0.04677784732062956,-0.05965712054724143,-0.5123648829659183,-0.24623086623048188,-0.301233752093317,0.5478640451696393,0.43946821254370305,-0.19557187044371688,0.03862793513011699,-0.8047574601959857,0.7476790920016887,0.16283275394341754,-0.3029826565088765,-0.36404175038391107,0.6150475267615503,0.33086216494941395,-0.6989880697310069,0.5615388252589698,-0.4113911173128678,0.13520304193122468,0.23082470408387307,0.48272513370763914,-0.3170938585516425,0.04118513418344093,-0.05887427953064917,-0.06656361469208726,-0.026404031316007312,-0.01692449288502698,-0.028079969298181295,-0.060623465583825975,0.008461756594164649,0.010100392032935829,0.004850152704461577,0.09642761288323896,-0.08950065115627949,0.06397026553651626,0.10448710345209022,-0.061063886730806496,-0.011929040983007407,-0.008176601493445887,0.007543258558212773,0.014310411312866252,0.0500956001017361,-0.05354311891818916,-0.009760542513646915,0.0025324959449988796,0.019593511668946236,-0.004209457427756559,0.031138326309499108,-0.10341741533808163,0.04074770752315971,-0.007952248265835718,-0.04353724203664715,1.0875133595966355e-05,-0.05578382444204635,0.025395111706817877,0.0291727049270361,-0.010690349766071328,0.03278541308653861,0.025105921735030554,-0.09164315592514918,0.009746506157193427,-0.0797970487638775,-0.08941661632815918,0.0690133909908384,0.01817306088793856,0.05868488647169278,0.001765816198683462,-0.03155318599122482,0.07749122964166599,0.19824394404079412,-0.1498026492761965,0.1350751593379541
91.72329711914062,0.8495025634765625,0.07089254205495249,-0.06803677717123058,0.10438823609812557,-0.05017759302863745,0.17772696707498745,0.018095923741677768,-0.015604450292908491,0.07450523890515184,0.1320772913945753,0.020298108186876822,0.2358078951694551,-0.11989116741482152,0.13040911215694936,-0.03317390544391473,-0.052733055081101016,-0.06516542780664576,0.007975695107513711,-0.09945326732476661,0.4745373357716002,-0.11596338559342576,-0.16077225315745097,0.04574221621901868,-0.08246561876077019,0.05275020638695544,0.05638398525360056,-0.2347931615650926,0.05628335196279996,-0.1265825764630614,0.1084923625028309,-0.4181461352920681,0.05763282690479159,0.15267488457668288,0.01915500533480959,0.45700404926780736,0.3633359601688857,0.08174548945396093,0.01907493653159322,-0.17141562139536398,1.1620855372430554,0.447669944026299,-0.4474526613725664,0.7592337706989347,0.6163450870051429,-0.4484272861581813,0.2791019096207101,0.15686155816751599,-0.5571723313042828,1.3652739409508972,-0.0956457561080494,0.06027483195910767,0.13539429373066725,-0.06566828004365294,0.040839069122568086,0.04876941680280052,0.029192366669595196,-0.10350746995447611,-0.0011998262045985544,0.036082529751169226,0.006945154759446891,-0.12644740739072072,0.11420409922679058,-0.1535643920162256,0.025187578057858234,-0.16062843492798992,0.1046406550735391,0.1406689122544133,0.038895367194122316,-0.21176346300114876,-0.0536282980506579,-0.13003967125192867,0.01924993352698302,-0.03265055071909916,-0.013312209058740884,0.0024724368699513208,-0.026897458356339457,-0.038478278871304644,0.06453890744959284,-0.001746164440062368,0.03452000374504446,-0.01777227011069089,0.03392871331072381,0.06378590377159946,0.014136207551934548,-0.020238939333382302,-0.0008938831256377761,-0.13692197140939022,-0.05645116273426577,0.023069953193954086,-0.048087129976182516,0.019981502096755616,0.020860147947998613,0.02204120713539164,-0.09724089870727308,-0.11707987849752352,0.13939904796317923,0.021470051457566475,-0.12519248266621366,0.016678674905056683,0.17830156597246616,-0.05332078640397697
92.57279968261719,0.8590011596679688,-0.049096894154427126,-0.36993910454056894,-0.042770208761855465,0.10495924648764957,-0.17513463708526805,0.09186599420829082,0.008805659166603724,-0.10006533193823446,-0.06645484879054446,0.05234487369420432,-0.07598303998747949,0.11585392608962577,0.020587905878583643,-0.08416075198111997,0.06425353742011146,0.034431818580898846,-0.22854295795241936,-0.3217067846973455,-0.22860964060923059,0.08076471792205227,-0.005483364219900426,0.05803729246207658,0.0035732125756849395,-0.000563059817068286,-0.03501849534315059,-0.04733184008019063,-0.08313783377904273,-0.09747797140855285,-0.16730578060807244,-0.23880138920381638,-0.2124508363827017,0.18720359773213746,-0.02875083553552224,0.18709961445478973,0.7657857792281941,-0.2886276808344555,0.3388266603551078,-0.1716465668802848,0.9650517977236591,-0.8225441279669036,0.6374148997972744,0.33208255906249684,-0.4452541741187346,0.1647127292588831,-0.5617640817988656,-0.37350277583840336,0.42751725142018854,-0.12059997135494327,-0.006352671857184383,-0.03413051167447467,0.047713948439695,0.04800806079582445,0.04218120899971558,0.05411390516552654,0.01671544697967954,-0.0019816470278398437,-0.13687977715186697,0.08936942017971182,-0.05219267310560484,-0.14063636750266215,0.05364135748313983,-0.09402172690228966,0.04882076045903751,-0.023370876380415316,-0.039487143957313495,0.0019615197410193276,0.14254129011801908,-0.005722676325003626,-0.07020242174211355,0.060899980855290345,-0.08619086578306674,-0.11406629880669952,0.02026594007958985,0.07340269812251173,0.012382182012674724,-0.025315714420421333,0.041442811442393986,-0.11440073346351279,0.1447217470779763,0.0041794962554628,-0.015985193248622312,0.02555333822010214,-0.010525903858750803,-0.006960157783019198,-0.004696173296118572,-0.027745727943094878,-0.028209537197838388,-0.028553189208642304,0.023560614664309067,0.02134955498591493,-0.1441688077619886,-0.08487715959475967,0.04341550663890831,-0.12275618583338804,-0.013438714120444539,-0.1297846743989785,0.03291669533417842,0.08374231712926908,-0.07711580007154578,0.15361961665276203
93.43180084228516,0.9488983154296875,0.1483996122577305,0.09453482728575997,-0.19210262420587662,0.10697655761990271,0.31862474775335586,-0.027050712350215653,-0.03864991468653913,0.007800699812616371,-0.006252077560334974,0.002415474735721443,-0.07095406846383208,0.03855222989676243,-0.11125130678465303,0.16350229602540906,-0.09740578882748384,0.6566381038355804,-0.10529646497522721,0.14810858945627337,0.022308553626918557,0.13672306901148104,0.01892333842191686,-0.027976414286019467,-0.03250242231008454,0.11220996821162732,0.07253179692816816,-0.2287444815082608,0.3806823467985229,0.0447758249823076,-0.031699734532870734,-0.3202392634130773,-0.19120129830177857,-0.0309975584938446,-0.09766197555845092,0.03947802725239136,0.47042658432213535,0.10663185136405257,0.3420176642214506,-0.1452956619423511,-0.19666247838760925,-0.15931271647926262,0.1389512679588741,0.626476782665375,-0.24231962318486405,-0.1384839094746405,0.1152949001113645,0.742094815676599,-0.18316108612230744,0.41751692960564724,-0.19167647331207416,0.22526397755792452,-0.2098525834106049,0.13942512481018782,-0.014247776645091092,0.013397283944146793,0.008443759743391434,-0.02157293516747779,-0.07796675860482079,-0.03845670046763103,0.07301550572416989,-0.03256390631474765,-0.009795246801824906,0.023789621925536946,-0.01104741954905019,-0.01168133058860527,0.009986106001374739,-0.027066183365118734,0.04041834574503264,0.050963952541113404,-0.06077973072906973,-0.03656138739941467,0.003206363501793664,0.04932917223418837,-0.00137369310485283,-0.08809947964652048,-0.04148296354526823,-0.048648865397616245,-0.026724189056834796,0.036814601407078595,-0.0045746760343196805,-0.024025776216780075,-0.039154115890889934,0.059493068231783464,-0.028261217993514685,-0.015151767977864546,0.08076154566222774,0.033077250348348915,-0.02612479173767631,0.013088869577279352,-0.006662550154242098,0.035700973617093464,-0.016277581894429266,0.03833934075621585,0.11119893377530571,-0.045065635418164766,-0.034528111760785636,-0.08158106025744614,0.025145806049591952,0.0030797660671083482,-0.07907049274238469,0.08858102674693792
94.38069915771484,1.1186981201171875,0.10086974880725406,-0.1156247851052163,-0.1030545367335322,-0.10609788369587786,-0.1079919283890618,0.07895927302679034,-0.15500149459118961,-0.08995483565877153,0.11927773547570793,0.429849245316311,-0.10740030457152264,0.019523605422531835,0.06105406593907927,-0.13523500655216739,0.036526893536421634,0.013343108046458127,-0.19149259329723445,0.652365954508233,-0.20547810694818636,0.2816634984076085,0.03031261364020802,0.04983054065642306,-0.043745320006107806,-0.04010495308635211,-0.04590707505850313,0.15233614847981888,0.16817127030435655,0.08149506579770736,-0.0327903890251606,-0.3119219572535165,-0.24470432324367353,0.19817802083993452,-0.5704920906743244,0.42150859390484174,0.041027817173172776,0.44054179018031964,0.18998599494295332,-0.2418282197546293,-0.12432793375764498,-0.4123925948468989,0.4104668707336734,0.3347996601849629,0.22471103887852154,0.3594743224390029,0.06662540058313729,-0.157724180107521,0.02821492393522737,0.0015821799515978296,0.09327860535997257,0.010783878852731368,0.04699136474259036,0.03188407148637927,0.060936641262944076,-0.04181359788661563,-0.04470346656878974,0.0031478042005948226,-0.008235351799063833,-0.05966135429188704,-0.044574710550972854,0.05156731110217866,-0.14046996625840683,-0.1067431210506141,-0.09738652059552129,-0.21329085136754847,-0.057879427663315115,0.005843300658275893,0.028017820617448695,0.08690118503780216,-0.12224345874630503,0.08962668144763697,-0.003855802678871127,-0.031507002999541595,-0.024412884226262546,0.017319792761683966,-0.06686071712311879,-0.024210312088334053,0.008480726669869331,0.02228431307389091,0.06113327040588869,0.07369605741640575,0.04130343797122306,0.07936193832937624,-0.02933897759818581,-0.03886261965455524,0.00450774955353022,-0.03524324117658402,-0.03159080284320516,0.02075337930791281,-0.07542222974415737,-0.05246584651636167,0.04297255385844426,0.09581854064459146,-0.014549319062574909,0.022235171790331895,-0.05735890094718119,0.0424239883040258,0.06549362727911974,0.08105322898449215,0.0070897091098179425,0.10100849776297155
98.24590301513672,0.89959716796875,0.3370231317129197,0.07831329275761914,-0.1976248395211528,0.485920525396734,-0.18779582868897285,-0.024434245204056133,0.31828620079819325,-0.3111038530893526,0.00542472700129823,-0.06905341464080554,-0.002537009732184334,0.16170862897221955,-0.06795970002211035,-0.19983249611981566,0.1111281377602763,0.006043472633349157,0.20151006819468129,0.5306211939033775,-0.00828355204770121,0.1674472550786102,-0.0880137383622968,-0.04814115527916739,0.06981259919974078,-0.17679929128041647,0.04907381897083245,0.14145246178443033,-0.2301456571613431,0.26472222398700873,0.24750784958106847,-0.33124906807773313,-0.18315103855638354,0.268692952520478,-0.32465542778659895,0.32314768188783843,0.6011214474151518,0.03816200872501397,-0.6025927868585959,-0.04555037021652346,0.7394904283868399,0.1684619200067794,-0.17594753380405165,0.6986876844016092,-0.5145259646693215,0.8890742941989189,-0.9556508293925585,0.5047654696589553,-0.3457127669060773,-0.026881669180345628,0.3813956108332349,-0.1110229649355796,-0.08859858125138113,0.15147359798213197,0.0548869283459582,0.03295803976683903,0.02397901959555622,-0.058531444223517956,0.0035802341121352055,0.06595096273629533,-0.12068238148355104,0.020269521021287127,-0.02868316833302406,-0.07866572063465826,0.0016880953521419958,-0.03517445416364647,-0.10532978958203959,-0.08517803576500216,0.023638460336825165,0.07905822058613886,-0.10182584558553857,-0.01971366800706806,-0.007718674879641612,0.02292653260345673,0.08700040674591973,-0.018692833077884868,-0.025364750610511782,-0.013344981628576688,-0.030607144281109933,-0.04649242875313794,-0.03781152307339622,-0.06284039865893183,0.06244186824544164,-0.011358141190199572,0.013500838371561127,0.06732566485369693,-0.020038492908862657,0.00458662407529192,-0.028758344933394214,-0.007852811705176236,-0.02726045641696237,-0.013011372552874169,-0.027845951446717806,0.015550653570369723,0.12170022426442129,-0.09716623492187094,-0.07474453370593691,-0.05951000023046003,-0.07349950865948861,0.06512080119954428,0.09495589061366899,-0.16799874593330666
99.14550018310547,0.928802490234375,-0.30929424728180105,-0.1646810469562888,0.06125008218890829,0.007283733258068824,-0.02563042361277905,0.011458987498453164,0.05816242121221542,0.0816080273288003,0.03699599777477272,-0.027608454814946497,0.19665971749974093,-0.0535535446657629,-0.00044253207070580475,0.005363513844679655,-0.056021136333555016,-0.14028974293102445,0.5765285428818947,-0.24864170875204844,0.19797217008724066,-0.03699531512832544,0.16155648063221964,0.15267750773971633,-0.19165868364916155,0.28203160373216596,-0.22819610635863294,0.21345329812188674,0.2393106621351029,-0.01316196462691839,-0.3243849890017465,0.2487286193293706,-0.09556655903313979,0.0498637192034078,0.2439512298442866,0.3748478689144905,0.36559618909213837,0.550558985130481,-0.6054471020036372,0.199832380884165,-0.5492208614825241,0.4739612322327947,-0.18598519704975358,0.8550781979494507,-0.9162015904982553,-0.11751992148798074,-0.12981030714066438,-0.08350385077462982,0.605828660968207,0.45398099371144135,-0.22726774900097532,-0.00980109237867123,0.007271196797370632,0.024768815577607867,0.042548354331476246,0.0013387413939932539,-0.022268408650161463,-0.07809443267232184,-0.03555808897073599,-0.11245520686915747,-0.0698834210311424,-0.020074614423583145,0.07433215834163588,-0.02281571039543418,-0.08628231583468593,-0.15846103674292283,0.12488760293872442,0.1927820342020174,-0.1634054333112005,0.026819990228556422,0.08449868581126738,-0.061001913936368196,-0.12110052772449253,-0.024317170509879464,0.04475149931362803,-0.09892241326977388,0.04335550041186513,0.000985384586959211,-0.039925762149462356,0.10827004128302474,0.050699129677456205,0.056816882042488095,-0.007932484227791903,-0.06887351221644869,0.09827153813513254,-0.0033649298532060228,-0.046170752753262274,0.05462688444771782,0.025018025374472036,-0.05697715273848416,0.021890046381111257,0.009954545359971357,0.08607636289887913,0.008888316325650692,0.01079473931500324,0.05705292894780556,0.035253158739303084,0.06693855640459888,0.030001560703021398,0.168958752170132,-0.03938976303162108,0.046167672452202574
100.07430267333984,1.82769775390625,0.1971559976109607,-0.04767216920112169,0.11495459688085652,-0.18744419320947134,-0.0655290676797453,0.08870353685288773,-0.08283224254204058,-0.0050892125072797,0.0715322975402463,-0.036062571039037435,0.008711248164322859,-0.10897194437747483,0.019818497322586812,-0.034287450576945426,-0.060886281454824415,-0.07791703368374565,0.01758324815503079,0.046204145348381916,-0.03786697176729912,0.022626173312491508,0.06727706252791711,0.044578011890495595,0.05539256611369489,-0.08097290964829665,-0.28221611420456694,-0.12705886626990237,0.11489167831337983,-0.09980968855884093,-0.05647042996870524,0.06816045029396281,-0.09008070089587171,0.1563127326749182,0.21503541492540815,-0.1221432452780041,-0.36336215816627093,0.12467576977853492,-0.11878189266692514,-0.1447133655745792,0.8959575766850351,-0.8825265062373597,-0.41833913238938003,0.7059599513091017,-0.2972043111804775,0.06467564210299646,-0.43729383992576615,0.7397098270518618,0.06473736957267093,-0.4124464357446298,0.5169589910611563,-0.20183454690699237,0.17638806868413975,0.1826953159091229,-0.04402982082557073,0.0993980146645471,-0.028733292016797675,0.023204714213801055,0.032445861037214495,-0.08443661889269749,-0.0029135296732315306,-0.033099404337190344,-0.09299504270475914,-0.032122619066212034,-0.11538938364623459,0.1314620363946719,0.13527221729130953,0.02788047877428211,0.048218887141290835,-0.059417814979651526,-0.054649739194608665,0.06104289562968282,0.13631746220079274,-0.012984703941807483,-0.008098457010687593,0.0556349324093969,0.03607575085168024,0.07549431423452505,-0.01050133409310048,-0.0402182388954655,0.0431381672574913,0.0765062993016479,-0.07345617041254372,0.0023961457402688763,0.0033993483935343682,0.012108572234844527,0.050936269282559676,-0.017776178483869434,0.0881568361317425,-0.07176878584665974,-0.05836283026514052,0.048628008961071084,-0.026708228189839322,-0.06197558495653129,-0.037216727551462575,-0.09507564062693796,0.07369406702924267,0.02529213845123602,0.025126136331031525,0.1556313767205257,-0.06976145485222388,0.06198427549711894
103.77989959716797,0.8990020751953125,-0.022998466077358365,-0.05233433712935084,0.053122888244596114,0.06897767086088914,-0.07605799874337778,-0.08844836590644271,0.07649208574125183,0.09207060549289459,0.07268518264933727,0.03700381684713763,-0.13405623268770778,0.033181662610445,0.004123986621501402,-0.10545875237304674,-0.05593111385262725,0.029174640180753886,-0.07459809298538335,0.07194747834062439,-0.07699733287666385,0.23431792594978212,0.1611663038012104,0.04775036846618138,-0.06613090970112205,-0.0821558360117255,0.08565469287805562,0.43483237023141513,-0.2812366839551849,-0.047680726992009384,0.05993338748377289,-0.22046648675669828,0.44941306408109594,0.2137494106688266,0.3877527219891196,-0.026900475837601828,-0.15240055843827927,0.022703417354380737,-0.565782474874412,0.6659939663502531,-0.16572451211614847,0.3210935698900953,-0.016628205513735936,0.25664189572970575,-0.2510719250574883,0.48690706801071676,0.015526224543517805,0.5883153989346648,-0.5785609956213611,-0.07431845478988969,0.12062357380359127,-0.26299883098218907,-0.42954743388940775,-0.05901965474430887,-0.01563041524331283,0.024218567720998903,0.008861252215012286,0.03872175331470411,0.006559158675171214,0.06257041458389583,0.039647256983313825,-0.037271088709621404,-0.11418806202170122,-0.12430724250108131,0.04204829746171154,-0.025819304368872836,-0.15626896683658942,0.0711197096173481,-0.09830697968276202,0.13866721482465122,0.02108425932469686,-0.07344365437410723,0.011146003690021576,-0.10356062933307436,0.011754783420339452,0.02107294760727867,-0.12843225598549307,-0.043329150308538456,0.012863488926015541,-0.05704513717891621,-0.013019191151912093,0.053229502110341886,0.03415824181863962,-0.0225617165553582,0.07655697979558611,0.12806999818528408,0.03212325000885795,0.013693983814633812,0.08361793083747068,0.037550887145243524,0.07337883769942455,0.025922005497852636,-0.04515339797215431,0.020053764526154032,0.05201919260175683,-0.007347411715120634,0.11526523075957579,0.051104057182963805,0.1347088181183102,-0.09268822000116315,-0.09030547257131422,-0.2754167693194427
104.67890167236328,0.878997802734375,-0.279375067352097,0.16374927240005796,-0.01658486903296299,0.037914374519757814,-0.11661139253996901,-0.10602571104409553,0.024839788616659413,0.07858427697720365,-0.0508293468260043,-0.004009713761759015,0.24234382970828286,-0.02179465494516317,0.15492664878392862,-0.13503008674177563,0.2950645029567786,-0.7921853517601174,0.07468171922181839,-0.05706339950955487,-0.03755886265772869,-0.050287298330502495,0.05159896023727713,0.13709492088572434,-0.13020142729317127,0.07356912047305603,-0.016252781881366613,-0.22522462797429907,0.08714098382205344,-0.18730567142739368,0.25363459482132367,-0.36061992795186315,-0.3285011063207539,0.17254096373321823,0.012734681477283285,-0.0417416909666807,-0.17224659419901794,0.04161334959097444,-0.2346583973815751,-0.1621360522367608,-0.9692098888098406,0.6890361668786149,-0.4818730990084962,-0.5727463270664601,0.07190133938028523,0.8077647894562664,-0.1403180203945501,0.7222711208995243,0.21641887808051247,-0.3134780384255006,-0.18079621788255038,0.0955645538219029,-0.07094700692194925,-0.004023916263743771,-0.028501408448723307,-0.03952407174477231,0.038075048405426,-0.07300439234842902,-0.013047879027142885,0.054990810086915656,-0.07873323483294599,0.08136998453142284,-0.018759234712499157,0.11382758753597846,0.032590907787834855,-0.11617376156331938,0.014607809556063233,0.0787930648837476,-0.10593125838929351,-0.037800344585851485,-0.08226688522955714,0.07770107223612376,-0.08302384420556921,0.0193624959095519,-0.02349535725921734,0.012126103364205346,0.03228787775615258,0.03325602137609608,-0.03627995606377139,0.0924261718551869,-0.0281576946268954,0.05818460944874225,0.023614772120045303,0.042044011889239494,-0.03184730338681029,0.030260822902351943,0.020337685277611747,-0.010317907819027172,-0.06731185946072459,0.024471218076048275,-0.05158084585607569,-0.036857548914301846,-0.007404897980365723,-0.18987060300612044,0.03304367662916071,-0.19202817787639212,0.05551471524472969,-0.03216698166346202,0.10316318295336963,-0.03413818097677558,0.13606683829024435,0.13282501632767832
105.55789947509766,0.9495010375976562,0.2628497995327394,-0.12797145934074805,0.4008679098451892,-0.06262492521351355,0.25469006366433455,-0.006988334424583464,0.027067455599887314,-0.0005722180460712763,0.021444199180931316,0.05442250694410321,-0.11877206836378867,0.10813137079604246,0.004912902575233031,0.11729704645135965,-0.11845466590927083,0.3537200921525415,-0.3436630535452997,-0.1725265340587161,0.09885883620153517,-0.15478365465296998,-0.04589146885259274,0.012026152939818893,-0.014092847011385638,0.050425727781119714,-0.01684517598688279,-0.2106114014552209,0.17159248418200088,0.080825836824784,-0.3640835864332989,-0.1370009731357921,0.4502973757767905,-0.08550631835875476,-0.27010871223292987,0.33278179957150134,-0.6875659337727371,0.9028858148506798,-0.3995986001624477,0.16725480698069528,0.06054803501877578,-0.3556525280769208,0.08612157980784886,0.1370086391328448,0.6936664588054586,-1.0739643452092964,0.17117977621710445,-0.610974380594654,0.19674046183159088,-0.33414711083386833,-0.24443090162233633,-0.022750637621259926,0.002567019241804344,0.02292043770609386,0.0005091107067336162,-0.09057524554242614,-0.0801275796567247,-0.024572406192535375,0.0009928626357916387,-0.007350908316544835,0.000713883336204554,0.15554551353693497,0.009176688016042524,-0.04944565082938258,-0.062300221470077785,0.07407433789949239,0.021827604316876578,0.1303287463940075,0.023224321537831726,-0.058804335413354634,-0.07965686720478465,0.09324332628276676,0.06006497842603137,0.0026935525792836923,-0.06678502148539112,0.04600076844048219,-0.0019725462274756134,0.08940494545586924,-0.042894251583365114,-0.018995873524995988,-0.026534939919470247,0.05935628422946703,0.029400687937355188,0.012346655719686392,0.08496485127930975,0.039756780625600736,-0.04700206772852023,-0.0663363215404458,0.023910642805510363,-0.02267603409805783,0.06411690252002497,-0.01667809672321898,-0.04228958907196616,-0.011753052079375478,0.04130439501097011,0.02892480436270435,-0.00890231701622506,0.04364332495120338,0.07636128776945972,0.08786053760222201,-0.1056222500549045,-0.07986617869069268
