start,duration,0,1,2,3,4,5,6,7,8,9,10,11,12,13,14,15,16,17,18,19,20,21,22,23,24,25,26,27,28,29,30,31,32,33,34,35,36,37,38,39,40,41,42,43,44,45,46,47,48,49,50,51,52,53,54,55,56,57,58,59,60,61,62,63,64,65,66,67,68,69,70,71,72,73,74,75,76,77,78,79,80,81,82,83,84,85,86,87,88,89,90,91,92,93,94,95,96,97,98,99
14.985650062561035,1.3884000778198242,-0.06596843350957945,0.24184430459976364,0.10069962715538881,0.027241625822125772,0.1439474591785824,-0.2544974402472523,0.01750625090403413,-0.3599630176239703,0.027654703350300562,-0.12818945250879069,0.36262222226373747,-0.026419157602565264,0.021217931264566964,-0.06951359072624012,-0.0868044780298428,0.02886652948510974,-0.26402034421113446,-0.040748776498732715,0.020258405648354197,0.0387800900745501,0.09089545684125432,0.06908226374358098,0.03884857090488961,0.05774390558844644,-0.0075011957073265675,0.014064386235933552,0.0361786190462617,-0.01871526666374111,0.04147513463952105,0.05023830113349728,0.030753328699300322,0.04506167409926932,0.07408154556982571,-0.022137848290745606,0.005926783204687087,-0.018457125870348666,0.07054067045625098,0.045707474794307645,0.0002649747574094781,-0.0005557760343629092,-0.023949974404454663,0.0007283538470302517,0.0319267709235835,-0.06959789373201405,0.009020363809061169,0.06126100228602117,0.016431494188604987,0.07042607638961827,-0.03287252483979904,-0.017552584412690888,-0.019654566938994866,-0.09972721611435995,0.07468157536873951,0.04077041080363266,-0.017150467794927335,-0.07736388553186287,0.00806793699489478,0.011526981911640692,-0.055022483537996526,0.03053041152413376,-0.0025249357214287217,-0.006153549366700508,-0.009527870555878587,0.10420915093507056,-0.005993154236665541,-0.023266448541325202,0.008055103187271727,-0.0450343983758724,-0.03794494345761282,0.07772583066507559,-0.04435024845500432,-0.03667061473625502,-0.0448351759682876,-0.011508530822896337,-0.024740881398202505,-0.015625139128261,-0.007322135001581942,0.047533493203495,0.03539345514977886,0.03350912678351007,-0.025600240159022573,-0.05510179729110369,-0.009772692038512856,0.08541388299105779,0.006266021142161686,-0.00448615967215141,0.0004744849547070394,0.08581751057282172,-0.0189647505352737,-0.023297547990936772,-0.011786961909685154,0.012945234861962343,0.042381320082065396,-0.007810426888381733,0.03779701079126021,-0.05588110197957176,-0.05442863459335407,-0.0007625438130953385,-0.018102169059904943,0.0019335163225300545
16.37405014038086,1.378000259399414,-0.0004682819517600745,0.10429239378155028,0.06402312217873143,0.018573515420606465,0.007588447229155646,-0.030551069292382868,-0.040219318331785936,0.2748710541871432,-0.18850184145024368,-0.17812013261236492,-0.29052632974390424,0.1498507401885936,0.016205493320276702,-0.02795193233469621,-0.11272490592679127,-0.06150775280768793,-0.023409259365560185,0.013977728939345842,-0.013428830242063396,-0.014213796710037398,0.005961311550287035,0.058822321733063364,-0.07050620268764178,-0.02607464172999949,0.024521715300850937,-0.009504377461075852,-0.04835666269216044,-0.06632016217980388,0.03294093192993984,0.03941757953781094,0.020260010417434783,-0.028728620376630085,0.0025104084265632947,-0.034743852188038056,-0.043111615542883466,0.0783934509060539,0.009710166891436682,-0.0005285022645163186,0.02906892632656519,0.03444279816956963,0.02320558445043939,0.022427553071164705,0.016361521975452938,0.0069152237662517945,0.04525466065100544,0.049617059507563385,0.026953137870322053,-0.0433570150298532,0.013446580527899134,0.02167681639411273,-0.07795804807306145,-0.004291190980527517,0.006448295023090157,-0.014902211977768896,-0.01105830354864641,-0.00915828934228824,-0.020596373038023797,0.05066543569481871,-0.004243444457376507,0.03905525750383842,-0.0015250538723919863,-0.10033729455066012,-0.03771451529059463,-0.009938451576623326,-0.007034220159874996,0.0055496586346617475,-0.004032432937808901,0.007995916130777192,0.003198723994556271,0.05086574004223218,-0.009262133872198333,0.0028977374392373237,0.017043627562511862,-0.017595125027036106,0.018888016247334632,0.08670886636095168,0.020490059330261077,0.012091082451703105,-0.009884080598793912,0.021027458151927216,0.0352976836698149,0.02054766906199594,-0.09607444792760778,-0.06169640128939612,-0.025851033164841688,-0.03620602319821259,-0.0696312533789085,-0.0009980559601999424,-0.03889003638677557,-0.008887053954350604,-0.0003900680574856609,-0.006866014853596703,0.03149963503795026,0.14397223807535017,0.027152141237111307,-0.07984601676756933,0.04197377229557781,0.008480800254777564,0.009175003711138018,-0.08124409821653719
17.752050399780273,1.4287986755371094,-0.09601193015299167,-0.017556301077409155,-0.11568834799170269,-0.15277188986547005,0.04339200469360194,-0.011152422714857321,-0.019339780942143794,-0.15427736296776684,0.0726698419231269,0.10793420721686181,-0.21623368136056764,0.04267866066115342,-0.03449576850267019,0.0008312381213543552,0.26330428412270696,-0.03134425450678473,0.008743908988287804,0.0025972833593310885,0.026410277413050142,0.00032722007446067247,-0.0033543457106699277,0.059983491407390115,-0.06677621866351865,0.020938007096782597,0.04025285249292384,0.0634716373833056,0.11079202047987588,-0.045373223429069395,-0.03282372976289921,0.00010129435810540127,-0.06650592140975752,0.006496330730461135,0.03250577934737715,-0.008650325074296743,0.0408878917271078,0.04126631901660857,0.06433311503223595,-0.005874892213365653,0.020762823757337144,0.028452925012705018,-0.013634433161834589,0.06400467030161945,0.01038967086625964,-0.03524836870204904,-0.0366443124953,-0.010159764963270982,0.06001983782535922,0.00564377674714045,0.03216359473650869,-0.046802416980443316,0.022107157108909998,0.05224977920464654,0.030603689375210033,0.010167490710455881,0.030661290366843313,-0.025640268520826556,0.04677235579218822,0.020360868132559724,0.04087556000315544,0.003823172252157931,-0.016831877884107588,-0.059791200975834125,0.039551400399741,0.05593447355306125,0.007574861884003267,-0.018859152868280046,-0.002759727576934553,0.025569168345333956,0.01447062975846878,0.0840023342672846,-0.05592833136740924,-0.04450068627219173,-0.021308176904634907,0.008229148934960958,-0.03481536483276612,-0.01261382061299357,-0.0145397361826694,0.002751044835779127,-0.00044674850449138157,0.06627910846921263,0.05426868436002433,-0.07358958549405013,-0.022961838333583385,-0.01522123848342711,-0.004213776226274359,0.009713602964938275,-0.00732897714106548,-0.013059538675990698,-0.0522262626565283,-0.12897540579634642,-0.05438559611765668,-0.03379797686846364,0.06823323436433565,-0.3331152550422577,-0.012799682817493996,-0.0537063470067668,0.0844182067994601,-0.02150214190580478,-0.021574514299934927,-0.08646610302865844
19.180849075317383,1.3086013793945312,-0.07723159283000633,0.09336591133174107,0.005075350817502266,-0.07961643898504642,-0.08205592997485675,0.04556219489450063,-0.10362188007163643,-0.2039941814130961,0.10945574629082626,0.016207533471171626,-0.08932017586594346,-0.1432409091852343,-0.1407329516417272,0.08982524358248305,0.07813636874421286,-0.005768308179150964,-0.05919705265767485,0.0665194032999078,0.018216959517499978,0.011346639392601145,0.10971685501586871,-0.012123022546243345,-0.10099625318877853,0.006708279354836601,-0.023259683153969774,-0.04065865051820552,0.03905507691768272,0.01762601002552453,-0.039675756750816187,-0.07041068366449707,0.037869053713511514,-0.009194525798318354,-0.022862875933564432,0.047938947712084755,-0.011997169540221946,-0.004084303127215582,0.0025032773521744874,0.01070942994534281,0.014150674514550224,0.03975100731212035,0.0600368512322473,0.0009837394222825951,-0.0065370188724677035,0.01613065112254823,0.01190256834290848,0.052263351148028485,0.039220680883179766,0.06795441123300114,-0.00882620401357423,-0.0030098723453208477,0.054954630289901184,0.03673827156183898,0.017898685851487215,0.014704632149592495,0.021240052735618072,0.0121499201873263,0.04374839410617141,0.018872913555946478,-0.019326252644283042,0.0033926072316759455,0.02102334995186387,0.052096321413353346,-0.03430016333414177,-0.04419870253009608,0.007093860328110661,0.0704079212839928,-0.012429211137026278,-0.06223207649771004,-0.004027356912481074,0.09728865390566693,-0.02042445306501575,0.004500678878960353,-0.019856483072808524,0.004110328340775955,-0.012650667937188338,-0.0077137684225470635,-0.02252191385109996,-0.005124447925161245,-0.08589441605578188,0.04357956703392144,0.028953112238001594,0.07085153495852166,0.08408184178912484,0.09345015878889189,0.0002976003764841497,0.0010685606822754684,-0.00724467387863772,0.0014560989311696727,0.06648545607524833,0.06453060744421033,0.003960581261972232,-0.05858542482778911,0.06188502605485861,0.254495908925231,0.12793223249743754,-0.14236672911870557,0.19342115557864498,0.04590788788264458,-0.03991919562629542,0.038130559092964006
20.489450454711914,1.3885002136230469,0.1609865687626339,-0.02476329547782092,0.0871981690200771,-0.22865941290678898,-0.20051660984408123,-0.1553337094580298,-0.3318041846384546,-0.02336003386445626,0.42943348226623,-0.09282101796029943,0.10832365632740135,0.10112206239938641,-0.05460318190879728,-0.05897368292639536,-0.024434563352095096,-0.0051468826999176084,-0.00023222697342119872,0.020798174512096215,-0.12425916558244837,-0.07836814607890466,-0.1300742298701811,0.02649337431832429,0.055301398516697256,-0.03225544743950461,-0.04423750129194038,-0.05600220388251347,-0.020181344464475448,-0.014111758418053792,-0.00574176793435698,-0.0820275944505588,-0.008557650767600808,0.023841827947597618,-0.07010318302361906,-0.023300036778514263,-0.009765375494660672,-0.026588886824041084,-0.0034165370120910962,-0.0427426014053572,-0.02108198126595387,-0.05755401729962891,-0.02892200284238181,-0.05083415211876831,-0.02924661708888442,-0.005586688130761581,0.025342565707611918,0.02387566066187464,0.09276882343816792,0.01934046821900124,-0.008367950224880752,0.009739261963693568,0.03905345224715815,0.027607003690659354,0.03602530905117441,-0.059936051701264086,0.014952307166633677,-0.0398340334048929,0.03757146440402022,0.0027050918891470582,0.055962209679513,0.034600822167153454,-0.002920631148116395,0.06471562851017158,-0.04746423160934099,0.001547640550854637,-0.00849912862486778,0.0524610730228808,-0.019642033291450863,-0.0010149976210896278,-0.008861710431274917,0.04976680822561714,-0.00019896288550101427,-0.03525558038082342,-0.03254570074303401,0.022704614659900868,-0.06294700133786572,-0.09184499858298809,0.010571712972673482,0.02627242148641156,0.020306736363372647,0.008489937864373916,0.011626429612584173,0.01572915469684279,0.024654057694827886,-0.03565635870743192,-0.007728345866018713,0.0102057188291776,0.03160279004042369,0.025135156078467953,0.004372066129654368,0.048852453261561915,0.08512548400702882,0.002848864456249276,0.0039796891353183475,-0.06449956750073706,0.002211150723028036,0.03637255968095615,-0.03214813503928564,-0.02885917646849674,0.040038685406151235,0.07855312542554507
26.282550811767578,1.4183998107910156,0.014296677039493284,0.1176154907664014,0.03644522333435097,-0.011206700173558695,0.1552490055315207,-0.3241818644382328,-0.04053206796146599,0.0839550151875238,-0.22637214334171285,0.4111885854734442,0.04084214772236035,0.13673912244365963,0.13411256200941096,-0.04583841135163494,-0.015228300707892613,-0.05343995734742831,0.17502814743743264,-0.019387457997540256,-0.046303027626616595,0.010788594227811922,-0.014234283481121568,-0.01649800058393768,0.05959606505711149,-0.053550685465448715,-0.029036226780221466,-0.006367247699541069,-0.05343152376360344,-0.07421581224832398,-0.02101166324037182,0.04931098128594439,0.013935436911478348,-0.024416309200337383,0.020686005077883526,0.10646512714919495,-0.03675561884697684,0.007357547272855454,-0.02000649805792555,-0.014523600214788313,0.01671687061897138,0.02063732253769661,0.0013656498577235298,-0.04702353453928221,0.051459614404401846,-0.041969685194412173,-0.019246936690942466,-0.006854721028749143,-0.01941592398426776,-0.0049538473963436965,0.017163260499048316,0.0669266712530421,-0.02637178285222882,0.008185380108522163,0.07987819845254487,-0.012856754824135352,-0.08029591503279981,0.03244418956418734,0.06352166610195227,0.044666044183682516,-0.0009610207591078138,-0.006345086886319448,0.022453629980872598,-0.012899647779916366,0.021686306637153298,0.025792246241936056,0.03298270156280068,-0.08028280616708713,-0.02721544672591799,0.010735479747253555,0.06238618312015407,-0.022607070982141937,0.032750307612468485,-0.021610994299654657,0.007794983624117939,0.005406434191315172,0.031015854885464253,0.08325084198085275,8.557774405999904e-05,-0.029479308183192943,0.022210524791655226,-0.05262762459867671,0.06798607739452564,-0.020558360514134497,-0.01924924227776119,-0.008292320801355224,-0.043702306378393736,-0.0642793324780865,-0.010352196328670557,0.01882789980461427,0.13008890685792898,0.053406651420570384,-0.018288544560582223,0.037290368183246346,0.10023072212954552,-0.09734237506699148,-0.01619430531089137,0.11686416180823264,-0.07718244032170216,0.02882436032739497,-0.12251310231639906,0.023376880445605014
27.700950622558594,1.3688983917236328,0.012261554780375356,0.059490586390504745,0.009334138395232118,0.0681821269319006,0.33601293167957325,-0.11770616054962271,-0.08437879919605926,-0.04305996745160545,-0.018363760927628446,0.289340363480641,-0.22678044634539024,0.24237087185682085,-0.023081856898270386,0.12007294704337201,-0.19625896532201076,-0.10264319227998205,-0.04891747013659628,0.04533014854760725,0.050479446435077555,0.04495408286473937,-0.07209942349050608,-0.010706707109104804,-0.009828705238913502,-0.01734680357474836,0.06708412005394596,-0.0012964470721861534,0.03257090955071922,-0.06321632297297458,-0.014170051525398976,0.042266207236722676,0.015231142912287802,0.001254945269029533,-0.0019225386852309246,0.018109929688279257,0.0035176395904528597,-0.007592563738883659,-0.04955651022081636,-0.012912133362210034,-0.01276045248586583,0.007182373729663285,-0.020483424564090656,-0.024613087879298653,-0.02514582737329845,-0.00926147973523303,0.013772063031062438,0.03427161408693923,-0.020608645621701966,0.037401882841066485,0.0016245827520524753,0.02495823353750856,0.01619612366061782,0.011555010573660887,0.06968400373407303,0.015979505814369237,0.022731310730813883,0.02641116871381445,0.0008857663316586524,-0.06049573951277285,0.05371856684624419,0.0489681674849829,0.05502680470813339,0.046681763413767924,-0.006638556778166424,0.018931110676166703,0.062357389560888495,-0.022444928507913443,-0.015477463851186393,-0.0059749784591537364,0.10201480579377464,-0.029664514239147344,-0.05301403099677068,-0.05076712428914316,0.037953656435106155,0.030830572626580306,-0.013415054306578019,-0.013137897424904448,-0.010940306589127001,-0.0007174180752007931,0.006717499315968249,-0.08275811943471476,-0.02721511988384035,-0.11306293727660566,-0.010911068391085268,1.1146889340465947e-05,0.0001205300832089003,-0.013953171095765594,0.010091472863024047,-0.08715734873989434,-0.045450497628618663,-0.12692423462468855,0.18573902842949755,-0.08121293776524013,0.2621977423889148,-0.05270400454303843,-0.09086147627553845,0.04534806147635703,-0.005452764702187511,0.06592132135837946,0.09511488182501145,-0.028485794368635887
29.069849014282227,1.3284015655517578,0.09892573467860843,-0.12443249775766613,-0.08284307043598098,-0.2589226714090344,0.04922605180810249,0.07141796908704778,-0.016870266444406708,0.003372900900293907,0.08674971278556946,-0.16377890445132812,-0.12794631425800207,0.22677720872200927,0.13331710855062287,-0.06772846325534196,0.02144253505257387,-0.10099131489540292,-0.11750306207590464,-0.36921460282748725,0.10796552053295663,0.08631498245117818,-0.032283197055483395,-0.039250783879518435,0.03467392201357025,0.0318120312329236,0.035518683940400836,-0.05658084328155594,0.030829504118450556,-0.028067195809314126,-0.08786032108381311,-0.0066832693803675885,0.06816416112716585,0.05017063487061357,0.028794104752395803,0.036812564733130486,0.06058270201568979,0.0201585254879594,-0.09556633573896026,0.05539847657926848,0.04736314733352457,0.023794585614635422,0.026964791170211565,-0.06181051809596366,-0.040745893243924886,-0.0015090233331616215,-0.002976911640469135,0.03595142613554359,-0.02404248106447404,0.09229748611878183,0.08538000549669089,-0.011895720350956986,-0.09542485895882036,0.04002207836683437,0.018699136937727984,0.05854938367105891,-0.11371092693859876,-0.034879045982423,0.08294223099213582,-0.034214148206041683,-0.036656777482629486,0.007800369871621894,-0.014550733021260642,0.015442300577703648,0.026200964877336794,-0.04607347887347319,-0.02150430413681893,0.05175569822574421,-0.007566323333084971,-0.07470108456737291,0.03117205804221593,-0.026794748427179074,-0.013009840955105323,0.020483793989042397,-0.07023189978185537,0.010569021501768444,0.05336463279649777,0.0038957332739735385,-0.009794418861558744,-0.06394612204868097,-0.08830991430778204,-0.02381810744778646,-0.009404034039350315,0.13639616311869837,0.038707129684532326,0.0032797275427830256,-0.0029754258036523407,-0.02401041052512729,0.013227081267635958,-0.008442231803197283,-0.001194186638416479,0.00014353493673890938,-0.15167076171688584,-0.1333160842620599,0.028105281298569797,-0.03121299077242582,-0.09092027066165449,-0.1871125721061662,0.02712169565896507,0.04036223775578053,0.008082342792499222,-0.008352334928490492
30.398250579833984,1.3779983520507812,-0.015566841407498703,0.04942709962707689,0.07193748878495297,-0.047232923411929896,0.14566990107576272,-0.15630367271820514,-0.023406680404958316,-0.08820094598175889,0.10500486321064882,0.15340998020924468,-0.07586778197894149,-0.10852614177728331,-0.1633523775851867,0.10155128079581174,0.11188308687589466,0.04123728723445361,-0.003728115811256382,0.01912381679490531,0.11141817843172604,-0.04501142478756306,0.03351860300588602,0.08328825779075198,-0.02969453409409203,-0.0019584152669181332,0.05916082859189771,-0.06341976218942133,-0.026659247320209252,0.04226371334035414,-0.1156753918339566,0.01893872634245907,0.00346045299967428,0.0025923193226847405,0.01283653757956608,-0.015221651574564121,0.0014849104187109386,0.036920168826099865,-0.06510219125558844,0.03880146555027718,0.004971289872399018,0.07453384999817202,-0.03750809442829721,-0.05532349824014293,-0.048456859310633975,-0.020406912359289254,-0.0022773786361215964,-0.0203579370184985,0.032887454879467634,0.07905004768603904,0.03338444909670972,0.0409476851899751,-0.01061830192175128,0.0014323039079046941,0.0223084870542202,0.024097837501924027,0.05260326218585768,0.019875824548705776,0.012668935225871297,0.018639167020999412,-0.0005385263160766695,-0.10264153488568205,-0.01371816795073386,0.0016358942275026568,0.013114568355191515,0.060954736304845256,0.040607079690285264,-0.020084543124028624,-0.03410689276773331,-0.027682214085883318,-0.04710081683546775,-0.004393535890509462,-0.05027650249117334,0.029600798375885494,0.045953921341683676,0.0007265004172761335,-0.004069869535179741,0.014172303548283409,0.018174404462789243,-0.015087292788880444,-0.002864559873848298,-0.00691481383303128,-0.004166886117811456,0.04407699609428101,-0.03420177512826232,-0.019340999207653996,0.051897133115017334,-0.0006490321938733843,-0.013922181232235544,-0.01937296787686728,-0.08274135384112506,-0.00582707510325468,0.08226494920611496,-0.017690453193904297,0.05791624290985492,0.2332387715113039,0.151272796089683,0.05086010232163868,-0.1429544343900942,0.01309842939012544,0.044810818013471795,-0.028769641043558343
31.776248931884766,1.3687019348144531,0.10530436390121997,-0.020121693579409003,0.01044148324394488,-0.03858085113304052,0.10504281834913551,0.1063829020614318,0.009491828516334202,-0.019762485184144297,0.012614608624590452,0.024588691100177997,0.028517298535121208,-0.004887311733389523,-0.3575181440448557,0.0595274517804455,0.03761821169883438,-0.07540906752663334,-0.19472907706702364,0.07571278392512423,-0.013224779804517382,-0.013297249139224024,-0.0018257503350529833,-0.00017404116555608996,-0.0014012726140463275,0.002909843588173088,0.028094364274034472,0.02774281916477321,-0.011718262657529089,0.01091696189399595,0.047176770158129634,-0.04787371658315931,-0.058024030358425516,0.010112461322276261,0.05246991995008953,-0.011070863256343363,-0.0401302045020871,0.0030052457426537893,0.0014477388442083877,-0.046619190730386555,-0.00041096586794814045,0.026685043337118214,0.013539376273501207,0.05411545087567855,0.06935760019200254,-0.001424679796010507,-0.010505410974325523,0.027148110747498917,-0.013093803356007542,-0.02592704959061992,0.022083144540704536,0.03940931230005468,0.01571915154271511,-0.04477217775883506,0.01723916092233349,-0.03972820627353005,0.028352233876050313,0.02113058829370386,0.03395741528029613,-0.0002788379648631428,-0.04960267647937995,-0.016786993075078027,0.004070476635506883,-0.007181025810756672,-0.038005508535548835,-0.04021562574890335,0.05921872264171259,0.07178996101260436,0.008400525695886556,-0.06112712595466485,0.04491269676119509,-0.02198078852679411,0.0377357637791199,-0.01603776186858033,-0.07285863015779741,0.055895113597072256,-0.015411551755060239,-0.009828334549509217,0.10345158049188292,-0.0045625936887763955,0.03375829691085536,0.009125641848412065,0.00021066997703489973,0.006435140728249568,-0.0025558860249663,0.00402598954697302,0.03329179363917528,0.00031378630321565737,0.0006388473706903325,0.008392569805615964,0.10251219624145658,0.007104338501791332,-0.0734501180531662,0.0014499143365062392,0.03801454973562204,-0.04869121393269868,-0.03757257243345287,-0.03839557860738241,0.038444192628506214,-0.028029121143093874,-0.03035676219080992,-0.1027130659111985
33.14495086669922,1.1788978576660156,0.019227890499409248,-0.07583110981906746,0.21315228470537717,0.1513904950415106,0.025511357924864232,-0.11262585469747265,0.007692904373631263,0.092533746592139,0.1462726537702096,-0.01756544467807236,-0.031911050810079764,-0.023564294415212798,0.24058264856671,0.07035276377215494,-0.04314681535344048,-0.07810120058457579,0.0015642422873890897,-0.030154703005684014,0.09213971977416306,-0.050316369855640794,-0.08004937542089788,-0.04735303880529187,-0.0039290266462178956,0.0338139628857515,0.004868614299683393,0.025610419796467394,-0.0515212025418345,-0.0633350756579941,0.0017517750187633768,0.0187912294674581,0.002584556707148909,-0.02575903416751995,-0.024960664525655048,0.010081166987662826,0.05260979626104936,-0.05227312164674576,0.04772061903483972,-0.07334352698756684,-0.01865759092091363,-0.015850766346982736,-0.03597931908985714,-0.039622920250222765,-0.03443402475425651,-0.020160001446731402,0.03211296000654191,0.0368581965205633,-0.03372804118983556,-0.005409023802063553,0.04190827099932359,-0.058040407194119556,-0.02181409984734177,-0.040953381798921364,0.10089276706566962,0.08249964048603795,0.15312022200134706,-0.10359981358565216,0.025829906176666556,0.07813856931583461,-0.0789458091147324,-0.04812304098412558,0.0013669405585787996,0.034610030858344895,-0.006570830589572965,0.05444966351206266,0.002025172365045083,-0.05855873013759849,-0.05431419430035895,0.0397357130500519,0.013629484961839397,0.042545297726982956,0.04942643346418621,0.007583211711772231,-0.042145682969608106,0.029640859470752217,0.035672955323559775,0.001418243637190685,-0.025795188615530953,-0.001454890156964712,0.009443722875991632,-0.027563921994267226,0.005535025253302844,-0.0526302189157678,0.013417426026480833,0.01771693797816079,0.0005927795550861142,-0.022599917762120614,-0.0040459879862197005,0.01619202104593364,0.0426428394595027,0.008352257624530332,0.1140359305948209,-0.05794641111051271,-0.14458559120631145,-0.2636314074661993,-0.16599209412944782,0.2827343352791445,-0.16129843882607212,-0.08697147829531486,-0.002506936883021546,0.05723220276735819
37.60034942626953,1.3684005737304688,-0.01594248941309276,0.04727984771016239,0.10722934806788292,0.17251786682615727,0.19189560704498643,-0.0051705923395298625,-0.12306588216816654,0.23516487596940058,0.3409287450204364,-0.09969229415053217,-0.21658849261870733,0.0046127848482926635,0.23271709076865538,-0.06815470033494689,-0.24395150927271186,0.018675169714951624,-0.16893980062270608,0.03259247779657294,-0.027482569742551206,-0.04474899655882056,0.1177218817178451,-0.01591622541211564,-0.004343220459699281,-0.00453046468448757,0.05750388546435736,0.024958523235997815,-0.07010645213710759,-0.0031233527028732442,-0.017265419532282084,0.01847270882214997,-0.04516780505230646,0.0586167041268234,-0.045115896594379035,-0.014970926229840698,0.0021276908200605687,0.03129251823122757,-0.07078124805081268,-0.036940722341468855,-0.004615081326445697,0.06404496390279767,-0.07317491358886327,0.03250618511134328,0.034381958579920845,0.011929708748206255,0.005723555860051967,-0.04791700729623617,0.027691130595960345,-0.058423085689562546,-0.01825134681505919,-0.008444480829228499,0.00453940163253936,0.011540132376793653,0.05650532602371576,-0.05555611354819197,-0.03231374649083145,0.08367924668838032,0.024862825490045003,0.049745644836989636,0.08307059450399137,-0.01881274170353012,-0.04100780589354272,0.01044234535217335,-0.030415908481737253,0.04525565717985834,-0.019275659490436487,-0.028596047463681863,0.006977485903323976,-0.04650285407564218,0.01668297372174946,0.0032310565622753196,-0.054822594909491484,0.08955248553478203,-0.0007465108243932322,0.05002509903429212,0.027336461801503134,0.0022075076553447906,0.0034689224477862197,-0.011647754522831098,-0.021448560270213406,0.0007644370942962543,-0.0011250924805527233,0.019907013981708334,-0.019801933815407635,-0.003221705370014953,-0.04453132688992226,0.08091791468765037,0.010999127808803038,-5.1718998473315314e-05,-0.0016138483678237447,-0.03936279900973085,0.0022463459264638443,-0.06025423143129905,-0.010479775953944451,-0.004824860043848151,0.026429599109320495,-0.01630996411628518,-0.05678613990964767,-0.11281140935529034,-0.08272892842418211,-0.013124049075971023
38.96875,1.3284988403320312,-0.021151619215975862,0.0598176332124422,-0.13319831289297976,0.3337218522523744,-0.019785144945780486,0.253934280940179,0.49094018345990537,0.19167291109093,0.0721996409056169,-0.008009383868828187,-0.19802016833777553,0.26287379186310433,0.15682190708618143,-0.020394147902042466,0.16171205473739697,0.03838956861239405,0.0025066150061982114,0.1111938511267516,0.018746690745359215,0.0545799269311959,0.013865536314365975,0.00927524830687443,0.03251853095880029,-0.008592828986225123,0.020782536761044402,-0.0028207640730370806,-0.033113558590874004,0.007223896099185844,0.05729091836789468,0.04900139304665865,0.030806875976025893,0.07709026242324712,0.01911890856798393,0.07751855119778428,-0.03132947574931971,0.03465280712021221,-0.051130211947920765,0.024784864334742356,-0.01071711204123249,0.06318665928056072,0.044359834719248696,0.004809540832136702,-0.01152196942516447,-0.02040454100802663,-0.03208726052967397,0.02535757317738176,0.007484273754529606,-0.061139447365483025,0.000717496167575264,0.047084153227099766,0.0019177421000064025,0.004015601304619053,0.020694886229007843,0.007896496402163033,-0.030003512215956,-0.0221212056709216,0.02028799903228433,-0.04593490344309585,-0.017874148531045755,0.011718393682797625,0.019554586771147128,0.002371587499908767,-0.03695627519139019,0.024215027097808373,-0.03259588392771404,0.002425402631160728,0.028496965971597055,-0.030226125000473232,-0.027618080925829524,-0.011489687552243194,-0.052225288680499485,-0.007510390200674427,-0.004220556582344895,-0.010705393328994197,-0.014326717925028454,-0.0020186668941848344,-0.03535929725552507,-0.08694884658498253,-0.028957403023504663,0.015575835278914252,0.005897240967257523,0.002768874789555862,0.09694366834987647,-0.00973260419175164,-0.011870110871607597,-0.09443025078692023,0.0057306421376473364,-0.010765133305388305,-0.03161575454379937,-0.03769111289437831,-0.01850392296618235,-0.03590135210846798,-0.032534072858268245,-0.11676893331081102,0.07424313092122777,-0.1164957844111677,-0.027614161172096974,-0.03783993932795268,-0.05384107864070926,-0.01591490369278112
40.29724884033203,1.3479995727539062,-0.04133144952187327,0.08561641394360744,0.13808746296002766,0.21008005286433643,-0.05664693905123109,0.0783534497394311,0.2729858227137024,-0.21251526923893965,0.02287082762499138,-0.2603792262887176,-0.014822014570163914,0.15856012667144184,-0.10640407263533802,-0.12129634687473673,-0.01056362817379783,0.003676750929737093,-0.07695406044152658,0.17752162359930532,-0.007824979839681612,0.041912788364061336,0.024089895438585546,0.08034272109431212,0.05229920694383656,-0.0028029697380332398,-0.07645293331534336,-0.017987349569697678,0.014678080409183995,0.040382948307820715,0.057221493107742674,0.027836677513637872,0.050848657988843124,0.023408976494902558,-0.020179240464316375,-0.01781575682900241,0.011188925966896884,-0.00683643640492428,0.016287245816095947,0.009126323391601705,-0.0318016885775709,-0.04908232391460023,-0.04852845462134672,0.06373598553513395,-0.062158408327049816,0.010652956465138532,-0.04733836290338894,0.016288507147307077,0.027369871277240984,-0.013829594674386908,0.04413325720460958,-0.020022491223904607,-0.04053187707112803,-0.03208498705574897,0.04401834128586798,-0.005678224768565774,-0.04339657360324503,0.014368092420559406,-0.007421493637078029,-0.055472643876322836,-0.003629426276094648,-0.0648307516866293,-0.025469418220243515,-0.03303041840902562,-0.004981067689589148,0.008810275870928119,0.0038503480191860815,-0.06314111602103392,0.009634515830903974,0.019810275871676903,-0.005639751534991995,-0.02196973998551206,0.0331186145302718,0.0010748516678028407,0.013253774360940178,0.07645288817792137,0.03215176912466833,0.06779582176724391,0.05531469313304246,-0.0011632586703886278,0.029231525728562704,-0.00575234017959815,-0.019180253027770666,-0.014257733319560494,0.012255896720721894,-0.029154226987358704,-0.06455574731269718,0.0068292309437368625,-0.010061206653312716,0.026267276931532694,-0.0073715963328381175,-0.02775187629657269,0.0004906433467129442,0.0485197612814651,0.011167218685427218,0.019252999916728505,0.05246671838804482,0.06640535242691971,-0.06254081140772005,0.09406005939275783,0.1038131356812556,0.05334514669629402
41.64524841308594,1.3089027404785156,0.03710634310721209,-0.07371615055849307,-0.013136068272282708,0.15696853136650904,-0.03504767736907927,0.1363382672345393,-0.0888934141587325,-0.06595741434515334,-0.18578091364636987,0.18484283646996635,0.08200290263941401,0.024897353959346606,-0.05956195369366123,-0.04810987426057169,0.002738856828558472,-0.0031463176850082277,0.03982302197574932,0.014621752710338526,0.013931300871698683,-0.00613169707971342,0.05761212697275752,0.032310234910334475,0.04335861005521842,0.04389784721878681,-0.0024966491677649153,0.0340424071099658,0.007572203252512713,0.001904033522736148,0.0015507517329383033,0.048906125455353736,-0.003909351840496877,0.06788821831929974,0.019539533876436244,-0.007474422091310086,-5.0438314733968793e-05,-0.05469869911663727,-0.023318939890324672,-0.0004682373205514793,-0.015388890205786182,-0.061148602062072094,-0.01299825233509283,-0.04965587883760725,0.04374571294200371,-0.006038999299704896,-0.035311787387725446,0.040730121068972745,-0.027278070249102396,0.01825696536077717,-0.03899908130739738,-0.02464294842716984,-0.03283864548337845,0.09214966326022828,0.007100512196089627,0.008513946822008763,0.013496643584434273,0.017324857604868224,-0.018536236700398813,0.051645306628812136,0.009107181780473326,0.09500480340043338,-0.027367653884976213,-0.008928340093934804,0.016997270149396372,-0.016921229458284184,0.009715030473511445,-0.032635897458857706,0.005914667520243888,0.029030433132985613,0.0020072752652582097,0.021656506283143806,0.03531710762089736,-0.0012706269712445622,0.019490532419764933,-0.0048179222566306495,0.012388955325242262,0.023403249361942893,0.016806926865742106,0.09027427072519682,0.008576229776855588,-0.0019422626761027737,-0.03013158738237349,-0.01634115025138028,0.004312833492111205,-0.09540053453337113,0.05435734736660438,-0.0628473635781931,0.05109453100257649,0.09577110484303554,0.06203443385955905,-0.025359460899815976,0.05362877816573443,0.0753083106912187,-0.022315483148201493,-0.045849445743839534,-0.05471512538928571,-0.05901530132049734,-0.03473969401503831,-0.03696817438631577,0.1069527744731542,-0.06827526756497548
42.95415115356445,1.3481979370117188,-0.07853469035092836,-0.1620995408232182,-0.3395378227478581,-0.15178830398273896,-0.002129850784578941,-0.07591804062966015,-0.06151782336354967,-0.07875166800269646,-0.0328021599207526,0.058661553478343946,-0.17063557079274405,-0.0873702690001272,-0.09450485107737691,-0.07685169863094557,-0.08405536337829655,-0.0021040898220851547,0.1265326178248088,0.10017512602515574,-0.09042586040201708,0.012641377759199135,-0.03206208448138841,0.015694509667590045,0.0093234752464777,-0.0037674754044028157,-0.0026874741844524685,0.0035463432758102028,-0.03486630899359022,0.002942714737747108,-0.017602570074177815,-0.03066439633726812,0.011292441003175339,-0.04686253593822796,-0.010864866033943698,-0.02484485376850447,-0.02232343307056311,-0.049317547963406254,0.029798569729231235,-0.027070275690916485,0.005437215223484621,-0.05785464917044023,0.008495955777947818,0.060872140044720094,0.010508191639412625,-0.06640936110891288,-0.0852609135428609,-0.05201767198104085,0.044939714744520826,-0.016581947834725563,-0.08471805255609408,-0.03881912625144782,-0.08242833610356211,-0.038263964657738736,0.014098642485288105,0.04529361288401292,-0.039897178896701725,0.010983267351223134,-0.002575874312603546,-0.005413552095113552,0.009332225388769088,0.003354286749080986,0.002879673200095403,-0.003941229817709135,0.007650789405711233,0.06464214554721341,0.024100341119284243,0.05917464101953776,-0.030354886378335028,-0.01362989736378356,0.04507715130305885,0.01316378720164206,0.05796048621786911,0.05193530123617168,0.015826412440637927,-0.02248151496226415,0.002437924451386556,0.0338896528634057,0.06584406149713287,0.0030913148294782916,0.016184978846407242,0.013307384231037594,-0.08036218375771757,-0.06870733408033632,-0.02259419948875792,-0.003254159325648422,-0.032355370446559624,-0.00428643985343434,0.018295864981313276,-0.05093224068003088,-0.005244096355047335,0.0030214173785648216,0.006060398720619309,0.0792549209684469,0.01040655672450814,-0.06020773629450483,-0.06832642230255662,0.03768479107177128,-0.05490466558233563,-0.04233822382492903,0.0015379765381693822,-0.05195213535265307
48.697750091552734,1.3884010314941406,-0.036130386032527585,0.009792431989049822,-0.08074514220655178,0.1141140299954079,0.12175413970382327,-0.03804966639183758,-0.020563244510177995,0.029549398506856818,-0.09352704515272493,0.10763675859568175,-0.025181219847360728,-0.035008148872784584,0.0592247963659537,0.38235420116583996,0.36119284319954664,0.025309139218476988,-0.01834103878631854,0.08889138972972907,0.026292474132338844,0.037025063687408856,-0.0035474570891977993,-0.0091320986482356,-0.06314342049283392,-0.05806923788682165,0.00027452094305824504,0.02834083434914411,0.12032438513548904,0.06920466769348076,0.0520302825202317,0.007536057785254804,-0.009789799852711164,-0.06724903914484545,0.0543279035799888,0.02767386249014063,-0.06822465328793141,0.00699288573631799,-0.03468699040145315,0.0043768411287828345,0.010432212609208236,-0.054013187185916904,0.0007700543545835778,0.00704204664478408,-0.00972446295216729,0.00694843923637223,-0.028176053172580838,0.05089527366807322,0.023962934384128033,-0.0077013885782702424,-0.0238967857616809,0.016887551945143395,-0.005060832129805154,0.07955872216320387,0.06961774782086018,-0.0057360405141797105,-0.050378933513209254,0.03972987683382736,0.06045311735623389,0.03222600015629851,-0.006421715428018715,-0.028122120646861877,-0.0032866988155002895,0.0024190626201562302,0.04897859137935284,0.02490653468962814,0.04829475869281886,-0.03862602606913512,-0.07298691695360812,-0.0033290822934895214,-0.027199740086106566,-0.012961550986047982,-0.013575816031744875,0.023998533227372092,-0.06586950044121578,0.005675718901650554,0.07522670841677001,-0.004381590323449515,-0.0728482216085268,0.09825712597095312,-0.025174659181720058,-0.040040005289938625,-0.0016578903395523007,-0.017844884130725908,-0.03315146418329125,-0.05125498190796942,-0.00418516652674742,0.007167204274661823,-0.003069814047240732,0.008512262950729243,-0.07405047283556772,0.02893542947433654,-0.003644077017533094,-0.1356727790813981,-0.17432128827629076,0.04409614807650106,0.035681088946293515,0.11733841015517082,0.15143405491257236,-0.004346932306131618,-0.1258324182464492,-0.11548361957325404
50.086151123046875,1.3281974792480469,0.013102436828488662,-0.05512269720402467,-0.19079854548170916,0.12659394495633236,0.04722211569633948,-0.3076351738441398,-0.3062403459471365,-0.04721490637633952,-0.344918022964263,0.009019275578209099,-0.07692966762998604,0.23858008802598712,-0.10112664364539964,0.044447000064391964,0.0027252753770745713,0.017353566023970517,-0.015600577304158179,-0.06027016560598546,0.06897512462063875,0.03834872337551456,0.050175971788835934,-0.012521619864393834,-0.107271230224801,0.016204829280901473,-0.09226405537557875,-0.04605254052513573,-0.04398304391021291,0.0073168903181315,-0.013375142940160817,-0.0460883438906217,0.08069666150161278,0.04048433482782799,0.03187264002765752,0.013887943266538381,0.046588353382223786,-0.046082293011947585,-0.04896187046370653,-0.04882416173089215,-0.02795826057036321,-0.04101256534314297,0.06583009037676947,0.07795711696935442,0.060586870327586556,-0.024710280201306153,0.03784372654183294,-0.03580845505472721,-0.00460357120177654,0.004121745087940942,0.007212340329578007,-0.03316392645881985,0.14625325126769154,0.029218193993882927,0.028409632608506125,0.019337937361455997,0.005344513335952528,-0.06030793296208203,0.058478541340940715,0.002623668682119326,0.010325739124578882,-0.04331859565855238,0.0045682442030478,0.006047987154277611,-0.07023302566650454,-0.015257849224892255,-0.033524450991418625,0.036328206847124025,-0.0452073652082071,0.0011625168634063071,0.006145033139803106,0.04290950623387713,0.018517793272153013,0.031062560808099174,0.0383830627280922,-0.003662847673915064,0.01945232186967749,0.07833643523725886,0.005181324680838118,0.04093557157067169,0.09529007218707,0.0007266174655381071,-0.013546672113490626,-0.045411470928822466,0.008016365585423964,-0.016028580480607974,-0.001853034465077727,0.01796818326142005,-7.878817145291609e-05,0.04515675770664194,-0.030919595563931312,-0.013962783975970793,-0.02629684101580143,-0.05177772338710472,-0.0034039004554720503,0.07027755863826013,-0.05732538771574945,-0.06682115440840061,0.003880437077336608,-0.0909701278535024,0.010705391504523876,-0.1091111555622109
51.41434860229492,1.3488006591796875,-0.1134841637570321,-0.13961814385216348,0.17654017784915413,0.12163645147322812,-0.058271383657965775,0.15069910806954334,0.1605993088125686,0.07529886098337393,-0.09843790508248845,-0.19662901934728444,-0.04674394537528737,-0.04873808416037241,-0.008670579192256708,-0.04035959352390643,0.002564875262697332,0.04446725532458788,0.06914416747144525,-0.014585192745406516,-0.0015969592939696208,0.002534975928382455,-0.011588354796753225,-0.0027337611671549877,-0.0004403792892924954,-0.012583319673142013,-0.002817238530230317,0.0664783260178114,-0.08748972251090073,-0.010482273621292029,0.0028348389382051725,-0.05614039755304875,-0.007575698308624896,0.04370305531407116,0.08171022586880299,-0.04048976687478223,-0.03184173522624693,-0.0412630473179229,-0.021804616509631156,0.11255177368941109,0.0065250841946497586,-0.00587258954406715,-0.00965327635714592,0.054049161340618504,0.023997705171473645,-0.03721513169140055,-0.05250727912378457,0.008860772834418648,-0.01755205864071039,-0.06565459148655442,0.10444677013185803,0.032444369649142976,-0.03129522240591244,0.007859676977391204,-0.00716185980161834,-0.00592697518987852,0.09866448642693079,0.00038817737722865366,0.07666166655573621,0.028183658340109313,0.0036510835189376913,0.004732229224519144,0.05644046829994334,0.007959083314376184,-0.013293696521433666,-0.015232504093907237,0.015094752606571631,-0.05343093521938563,0.03585083739289561,0.04671073950658639,0.040095076596709085,0.0524599218850125,-0.021693283510187962,0.01588921645677377,-0.035684884462223086,-0.09511617040119637,-0.020563335247060464,-0.037935698355098454,0.006305170535953047,0.0012575974261261956,-0.0012493549652534696,0.0011165382701555772,0.008598242976358953,-0.04341575052235687,0.03650428616899078,0.004009047743765751,-0.05166421526802888,-0.003957252299869245,-0.016296556781318826,0.03299093276554679,0.013199427188106488,0.010211740001321953,-0.0020128505858562403,-0.02982322889367403,0.0833319397088445,-0.0215054947896514,-0.0315262112586774,0.07437579425096968,-0.14484707971184424,0.0031593155015043027,0.016852918822134244,-0.0038859941322583504
52.76314926147461,1.3685989379882812,-0.03107372009498366,0.040203450031882415,-0.0586908495533764,0.01813965601781456,-0.2784738790284836,-0.17235137001836853,-0.30644756782833515,-0.09401894422393799,0.08426050983831347,-0.018720299791116973,-0.12821421798994154,-0.0298659610038086,0.07519636522422905,-0.03559463673839466,-0.0490103780848561,0.029009758533448823,0.09785360785245067,0.03132159848896589,-0.004530849899835687,0.023118603185984934,-0.08599858913584726,0.013178676775194529,-0.04225650657359573,-0.008733147817829703,0.06629864398868436,-0.040581067182559584,0.023006981425913436,-0.01952983439991696,-0.029537159986516265,0.03144850953169338,0.0035133797172853046,-0.055439669964480104,0.039398477361328475,0.029046541370432652,-0.04970887462676773,-0.021670102495014956,-0.026658257882483154,0.0072862700053810325,-0.004857320056141002,-0.03502012108374939,-0.041939369957612674,-0.03705863578460218,-0.006244209952159491,-0.02819854678817229,0.007688591006610121,-0.03200649213370429,0.002810774791222792,0.05000137956528691,0.08625581363011486,-0.024363861480713872,0.07785835917201638,0.02872260921954778,0.041489671233032835,-0.05196073732176046,0.060104548271915685,-0.06637362563805083,0.02105572023312668,0.07230837873416729,0.017312571591073078,0.01935479983648036,-0.006807869569764702,-0.027046800434885686,-0.022601170984341872,-0.0352056105128004,0.058256819990434035,-0.05153148836393539,-0.016667645632040567,0.04515803487174359,-0.10487770567054688,-0.029178994666836443,0.020840378040395104,0.01614379142500169,0.06997599551778268,0.039812525899136295,-0.0002378563975524231,-0.004220254649814647,0.012331544156853246,0.025379172442731676,0.07256563303032773,-0.0522535022497655,-0.0063236209846760875,0.0047517188724284535,0.09874124306864326,-0.050279229914873866,0.0027272871504797234,-0.0027171683984625267,0.0015109663902295528,-0.012200761199404681,-0.031467374436939616,0.010092214338905076,0.010358591928470436,-0.04124725735990035,0.08172670926218235,0.19725907631021805,0.12413526557566676,0.13545391228394127,0.07166679997022846,0.02817146793994238,0.07032634657242222,0.07580022498590926
54.13174819946289,1.3585014343261719,-0.07543355261179824,0.08920664185684424,-0.06949081878593893,-0.04041087046035079,0.08378272622899866,-0.07023356834941798,-0.1800898202468864,0.10290626029704723,0.041831852749832664,0.0977265969802899,-0.09407830909228411,-0.011531380842828027,0.09387330034536459,0.022369931838191248,0.03720064430611485,0.02797053169522224,0.0010976549714123295,-0.022635554686261217,0.0024214054424339824,-0.03083600507161575,-0.04633637076038106,0.01683582954397385,-0.06814346759706545,-0.06471376948855763,0.002655136221171584,0.01979138710460045,0.02941820334336952,0.0015370988987771944,0.031622313900576744,-0.06092874628561521,-0.04657273966515489,0.042137694480266025,-0.013230298164132622,-0.050581378289807535,0.011395558801657624,0.023887888564477797,0.024174007275807055,-0.03789139208358068,-0.0071183920493748075,-0.009766682527458954,0.01023398631166187,-0.0007518273859838131,-0.0006873146343059232,0.03799546859577513,0.03400549676080876,0.045633224138009645,0.06403826187272439,-0.00919508864300532,-0.07762767806005991,-0.0646307128685855,-0.007050478800181683,0.04931550812069586,-0.06036596295088297,-0.06308416997570199,-0.041798720030202234,-0.03548974469912235,0.0011862778549242003,0.023694950785691123,-0.002953077315969117,-0.013717941440980036,1.0976164548272575e-05,0.008822506858125091,0.02140427724851004,0.07086651803762117,0.001534261892424755,-0.0647882301457191,0.05713456790672632,-0.0410160195318067,0.03609619033062997,-0.010131893719444895,-0.003908756541927189,0.05065012722589894,0.041737499398141795,0.00588621094932433,0.03433034326532555,0.003269496383317039,0.022575509653662316,-0.0026421545196328566,-0.008668573373583621,-0.02129710533264556,-0.03354422384562896,-0.002755605870279514,-0.0017581033553281827,-0.06214641607458433,0.0023413575451277637,-0.004337790248538011,0.08160102667423097,0.029115748203849563,0.0009512259299877549,-0.025400596607857834,0.035948737535227204,-0.0034910523954041206,0.06534823101298301,-0.023485716627618797,0.014956712893783483,0.03666546126679174,-0.018496121156040782,-0.06512865724960598,-0.10211244278471632,0.06105612135623975
61.093849182128906,1.2885017395019531,-0.06992215754966645,0.054966099139225025,0.16357708189869447,-0.10729012669399655,0.2073941592723073,0.2811856954815182,0.033375394985717746,-0.09444172341331857,-0.011422563921175851,0.0770720244565486,0.0031633877004950935,0.19535644730568505,-0.058662185982943184,-0.17919866242140625,0.002739651414811542,0.009423120277501067,-0.01121022983724235,-0.033938744075503534,0.0038715436118079705,0.0019386354136074375,-0.04050183400154968,-0.10129837356453736,0.001559262937851623,0.020081973417485396,0.08736342001048833,0.04910433859305788,-0.030648865105036043,-0.0027890809669429686,0.048186963322531084,-0.005136609857393746,0.015775159987663843,0.04233540251097744,0.03207351374542449,-0.08165641868474317,-0.03944287780660554,0.036979015299241386,-0.045612222765618805,0.005678995125238681,-0.036953890873796635,-0.036577247295087,-0.033161456346607804,-0.03752258869077355,-0.018305904406577096,-0.062279308073129966,-0.04930441924308741,-0.014706271426490036,-0.036190595816618945,-0.06362085228067052,-0.050809810169804216,-0.029606940882599297,-0.01387137611932672,0.034758867351007264,0.06761432401810764,0.007643512737928836,0.07599278564794205,0.024256960501319293,-0.019849750853730013,0.04950343516656141,-0.08845539974943686,-0.06153940883262378,-0.024901297897212685,-0.0179739026646875,0.007984364111728617,-0.05433449885059531,-0.03881595144932387,-0.07346307563327029,-0.0449944447927625,0.014381393375226075,-0.0690578781924148,-0.03760185952309151,-0.00558908935851047,-0.05727634816390448,-0.0029720046502387885,-0.027015182461188725,-0.05098463285730603,-0.06157736997216887,-0.02168277199962855,0.0531579204307148,-0.0022249211336451092,0.0189509133790735,0.020482058768436135,-0.029165838683390108,-0.02849999066203549,-0.005337995397129785,-0.03753916386829313,0.010846352456151552,0.010835172964230701,0.035459704653674866,0.0704471350657871,0.027224068238744407,-0.037475582302448726,-0.033832698082818746,-0.00010182301960008633,0.018437355931497656,0.2540947576193682,0.00830891025570283,0.005498767364788978,-0.011622671071648138,-0.028673287633663735,0.1057326965386482
62.38235092163086,1.3087005615234375,0.22909894348708845,-0.138728525752845,0.023667154324755357,-0.020401519193148976,0.02921657277305473,0.048789475226366355,-0.10122749394706257,-0.029925593445150667,0.06987062028035446,-0.25898603926063496,0.03490701924750544,0.28166473920394763,0.052923249086918395,-0.33412264275598896,0.07067343681359903,-0.06986579729107784,-0.13153996194925713,-0.061783579740852086,-0.04550201132560573,-0.02877608668211252,0.02497917349347688,-0.03181314325738476,-0.06639638764878174,0.08479637109943805,-0.025617003869895575,-0.008093904054144159,0.014757913491305957,-0.008922500837419614,-0.03882757292616068,-0.007995502560561016,-0.050329685640152284,-0.03927693064949465,-0.014146831554858637,0.04518705702078697,0.0016717841933767547,-0.003225693246619322,-0.08188046128958289,-0.054136093123311003,0.03577418669299798,0.010636121622112036,-0.014332304787210204,0.0214122872391017,-0.05668256977847129,-0.03548406074419194,-0.004464656095692765,0.013434012838192224,0.04528502468517303,-0.004066725701370922,-0.07549821153953704,-0.038059850853625975,-0.010953080560061577,0.007466322613225886,0.09641597069517341,0.0015585086261631909,0.0031650284384220455,-0.013106516623648243,-0.0012598000872370146,0.006067232557155874,-0.053398691538210925,-0.041024056691068976,-0.07807858606896706,0.019150236837859817,0.013520445684519133,-0.012268326910899907,0.09431308275302963,0.033900791242001176,-0.01592311446840522,0.0008178346204719454,-0.05597896600586108,-0.08226729227677657,-6.969149626386006e-05,-0.032043805452932596,-0.02012451931850625,0.005017308715090521,-0.004003068349203824,-0.01613153394587734,0.012751552826201731,0.0387859093726379,-0.032450630513390435,-0.022654563626093718,0.09837679623428656,0.007588076527298547,0.02967241404945184,-0.010386179866832972,0.002840065086074469,0.020551087151845945,-0.033887460351395865,0.0005656439753472449,-0.00014935439855106247,-0.005187529651397379,-0.0013009976285206354,-0.016534485752492334,0.05407068414950231,0.04848920409019785,-0.034099712698409654,-0.04823073193358402,-0.03877253633549674,0.0837874513648321,0.001152410590706955,0.04933103271740921
63.6910514831543,1.3181953430175781,0.04184655416208585,0.006207385644562793,0.08960399073449658,0.16120437304862614,0.001096381614345799,0.14682009781304545,0.041549616499659686,-0.016778000637039298,-0.03541508736852944,-0.018699492037648844,-0.15446251074042766,0.10240415076545313,0.03424922996534632,-0.038549124878917165,-0.03226436407758803,0.08746456311210327,0.04664450378862124,0.04799423105931246,0.07094004202369271,-0.033409503591054796,0.006370378387982007,-0.015201887826245453,-0.017675349179795394,0.059239561004342314,-0.004029498482606732,-0.005827507208385757,-0.03962493105535986,-0.05915256495408405,-0.010849720255015028,-0.055047560740095126,0.013561732268077178,-0.007231910254602577,0.024432772243480932,-0.06383112843216766,0.03303208308483759,0.07169224596331311,-0.06053557726662338,0.03451174736322568,0.03655843013719304,0.01588641867575061,-0.006143953177699285,0.0011769066000000808,-0.03475027372007377,0.054348623755601344,0.055583273723458886,0.0028141059313941835,0.02138414032097609,-0.016856293324843948,-8.30894512714917e-05,0.013355175843611698,-0.0025983476483541984,0.05063931463038133,0.031397200250147236,0.027096900154340815,0.06057096385115904,-0.019417912186016212,-0.03647634981918348,-0.051586595912833266,-0.004624087632183667,-0.11581800807468463,0.056558797437735835,-0.018076457177017093,-0.022730857517264922,-0.0387089228672401,-0.023732871482255356,-0.056489841264367756,0.049452273687373025,0.009045307777300515,-0.06452774020483425,0.07088848274850348,-0.045353587321954554,0.014912471048475966,-0.03866885089526609,-0.04813910858773186,-0.0020581974302432927,0.019236303771826013,-0.021073703047721444,-0.06078441438742898,-0.025159100015712726,-0.03434783176529422,-0.007067628749857184,-0.007046831798048886,0.007688922294386811,-0.010227656069211678,0.05934047978899005,0.0023841047503387735,0.003916428835283104,-0.04564735121309053,0.021178292636112046,-0.06524291650515567,0.06560509550563358,-0.11336190500336153,0.0736509867922589,0.16790433651630904,0.0613277636032613,0.2083538779167893,-0.056215714458469804,0.176650324420137,-0.06080782529628867,-0.015384225691332553
65.00924682617188,1.3483047485351562,-0.03568825445521323,-0.10780168920678505,-0.027352328624275286,-0.07641376969407333,0.04522736640430638,0.09792953968897068,0.24649245161164882,-0.014530173117733983,-0.016437501196129984,0.033389506947815575,0.07866810045541352,-0.37218389862034645,0.01603233668322782,-0.03293304628797553,0.013052255611928722,0.07244128932968492,0.04813581216855998,-0.08463820086679812,-0.06192791566098349,0.0034089875010615495,0.010282293564971718,-0.00993481009750989,-0.0698747306774848,-0.028324814564982332,-0.007073851512024116,-0.0016435219834083454,-0.03950675248551519,0.006996383130761195,0.0005330431563180795,-0.03127579907974552,0.017246012085492562,-0.048690920212509,0.08223730697598465,-0.025390435799751684,-0.05003460070439718,0.030359014379406028,0.0411256424929339,0.039659481846018745,0.04526355681826081,0.04046170682980016,0.02212281886654072,-0.022611865286882152,0.001372394104325667,-0.0286609387210597,-0.0316996139877901,-0.03150963429368836,0.03832738267172173,-0.03804550529650893,-0.0106210970035318,-0.012033182889379629,0.032866083028850204,0.009753112705314534,-0.02875069576037739,-0.0012990521906745892,-0.023932617819293914,-0.04043014120980572,-0.046431398620277065,0.016785159993556353,-0.006885889236456643,0.04759184337088317,-0.004912506314059054,0.011843152117321513,0.019107086123794883,-0.035593191264329194,-0.06490933710976117,0.04129987968156826,-0.03987608301016055,0.008401758920418376,0.005129508949771086,-0.0684625081798935,-0.03466390415211569,0.06404673965308684,0.031344240885698316,0.06529234820223943,0.023098703453301082,-0.021992413311612485,-0.01981885788848182,-0.010243534999947833,-0.012629710403429875,-0.012832443322214856,-0.0013860736828117568,0.004674023135347247,-0.011086638308790253,0.00017862600104557403,0.010379896974401202,-0.05956391733701093,0.00043110865653709344,0.06768810017288576,-0.004345943254462711,0.017421948711540396,0.004871429759456245,0.08933299317767833,0.032862226353858076,-0.048935973067910775,-0.026624576614783707,0.029596632919342045,-0.0590186931472464,-0.02198156516207493,-0.06341745201307447,-0.015208578014009912
71.89125061035156,1.2786026000976562,-0.12462011546059769,0.013360141127536779,0.15143746808774372,0.11027389311043961,0.08934610524784123,-0.06490131739961952,-0.015910759927569042,-0.10916607445627963,0.018559421923723528,0.29965825641718846,0.0829249385842101,-0.12341713788596637,0.06945623235534765,-0.1266746663893344,-0.10914696519181154,-0.1762744648428188,0.010128876268953521,0.03189499973359085,-0.036678188589108436,0.007763458813781821,0.014828600732844106,0.010997985688910375,-0.004742714839736961,-0.012319367054545931,0.10889909704274754,-0.0037046031960079207,0.0013040657438113392,0.05881385406099476,-0.005664909122230322,0.006539467296239582,0.044949749236607474,0.019404802623969875,0.018538106106490343,0.036479335927231765,0.056443199134440035,-0.01939694522976688,0.04448893400951863,0.0891551378832867,-0.007479093664956636,-0.0005317019644231757,0.0011472399941038932,-0.016207264895058006,-0.016435958016636346,0.042609323669044755,-0.057257226379651485,0.029885425130096357,0.023044902284395288,-0.025520631653542927,-0.01791207401447883,-0.02316268739292195,0.04791339873116486,-0.06001961204994312,0.0462274407429803,0.0007369695983418761,-0.013539739060072664,-0.07612544806899281,-0.06657952880429034,0.03532623439768793,0.00808239707714823,-0.0392079458740885,-0.007487581410119743,0.006577136660832237,0.022224909142202705,0.00598426819637067,0.015570853269940423,0.03969447741982658,0.047510921315416156,-0.04875545605280297,-0.0026987462168190646,0.045488152980187276,0.05329240333015747,0.01090339938308194,-0.051479488269169794,0.008433113717497172,0.011309233423172164,0.027717727535173348,-0.12375713686465808,-0.08551217114047197,0.025610320197415447,0.003613763873178288,-0.05414549237654214,0.03872647778331943,-0.004840486331798943,-0.08348569239113776,-0.002868790568221986,-0.00011496169057512651,-0.007658666552544916,0.0679517009046495,-0.07923447425017083,-0.09088788010638968,0.03404963474328395,0.009304764217646772,0.0033491496906872514,0.07607639747821472,0.014871116748343238,-0.023516611426403503,0.05510524105429458,-0.06772068430746644,-0.02070042928531126,0.02756468137322713
73.16985321044922,1.2784957885742188,-0.13095241175840408,0.07050538168546863,-0.08151279134332215,-0.0746929011596392,0.09966039762126161,0.12132715932703497,0.05412174609937316,0.13457328325294546,0.10868674399715371,0.22940677431389062,-0.27958916700155984,-0.09381152663506212,-0.2956548789160304,0.009524931604730759,0.012195660830587164,-0.1406927111739189,0.030884549242930902,-0.0021827458739665266,-0.16973879076933493,0.018220062403406515,-0.03402400058380204,0.04948201684131679,0.02266119833445754,0.06571456815863135,0.10913644399474799,0.012931663896365433,0.07731792315508876,-0.003559732229164237,-0.050326969161225976,0.003393546930557164,-0.027695637704087422,-0.04500114829384108,0.03854658574418108,0.05107016149760647,-0.0014183653174511491,-0.028371123914422668,-0.010106661556442145,-0.037260461319317525,-0.04612413681283081,-0.023079709063320075,-0.018484016963735278,-0.05378159818324994,0.004811929688516594,-0.012583615152807188,-0.03086236332033662,0.005222173851060573,0.007131538471017102,-0.04253661852317366,-0.005494350846199903,-0.028854963986400202,0.020536335802668407,0.08809246134025898,0.045316249377125695,0.01748607658781489,0.0016708215421732753,-0.0021749017878960647,-0.03820762531089961,-0.006683264587384413,0.0020377849256397193,-0.015351183915395483,-0.05780176890358964,-0.032844860643818266,-0.031590161436120145,0.01577930003830733,0.00420590227197405,0.014124271720149713,0.009750777718232087,-0.012928102288983008,-0.00203273535760437,-0.012379925134634142,0.07770217384758606,-0.01340820825588692,-0.05746772852413659,-0.0024977675483868643,0.005627226440626534,-0.047548385501061836,0.04378479004797196,0.04411529382018738,-0.004104831886592141,0.013084037918684099,0.008610778609410136,0.052163368133177256,-0.03837141021010002,0.02015364621865892,0.0831448679061449,0.00026484728823144524,0.04344884292669923,0.12185699978776036,0.004234492585909754,-0.041191156760333206,0.002802864870646269,0.000433696620512984,-0.04737757040278853,0.058120450551187114,-0.007619147402265866,-0.051280695778261914,0.01214732141527272,-0.022529210674457276,0.007474337930000498,-0.0827255856045272
74.44834899902344,1.2491989135742188,0.037488324958233184,-0.010346254129679572,0.15257341486061152,0.0738633030676425,0.04049752295433498,-0.015524740912767253,-0.0247270375040932,0.0695572672622177,-0.23522115695894044,0.07007895475977494,-0.11283817509838984,0.026563396613636242,-0.20184962650489685,-0.05325555063082496,-0.03589551389928661,0.049280364810869524,-0.0551845286221275,-0.12112531040440674,0.028902652562796394,-0.02873061027068355,0.08694553852332733,0.11360526471597038,0.07513404969874508,0.01335979669160392,-0.0752265428766365,-0.03243132664642813,0.043992101746858275,-0.014502448496249083,0.05462735388080841,0.012396604197096003,-0.019796969410277174,-0.01702487247644653,0.010167259195738458,0.025722683838565127,0.027377589415956555,-0.04802035658938408,0.025814519619289975,0.04709894624142751,0.021655788241121313,0.023169079813770407,-0.08375133025141579,-0.0017324365392065164,-0.009469891608271268,-0.04215378062718696,0.018784689799511645,0.035379643591488256,0.020055858881408685,0.009520442747751913,0.005591446192920764,0.0257796276904244,0.026511142695076872,-0.040247815106432175,-0.04678466655756151,-0.07584309223370846,-0.018611565085483926,0.051559755179428485,-0.05472998137137298,0.04339862579185,-0.008558095068666137,0.043087371121350526,0.003252121150170981,0.03552244951551303,0.0179212890911829,-0.023978087786215338,-0.05516259583768499,-0.042672122247896495,-0.0471998411307451,0.0011201472484538288,0.008334299272209425,0.0631385372229826,0.006616781874917835,0.05372916249842452,-0.015421783976663488,-0.1301328459282056,0.006341848844262956,-0.06356004050127027,-0.007240376090695966,0.0014145047587833066,-0.0006216849133404557,0.02621102414548703,0.09013575431279829,0.0073598192025946365,-0.012735889750722217,0.015644796705675028,0.008744476663621286,0.0040075050398269176,0.047198720832143895,0.03773720345362818,0.05556788499268381,0.031034109698829117,-0.01785919040554371,-0.07176180059407797,-0.09338144307039001,-0.01674893049251558,0.005010518477605981,-0.041984049039635464,-0.010308985319504891,-0.09899883974276147,0.025380285037824253,-0.11566382655538425
75.69754791259766,1.3083038330078125,-0.12174668566498562,0.03861231890379102,-0.02427398816433755,-0.08426021636804149,-0.19919774878051472,0.2764645897177514,0.234040313310988,-0.17602926090612997,-0.05464494264450314,-0.07178461617959644,-0.04902417123458125,-0.19804785012659704,0.015726508488785453,-0.11845144605785654,-0.04337174182684482,-0.08811785694791116,-0.08836563094530886,0.06429920877154398,-0.04497248302249178,0.007056612591915604,0.005851571266038328,-0.004646126134376322,-0.014775900627817888,0.002239830820196213,0.08418117165607748,0.01517421534716573,-0.02915679068825238,0.0239671365680831,0.002786664588122001,-0.03379829284817454,0.03080777053738508,0.06276479672976157,0.0018667790674526171,0.05444484861929398,-0.05583994321702321,0.06395126952764238,0.002081729363925415,-0.016518773806730624,-0.0028101304191732474,0.024038567814393327,0.0136719760508792,0.015710108510382827,0.05726582387772644,0.019216268821241334,0.016240749311691418,0.037379981106006016,-0.02995644538480076,-0.0023414615055514093,0.052814435706439206,0.04382488272596079,0.03959810320610802,0.019780377589629944,0.004198145515838433,-0.004180577587408418,-0.029162999491823497,0.03089210666055131,0.025800170464001668,0.0024085238271918177,-0.0070211313685701795,-0.005839978507069798,-0.005656804725804341,0.053553161302622034,0.07071344809421197,0.055914532226583116,-0.04250345024794131,0.01103751326703488,-0.08860454278289394,-0.031472561046961514,-0.009544479224648914,0.01688279013203043,-0.006361463136892162,0.03174615034781157,-0.07254449483425618,-0.06837203410718162,-0.01275619846803594,-0.02329519499311087,0.0006400567569353874,-0.025556840606995705,0.05742638890972063,-0.07390158128125895,-0.052378184004758487,-0.014750101514953876,0.0187920176898416,-0.0063594468989927105,0.0043688298534779214,-0.010462466264630887,-0.006479241731571934,-0.009451419610006489,0.016680186723570734,-0.025384540173421323,0.03399962305062101,0.018633858106269923,0.028289610769409106,-0.036021634223402085,0.001885410950928763,-0.0057394018929101025,-0.019517226487800046,0.032477955612573654,-0.1275987125002437,-0.14957419199542338
77.00585174560547,0.9586944580078125,-0.15222403134680235,0.0870053064832411,-0.02019789506203648,0.12448868557802602,0.15139957339532578,-0.21737176512545983,0.08087015993048177,0.017580025822297233,-0.317785006916952,-0.2563198831650193,-0.08889795163184916,-0.024289617763541483,-0.09200069058274517,-0.07546308385141773,0.027675415308332375,-0.0016388540009489479,0.0019254753460118176,0.06606089799240691,-0.07763415600281554,-0.0024188112869918867,0.034943190412068136,-0.023483124457666326,-0.03244708245534867,-0.059356365122817084,0.0014362570122802016,-0.018181356820461268,0.026716535284491656,0.0131259869452473,-0.00653945610727862,-0.02461825734961893,0.02842140684490289,0.09138977454175974,0.04331787911518817,0.29240501276539754,-0.006442861502559622,-0.045989711315148375,-0.06626546098323677,-0.0018516321727598006,-0.012609016227954021,-0.007942921455016752,-0.0766134352143904,-0.0611190235539595,-0.0023931750455819965,-0.0025750557760112827,0.015048373804899208,-0.06979474362176627,-0.01932924894572262,-0.04525463842491517,0.07870956012092149,-0.03732388428072007,0.043717073765226315,-0.09927864214627877,-0.009940198684044919,0.03641420789087043,0.16439163897239983,0.2051237915682609,0.14316492362872119,-0.0005488677849423703,-0.07156205175988499,-0.012577136392085972,-0.03550614633548904,-0.017481905025631274,0.03905459743988062,-0.03242070633439989,0.006844804822411699,0.023701496788366846,-0.06639250541032529,-0.07423542127307399,0.03661709905274943,-0.019023978395711336,0.02575453191100731,0.020958339127797643,-0.08388368027780652,-0.008335994694348283,0.016172740627639272,-0.017534242555108097,0.0021478701560544906,0.005349177384264349,-0.06526120763517954,-0.02398171371051605,-0.008405062935140192,0.0012864163927051222,0.0008553729231189997,0.004159474342834024,-3.666327634167831e-06,-0.001234437782568907,-0.000892123419449662,-0.045146799978734886,-0.02084705510472539,0.03548791829670742,0.11286895274367024,-0.05760355592605479,-0.1320079819376496,-0.06689712640342224,-0.08914538866823485,-0.0006129547978204059,-0.13487333820951244,-0.03896921522048635,0.036204796619511925,-0.04271223961012639
81.3011474609375,1.3284988403320312,0.1650893845402936,0.045053284104986144,-0.05916969123782766,-0.04625383998117817,0.0701181610680878,0.1156544122497618,-0.15366640998795167,0.016127804033919408,0.13570665456095715,0.07430746076989748,-0.07242375260957103,-0.031636141506209206,0.05502885769377917,0.16668715096881734,-0.13361418232151975,-0.031141898154743195,-0.02176257600456765,-0.1278388502721494,0.10504943442489739,-0.03126035386511336,0.008179640824875777,0.00575182172174715,-0.014427466457586384,0.05956638605628931,-0.010965731261686668,-0.002173300183026243,-0.08266612674773907,-0.014179585589073356,-0.03841478495562002,0.07633152909582717,0.05802406723057918,0.020318379152559338,0.008556082669366447,-0.10885167287155464,0.02842683467900061,0.029549866177726036,-0.004041262726983581,0.07815269541729822,0.037697395090897215,-0.11062322867307867,-0.03281312459235439,0.008715772784237233,-0.00348240772260264,0.043350679052668595,-0.032666262627312925,-0.011433124811686353,-0.06723169798541134,0.025608806290764362,-0.0338427393130103,0.00018329456742060797,-0.03620868286311004,-0.011988254914193319,-0.0009137894817264989,-0.10145642464982028,0.0007586035634026247,-0.04078317931661255,-0.0314411933446401,0.03227708756551195,0.046201898089093314,0.009734811294839062,0.006784759440671392,0.03145512294354717,0.030289633682397375,0.030311878787556396,0.030810953422153425,-0.008569877891892686,-0.006412136911364479,0.04812629439302925,0.06617313941978575,-0.017413943265904452,0.020481641154852966,0.05660598286310868,0.05709666641974023,-0.05626673418562053,-0.003059945091039196,-0.011267561604952318,0.001910684524618205,-0.0013025271718337139,0.00823476577661521,0.028746931067435852,0.09748928344278093,-0.015910821325819714,0.06748664341854183,-0.008420815896298537,9.952404929388379e-05,0.00022610526411833275,-0.0003276406793546765,0.0028880319211878605,0.011389750504385003,0.02298517762487478,-0.00721724646930047,-0.02153141148454636,0.004991972494610081,0.2192062231487383,0.04946347112932836,0.015402082450049571,-0.030642466162643517,0.06696905578002986,0.044064990336094345,0.005007958762541412
82.62964630126953,1.2786026000976562,-0.14271842675311602,-0.22774821046989405,-0.12662829351070243,0.05882873949199217,0.05779651381601361,-0.1778071733782747,-0.18001507108411835,-0.05605211791739903,0.08861495627392357,-0.10919448759747402,-0.12399798982064676,0.15057096607931647,0.19766827410970725,0.10669739727936978,0.25102760503933264,-0.014153545188745982,0.046296903253229056,0.00952136978700392,0.12160649370478308,-0.06376029216385548,0.0200913866181417,-0.0016307853671572907,-0.00010215592453756837,0.0016422799481779317,-0.0019266936136682084,-0.04995052651472644,0.03573617850914931,0.05573708000525923,-0.011180835019176605,-0.060463318004567404,0.07023897681920553,0.00016447571096113531,-0.013624054344472664,-0.0007708140644349167,0.12396990366614027,0.027936815472599245,0.03471342796443682,-0.04185292764981046,-0.06768905833768121,-0.026386617390924197,0.011467467889866448,-0.018986129844306976,-0.004925415187544883,-0.036244042410965696,-0.03583319707934263,-0.0016702228081728284,0.04700193919292891,-0.036177223150281414,-0.04073636835548906,0.016443302855134817,0.007478365100884872,0.008492821634359738,-0.05428785431388841,0.0034295680051091206,-0.008517882084795779,-0.016224699542354556,0.0556019721975326,-0.017253959997961983,-0.06646381702737028,0.07154418776207173,-0.03268408409246231,-0.08767518508710509,-0.018725673435364132,-0.04480212652367343,-0.06238188680476945,0.04371841940245857,0.020269639378231404,0.04217443622532008,0.02905775446202889,0.06312570307633118,-0.062107724357358056,-0.025378697372915413,-0.07323311051001276,-0.024916705412068137,0.049390389049980714,-0.007430434155663523,0.02342362843737205,-0.014883095569872894,0.020853310930828248,0.017599488744944457,0.0020602892919162354,-0.004050727172642735,0.058361250179836385,0.07518378489456978,-0.005290898811891903,-0.031243944957861567,-0.001100606171013327,-0.014631919874505536,-0.00018644115178199856,-0.0053717918627386755,0.03521821170251701,0.1218655374723573,-0.04711180761305375,-0.10188212085774163,-0.07028749713439919,0.04149033581441688,0.03450754024836594,-0.06030027968748751,-0.07967610613050141,-0.033151696808650516
83.90824890136719,1.2881011962890625,-0.03970811948910848,0.04370609155953175,-0.12069770527393749,-0.06003388951004706,0.04143655849986069,0.05997412669975363,0.17813019544799394,0.08690761174336391,-0.2836401856974593,-0.00841959352438161,-0.04086802669477499,0.0714634600637455,0.11411350719076174,-0.27996333542927027,-0.13326326937361754,-0.013511539088801976,-0.003999573226728743,-0.025103275109894477,-0.05944454742467403,-0.02054353113280456,-0.026101237047198578,0.024799257282452157,-0.0016026295896135864,-0.00030792390178834673,0.0015409536352559694,-0.001112047929296047,-0.053360046302533215,0.02910912109159761,0.004999550433537449,0.016533499443928512,-0.0024054408621286523,0.014852262837651255,0.06954609052402597,0.0048640325048333105,-0.05189153461437408,-0.0005362075532532437,0.06120398102165825,-0.01713912419079376,0.039729246672090386,0.03194162564902554,0.0616243007285734,0.010386060703559801,-0.052826444696669604,0.06216137480060234,-0.04936663367796802,0.009807779414867445,0.00984176994848611,0.005313552944395737,0.04750298365362719,0.004492796279516588,0.035917652786600376,-0.006110167731948727,-0.007209384186306548,0.007036035685435893,0.06431745362262999,0.040337389220861955,0.01890321158410628,-0.004558616111015587,0.012482954056392083,0.023115256279302738,-0.038282565583687256,0.002308580798493133,0.0001340588867748076,-0.0015798182008119042,-0.0011075042608720167,0.034446041514528444,0.037555731908160375,-0.0067817738654834,0.00961458644756541,0.004161459656908756,0.026646658918171823,0.025837088397157166,0.046738471431254626,-0.005511010049871289,-0.03941274303014465,-0.06093279928775572,0.013977894615591525,0.05180693083000133,-0.024042908892555715,0.05510997293686717,0.0052676035505253025,-0.002246278211328781,0.034277678905256556,-0.0875915399843184,-0.019896005375422892,0.006355689285103223,-0.04625816866075257,0.0010164363137306674,-0.024113894692740792,0.010090295758800978,-0.00100731685540576,0.003447309250361296,-0.007088243561092427,0.03004915323613798,0.01326196708736409,0.0306008412097742,0.010489228036116554,0.16367617334472503,0.020404186541426367,-0.047035063271745586
85.19635009765625,1.298797607421875,-0.059500973423802145,-0.021153469452762613,0.05372787944286618,0.06101441677350419,0.14106222986529393,-0.04754649623201965,0.0037127738806072507,0.03948680765129883,-0.05442376068561163,-0.01626090703008258,-0.013017860487750426,0.06934562034243137,-0.15400264228366226,-0.16725025501214028,-0.010888255472133608,-0.06372560946298307,-0.012119378462634304,-0.03825407045678798,0.016611122332256742,-0.01099005062820192,-0.0070049023841930475,0.02508448680971477,0.012067746922305991,0.017095649798618023,-0.05122985084055243,-0.005521307906633146,-0.03132203770061511,-0.014620466238090409,0.004225391756229794,-0.04441837584602859,0.12308688603721138,0.029164956354282175,0.054296378215448235,0.035125647975686736,0.042436996210414454,0.011086877793653593,-0.010172920092517704,0.012116332180942546,-0.04471488257773789,-0.06429750177061347,0.005725171256106305,-0.03474648682438146,-0.00039630301488019834,-0.01519938721492331,-0.056631092237320727,-0.0034824373990783265,0.056985808931501736,-0.026747756138867228,-0.01876496987551531,0.0019956673694392388,0.03258138016628723,-0.026312979301357745,-0.043382690439932085,0.08097246778720402,-0.005986618650711598,-0.08428496504183522,0.006842921876201028,-0.03944267972038887,-0.0016768625857784716,-0.03595963361609916,0.0010694105330127566,0.005023789200006322,-0.04457618230263674,0.02185244573089219,0.04862705013811159,-0.08874161313973307,-0.07259712090912009,0.0024365753645143413,0.031339282643931085,0.05052665209523117,-0.06636520456432432,-0.049020513319465116,0.05413278131045842,0.01239749095019156,0.007486462246123304,-0.01557940888067553,0.012065681389151178,-0.006522158961247518,0.057423565687274025,0.039697484473175046,0.02776469732365554,-0.010026502372184332,-0.005826689253215803,-0.08469171748741174,-0.012982594439157821,-0.05120758675031269,-0.00257520410951527,0.000871446756810264,0.04284648702418353,0.0012187871219737011,-0.001050944015555404,0.005630349134516575,0.057317582302703604,-0.07117229284018572,-0.01903577103330466,-0.04291353977501691,0.03913369400660131,-0.009769821664239429,0.07274907834645464,-0.029741987899682076
86.49514770507812,1.3283004760742188,0.10666492689226274,-0.020790742390928655,-0.1414245794599003,-0.07035796877739472,0.0440156241591128,-0.04296329579737562,-0.18671378921602835,0.16887740552745772,0.01792885861209216,-0.12170504436400029,0.01941934530739145,0.10642825583057021,0.13877620987698058,-0.12969455632743696,0.06159692841183542,0.03837841491864965,0.018864174575394032,0.0746754052929734,0.007004408567689932,-0.005521799072123008,-0.04499140662280453,0.029780185885650828,0.008721010915401497,0.015202540051135922,0.005010602690398491,0.020257760241056147,-0.024433972929847475,-0.06105192585254003,0.04599467251270769,-0.043726428354754286,0.015097538525794141,-0.10288661051486263,0.01877556618847851,-0.003966456150867259,-0.026032054707932434,0.0348244451909287,0.03916997988793309,0.006941215938660837,-0.006066844906122516,0.04485292136890187,0.0022898512785924957,0.0691735099531673,0.034497983798000606,-8.44198622467412e-05,0.07659075859932768,-0.03640827930600781,-0.014721151404482661,0.043613395323904104,0.07085273035873056,-0.05803389237764345,-0.029275187181944134,0.003162299776906824,0.00404917766017663,-0.005759267130809484,0.054642867521887746,0.003619287223184437,-0.05078143482171238,0.0031924444585965015,-0.013931971761947076,0.0007735454325743601,-0.001177472440509475,0.0031200958409369826,0.0324106184125326,0.04837168856203802,0.0504601276836666,0.025502820438746337,0.02502726881220365,-0.008985639773571334,0.017986008054230763,-0.038824830471487264,0.04886937831665179,0.0719594030189944,-0.06619862596270329,0.04138068944693618,0.002269923602311985,-0.06938688409489298,-0.007332732571988523,0.00082777776453826,0.0006525992163597864,-0.0019398523803821426,-0.05275783741686192,0.05844904639246126,-0.05849686984754271,-0.019536728057137246,-0.01232008305692263,0.009186757116573923,0.004810997191274291,0.029846268943695305,-0.05119471382032369,0.014199596818357248,0.008790732586203274,0.12071536962452398,0.08685260493236002,0.01327166534681444,0.042706807050311275,-0.05010562634306773,0.03303924917265287,-0.05988240901631449,-0.08787955545770987,-0.02734599493351892
87.82344818115234,1.0791015625,-0.03292451656089966,0.02896199987221658,-0.13823896134399874,-0.08217525510514458,0.09065886090641095,-0.14102884169361649,0.0028610140988718927,-0.0409253563164891,-0.13053395000863743,-0.2403523137566489,0.2584678368387522,0.17075466993803637,0.0067448373090400054,0.15957876589080577,0.16008447890270622,0.19798717606958133,0.09116358259328058,-0.008783016449468528,-0.02088038472954952,-0.07890560341297616,-0.07964035382347126,-0.02196969000082121,-0.0787310979117276,0.012002631061269569,0.004005887358404528,0.007915267481849593,0.03206512336188684,-0.051859745064722206,0.0018704536411934703,-0.026551690782390138,-0.042425067992728036,-0.015571400580881366,-0.05684235806955995,-0.0731765176281346,-0.03589837965669571,-0.04452788260461636,-0.014047214134695764,-0.033612865162709164,-0.09568514948155257,0.016981805035510368,-0.0018387873583297922,-0.012454242817625551,-0.003304358831903406,0.003189793762365861,0.024103346293014787,0.058655668495720306,0.006826725415171807,0.03691585327541753,-0.013257400657397653,-0.05190072109721317,-0.04654870967984377,-0.02221104512925857,-0.022810449872528647,0.015441588121537455,-0.051255908324059796,0.019176252323901487,0.0016138027668980439,0.06342847559713209,-0.003967452137235693,0.0249394457200643,-0.08532867418109599,-0.01240717593602302,-0.023295807906923184,0.05621978188085637,0.02357427286738095,0.05156832271793998,0.03564198810487675,-0.007568080397252983,0.006027008704341134,-0.014946837967827751,0.039680078124173734,-0.00539155488117151,0.03417706825396641,-0.08751476764048502,-0.01358335311317159,-0.03232395820043407,0.028552250366275015,0.037461526154367625,0.02731020413628124,-0.00820934150710268,-0.0355836948463438,0.0028413652376755986,-0.02680525482257854,0.003265636528819488,0.04945986718281911,-0.10231296630305858,-0.06326711493222147,0.04982758557849058,0.0511820432277314,0.042732289767494,-0.038741961849885945,-0.0472944188974887,0.03267856750860398,0.026586268887483507,0.03144970334385724,0.07169067865799197,0.11235563884948875,-0.07742855176159871,0.025820826824522303,0.05131277575286443
93.28755187988281,1.3084945678710938,0.08864990931907954,-0.026733800579407663,-0.12717540027617083,-0.02369125568471623,0.047783610672195546,0.174990964325153,0.2913136446003385,-0.039948501254697,0.18784524719039422,0.18451696334144838,0.12095483459370647,0.021523547441360896,0.020537125489470752,0.0016897495605909677,-0.003534658487536331,0.08679697462200184,-0.023218678474669355,-0.010111568592881112,0.007681466389370645,0.01632735967716455,-0.09455770653741642,-0.008259400968123927,0.0016362176922321268,-0.00720569197599569,0.005236898430567556,-0.09075860169607888,-0.015116062932544574,-0.04666750191943549,0.03535390648237165,0.02823509517635337,0.011680708032971028,0.005012493231244225,0.035016418348382844,-0.030191167260829356,-0.030198037263499865,-0.008132635821136828,0.024844994507685802,0.06897662861920259,-0.06371203714020678,0.062416466046066724,-0.0039259741545749,0.05697758883761575,0.04667165073540794,0.06125389365112588,-0.014162119468250056,0.06974344852868394,0.01644133913951129,0.019465573025419635,0.016199024210343443,0.02904720035357385,-0.03411670601478188,-0.052187309331726696,0.012633985816903368,-0.02948750996527043,-0.06593332469993145,0.024353399236436448,-0.007691983718156231,-0.0257080691282462,-0.08745110018207639,0.0009581549322087255,-0.028773581248317238,-0.007448608893485816,0.019922999865555405,0.04603135341094753,-0.045570189378529156,-0.05026109366389803,-0.028767941436491296,0.001606368864571427,0.03312581642132086,-0.05363039697144703,-0.06496679266855682,-0.037199743730356706,-0.03390038247664448,-0.012133073002371663,0.005757713368253666,-0.013623655627550533,0.01653243184028634,-0.05485279931919865,0.08329018472009703,-0.0007145741609206812,0.0017799117304526236,0.02789313517253624,0.018475535309060487,0.0012094408241624611,-0.07701036369413278,0.08282170536469723,0.07713829043217957,-0.014374727522563871,-0.007664397986562691,-0.018236243070762586,-0.015855877002392167,-0.04496369192583101,-0.0470984768492666,0.032681742089297264,-0.06736986857800875,0.01241348981069846,0.013699852334039253,-0.043638763980192945,-0.035503792030411124,0.02508224365710745
94.5960464477539,1.2988052368164062,-0.12226542781753559,0.09698606467625616,-0.040631706412195295,0.304003266836765,0.06252265614847469,-0.04874384280302716,-0.05938290840342373,0.2119932824175435,0.18221107219011123,0.005324199625591306,0.2489945774454155,-0.19730023718591636,0.021660992203039048,0.1921728117190371,0.015634417953455857,-0.011618662839177347,-0.0442086102262177,-0.0352150289845694,-0.0808887966184569,0.025945817591527053,-0.02668700311865902,-0.026119362887751275,0.02544740624346137,0.0019198042344770142,-0.00025518817977226516,-0.004114519246496363,-0.055343655259513055,-0.006673356107372379,-0.035333614808050764,-0.04778569334503428,-0.02008094167333212,0.05964875014009306,-0.06547585264803374,-0.05442878434830181,-0.030378921192414983,-0.08454225341891787,0.045863607734039635,0.024919834139641436,0.0069066672536993124,-0.025656154812164725,-0.08852313839254172,0.00838128042926937,-0.019627166266114007,0.009102447446849066,0.056128594674523025,-0.03531621658146143,-0.017698796579976323,0.0474801675729433,0.04650065939546705,-0.029813918268035394,-0.008602831771746904,0.009134441584885552,-0.01820627853809917,-0.01791644851292302,0.07049045409892966,0.01166845718783672,0.10775759894194217,-0.06020374149961014,0.0356379886450795,0.002938977725025287,-0.00701699087078643,-0.048843267557488516,0.026940536132182172,-0.0130390257893693,-0.03718086086801317,-0.022263731024129457,-0.03722278392567105,-0.032758282708808616,-0.00535337679900127,0.01937542843760217,-0.02249889780969394,-0.003404131218174222,0.018948848671701404,0.06297838139549279,0.07952777378550177,-0.049909087033985056,0.008360600613160431,0.0029022805889369046,-0.007538732594046688,0.0016055527579053293,-0.01248827760951307,-0.005335845352935874,0.019658693510010247,0.01689670996885443,0.002999970511178936,-0.0803504709040943,-0.022741564735988318,0.11834375091618786,-0.00481239550347303,-0.0230969007873398,-0.031175265275944275,0.0420996789738538,0.047201971202677884,-0.062403306534740355,0.015169712255248293,-0.10119922125727754,-0.055010675297289105,0.041071701353232695,-0.09953183631853517,-0.015896896547198593
95.89485168457031,1.2884979248046875,-0.03312223648926518,0.04028887982454758,-0.059777735787148324,-0.03940836742759584,0.17094901572335355,0.09229745505609648,-0.18218724876784032,-0.19241327976790865,0.20244429662576457,-0.063093825221098,-0.08027180641163263,-0.07197756172784438,-0.2115069226850078,-0.08444415211223956,-0.06346398701765368,0.043986064617933564,0.050629973850321044,0.08497603723393449,0.071722362423355,-0.01374499062994071,-0.0018797280705821562,-0.03760209062942123,0.051416845986484404,0.016073627522983865,0.011582569257927021,0.06886565764116878,-0.004857736594074388,-0.001366644819494811,-0.08546040422128398,-0.0031177020762672325,-0.04034062287591609,-0.01389870463869435,0.004211499604297807,0.028881436184011934,0.016619385535826484,0.0194294796365879,-0.005867677081962969,-0.015088114170738085,0.08133644223366052,-0.017842118101303112,0.06884723757125495,0.046123370569427474,-0.05645888377940411,0.0460564783841368,-0.034450513875085624,0.061646779361360794,0.01962127993717031,0.03698187332753318,0.07943704335818924,0.0784129645569665,0.03129399230533952,0.016657516055452373,0.031204760665332114,0.0040078249216288315,0.040154000690031534,0.02117800123459817,0.06948768810465769,-0.018913128024468862,-0.07437149408738018,0.01584835209539049,0.03677782624977907,-0.02087485097972523,-0.03665979974719541,0.02318406848409329,-0.08820618165605497,0.024595945670941467,0.0493606997877727,0.00599659672314805,-0.09363096918331644,0.000689322179152799,-0.0077322724173673595,-0.0011599395292533844,0.03195846261703714,-0.00181920859697877,-0.05213912977561201,-0.05856908073744446,0.03318857346399792,-0.023262696615467086,-0.08364745805981354,-0.09055713612402848,-0.0018191072699881706,0.005671172892696615,0.01814919981046005,0.06745933625694613,0.0015755353527197678,-0.0905846000538923,0.009582322260950795,-0.02578480451674244,0.006957691339312155,-0.0007899588623997082,-0.0016938541763964984,-0.0044835186819435794,-0.04736137713169065,-0.04898285862337426,-0.00538045395461538,0.07457842589869165,-0.018166945003424223,0.050568893102334034,0.0438543805179992,0.11366728956650618
97.183349609375,1.2985000610351562,0.09373442257108225,-0.09632113024240999,0.002185871704753026,0.09781676071551287,0.0017543964493798303,0.17444525365087082,0.03391897737534707,0.2567623223825422,0.4209214141838644,-0.044350946250785624,-0.05640158534014708,-0.4018571114192386,-0.017932208826813744,-0.04594963534025563,-0.08551667320459141,-0.088234153149143,-0.08472058214822181,0.07137769474134303,-0.009490352904944092,-0.02431592687141624,0.015118980897685853,0.00849697787833814,-0.004438810841962975,-0.0028663483567253245,-0.005770340470943622,0.0004331336100629311,0.016480345514888698,-0.02745814777008589,0.03467633714756612,0.03973348355578513,0.0573903057076037,-0.06752180654893115,0.0028012036056990924,0.0314300828455171,0.05422767885775531,0.06468333911624112,0.06310411643180608,0.03727861924246043,-0.034538843618899015,0.0704840071337161,-0.019461908345247768,0.007730993128914452,-0.0036855667381725764,0.0741953579032929,0.06141036609522249,0.0020067001419987233,0.04612371794024554,0.03655227850615509,0.04960399592709319,0.03900999611722057,-0.06496177103658066,-0.08389728016934084,0.012182209854293812,-0.06844859868064897,-0.08942971231783368,0.04670781685262445,-0.0024218860122150604,-0.03545115322106263,0.031359271866921154,-0.026041055433150714,0.00026520544868016,-0.09100941310820146,-0.003971460194607833,0.03435191593055018,0.060779909739698774,0.020049743151160485,0.057107934130396845,-0.023188578151576326,0.0038383565192048035,-0.0017039131624808617,-0.03182949927082656,-0.0009308869464453983,0.06388367791272351,0.02882058807280074,0.014648049664877642,-0.022143426057846218,-0.004539277040069916,-0.024081396855034038,0.01602392953016974,0.024329015515580033,0.023664787978234635,0.04552148199391716,0.01123886839499741,0.03136024902493255,-0.01871275485492859,0.01518219167907686,-0.03516700950111638,-6.356638586703928e-05,-0.0013548821594800474,0.04938410758140114,0.034470240536411206,-0.013660259761604884,-0.011034047717994905,0.01159307369405103,0.014718778014793972,0.009778838339833012,0.004362635653043949,0.03369879176256256,0.005929080532201633,-0.053152880206472734
98.48184967041016,1.0788040161132812,0.07058269980830661,0.052206969216902245,0.043888938696552096,-0.10673120288785501,-0.05788035929807965,0.026138244553213168,-0.12137411305191183,0.12301414183288693,0.12328584766257933,-0.15454823353320568,-0.0233083090106753,0.2960511239634004,-0.12792759207568488,-0.18355030841088954,-0.04556854669599447,-0.11202130927363119,-0.035156224074079305,-0.03657871542500393,-0.056833480907819006,-0.047570560464290576,0.06799853425537444,0.031535174078426945,-0.0021263051301991806,-0.0008142005058157445,-0.043366663843351506,0.017376115938342276,-0.010376304034410515,0.0008335883755339558,-0.002414788587777694,-0.046303795350558966,-0.06495237287650597,-0.026859767604263094,0.025242006547193913,0.009210307539398374,0.09656078671076491,0.016286976281056853,-0.051642099139754066,-0.027559701378028174,-0.01639870054130923,0.012402406785520213,-0.010363075468041945,-0.07105267658041234,-0.032929056722225916,-0.0068460593556974505,-0.008764049479311318,-0.035643839032687905,-0.005979273579725397,-0.0375984055946271,-0.0006943784176010829,0.013744657983658908,0.02428543519880595,0.011769620200631773,0.00019895512945277555,0.04958635576173457,0.016469129161747725,-0.030309120732352833,-0.002469430310907785,-0.09618752881661204,0.005727785639834153,0.05939212236066199,0.004926014684662931,0.0018034185332956806,-0.012053760929678347,0.03635887097170749,0.054137395324673994,-0.06490327397086268,-0.07353611400808809,-0.02981688926731733,-0.040751566362237555,-0.028800852008456602,-0.011464646042866782,0.026502578503044386,-0.027724535305219327,-0.007466368857804965,-0.039372072336062776,-0.049676963316988926,0.006178646598418676,-0.0001704871483131507,0.012903511918676691,-0.0038840478932738133,-0.013670302038557014,0.04753035852506386,0.003393873790684075,0.03172146955291401,-0.004729550350270715,-0.0011204235658039319,0.0015352417745158873,-0.011302452373141763,-0.004935297366475616,-0.012550773797223623,0.02516740183830752,-0.09394148924349022,0.005592881619110809,-0.0006995380384681518,0.008412708832297684,0.04792467975138905,0.04266128198065312,-0.08563082909214417,-0.07277206093548858,0.11837034818939159
102.8864517211914,1.2390975952148438,-0.03651206796260006,-0.022481328001859924,-0.0005663638845146745,0.02927187263713779,-0.0945992925491293,-0.161870193118518,-0.11186475187549222,0.27965442048423655,0.16148570143724209,0.29035551745424626,0.15124615467914762,-0.21864233292508908,-0.02406683335718744,0.03599616573093054,0.03959616257193819,0.10812646104093844,-0.008178912709011051,-0.006091814789024845,0.16500865466419778,0.04948609961986436,-0.00475575786250565,0.04452396615505361,0.06460459934175922,-0.08535699848321353,0.013120324871501218,-0.04104253381645635,0.024588114978538633,-0.002619971602798238,0.014081858820268727,-0.008730671951075776,-0.03149494889414706,-0.05452930718742067,-0.025906035676745664,0.005966939138770843,0.03397497895451943,-0.06025707700685551,-0.0638360066714659,0.053194029443389766,0.03301829951512077,0.0025431939553802706,0.033322495029813375,-0.002370666990766706,-0.06751588079568965,0.032203365873554726,0.018928090512884067,0.031445462086855135,0.01366339858352627,0.055449581429553564,-0.020087093651145443,-0.11695143675374149,0.0053164923990625754,-0.012923961678927624,-0.022473202369749007,-0.03230661870765516,0.03590215300337869,0.0010076453290768588,-0.012761259124025343,0.02779050418742336,0.0106533715661544,-0.0963774279497923,-0.003998563022609971,-0.009722466558449242,-0.001905123801374193,0.0003943235622912332,-0.009395173626334715,0.016860982349679806,0.021973950273092638,0.05224971548693455,-0.03341105313947966,0.01216928580216936,-0.0014386106242131307,0.021566645945675686,0.0028883410830439086,0.04276492807361007,-0.02162845461354432,-0.06949267174944297,-0.0178848958203731,0.007401013253501745,3.525696963789689e-05,0.0007632987880026112,-0.0004618377392156675,0.06466957329881501,0.0008381943070425263,-0.007294041635266384,0.0015340985935944013,0.0006497861697576406,0.0331959787603785,0.014938137829751896,-0.004569281433717246,0.007526161483185226,0.002924356565105718,-0.04747805012289959,-0.059299838227278405,-0.0361382182688507,-0.026666254160617093,-0.07780805507329648,0.11211928281929899,0.03311288078965949,-0.15570213928191168,-0.06915447572747502
104.12554931640625,1.3084030151367188,-0.08724921550968533,-0.07810280389580884,-0.09285305736511704,0.10810106415523497,0.04215278139090483,-0.08346666580789294,0.3361104696748851,0.3357270292853944,-0.08641868955204597,-0.07982722985183154,0.21366554502022253,-0.10296035578525656,-0.23902639321643893,-0.12881717086984432,0.07478689147108895,0.10577345804979599,-0.029559782658299297,-0.09247871186287472,-0.09884673530393606,-0.05516025196808774,0.0018593860342071878,-0.00040623374709299227,0.07432869689594697,-0.012413764318282589,0.05887172365070803,0.006403348600156313,0.04327905991635601,-0.0024709643344117196,0.031208607331913326,-0.010194711121583995,0.022150705365153744,-0.024060720360054088,0.038267619546848465,-0.0109578029081657,-0.03443099181242755,-0.046005567579260026,-0.021567364388282523,0.05626328161967949,-0.018653468501093062,0.02518379192248775,0.016715873681707533,-0.023504982935451016,0.02618369293339919,-0.007597519920442546,0.00248546258079161,0.020043717882803704,0.031305034828225956,-0.0330032902648666,-0.020401087303724103,-0.014349743800277792,0.015319966914947688,0.02949147950129965,0.007007828494323742,0.07646350252034698,-0.0006927161217395034,-0.02108927554567924,0.02242391091552396,-0.010772825354548737,0.026544381239965095,0.00526781011263379,-0.013297944011829776,0.04101397724637663,0.11767869531461009,-0.060643082391898716,-0.011370100200813174,0.02319411415852742,-0.04924853842851854,-0.006708319826777125,0.030706540399143802,0.05291832399885811,-0.021208476013431676,0.053549512406519825,0.059117022222573944,-0.01764493447708154,0.004974957733983695,0.0034015156365429927,-0.04230694591110807,-0.009035410289836792,0.004274727624871381,-0.0013178739034650036,0.024993707432227896,0.012366720724176172,-0.09640993694211088,0.060413500261278265,0.00519957451868385,-0.00021707708692686808,-0.006179099407048387,0.04279718821782763,0.0825366272081555,0.04961961699739781,-0.0748829262381249,0.08763058406237165,0.01785647680576093,0.025233549068964425,0.019180041811568956,-0.2928974043720645,-0.06715302634358256,-0.044159529728583696,0.1195428905739907,0.038811183294451414
105.43395233154297,1.3184967041015625,0.016679648838034716,-0.04217922973034256,0.011983113590390261,-0.13227475766973193,0.09304530141201854,-0.13692304695353377,0.06441914258631429,0.03416098594760496,-0.1484037779441385,0.1436935448095492,0.027443778961216296,0.0963910643207499,0.09203314703359433,0.12989995949674032,0.06913583149336062,0.03437191561304261,0.03462568077186119,0.002780227323414536,-0.037166435104142914,-0.00848279737557149,-0.0033006973950877073,-0.02313752616215677,0.04596898171624099,-0.002436609210721393,-0.003902934701735289,-0.025562495117276395,0.0055470362402703826,0.025745486112601586,0.05625294663426308,0.04372441068147416,-0.05194529972997208,-0.0409927808513765,-0.01090462795819458,0.03265824865636754,0.02701149638258203,-0.04115850124784668,0.026046070230766032,0.0038582763944830832,0.028028592651206115,0.015173150987379917,0.04725355485984248,-0.0019932885369467425,-0.0025470295808783894,0.0321569604645516,-0.04456776350494654,0.03212217536238697,0.040391741314809715,0.032307411442355966,0.003619716167506107,0.006635998281502224,0.01739096270541965,-0.0009771831674653475,-0.03327782027390629,-0.029912268885833267,0.0005806780596183822,0.019694650896675867,0.046251041333796324,0.015477755210793346,0.010946000533644067,0.01555926153421488,-0.018421377152097816,-0.0017998800507350692,-0.03468105743959082,-0.005745010111987942,0.018081971479966867,0.014840894030768638,-0.012323058003620315,-0.00012924046879669328,0.008659060232019762,-0.08574281643078807,-0.03167490246395169,-0.02447482797599317,0.07474466452828345,-0.010282042043322443,-0.011481004068101913,-0.04375467140450677,-0.002205411992403809,-0.0009637989180272754,0.00023742778460609268,-0.0013529460146577501,-0.0057595717200664975,-0.0013839285420211215,0.036773749465111104,0.02099432695376448,-0.008829614713251228,-0.004980148582808372,-0.004957912573153667,0.05173132812490154,0.06166758752130065,0.029191461050134537,-0.005599435023946123,0.07122695225818867,-0.022146029522429677,-0.0004268042334564445,-0.0891198089761988,-0.1565769496840137,-0.18449754242844213,0.09326154647448284,-0.02505094991028979,-0.04801191303684725
106.75244903564453,1.248199462890625,-0.0484145264543733,0.07947387385145878,0.08989360744430286,-0.030749010779310998,-0.12744871291224963,-0.3044645615063044,-0.25338756583109767,-0.08414848677534686,0.17813299960921286,0.08747840687430693,0.033873206046894186,-0.04263170470617062,0.10633739495999353,0.007632861421806469,0.012217609831233855,-0.0010569594288589912,0.04777268764845509,-0.01362270660612314,0.0647520640419465,-0.05790836496780277,-0.05745262836361813,-0.1063662246102961,-0.005910133473696136,0.11884399678260357,-0.017736366616264817,0.005601810842963517,-0.007124603009709659,-0.03842815218303617,0.013245904618347858,-0.007534532412725012,-0.09186812267694539,-0.027786380364965897,0.058220815018221767,0.03637350566268698,0.06637241487346882,0.0170392833952868,0.018467329546618238,-0.0006317187633264752,0.09704626853476901,-0.07865356364740775,-0.003451566755017601,-0.024483493560551364,-0.019923869031434862,0.02042708631074596,-0.013936295073832978,-0.07830690327752537,-0.033999662241226594,-0.02378447194304645,-0.02146099073358621,-0.0030631628423013293,0.15511415609554335,-0.0243501628543423,-0.018241161919675432,0.028846942581738592,0.033680500487173776,0.009867702873001673,-0.02317778435641026,0.035564595666817383,0.01284616802527144,-0.012319438182736066,-0.013136394133485578,0.001968392345355843,0.010544191055561961,0.014388778726314059,0.033775271905446186,-0.058518996132608664,0.07342604108965257,0.07386751426035545,0.05493515064503051,-0.051212555840041224,0.011651226041954933,-0.06682262735071527,-0.035336162879633495,0.06979470268611195,0.018017493281460475,0.04117807549990858,0.02429108439000499,-0.0021277469719936915,-0.08781770632761926,-0.0486994941591214,-0.003960770833943477,0.015555700528846342,0.008467872075027846,-0.010059094985775013,-0.004509164291102499,0.001480816870122627,0.008192268804830262,0.0036444640526338435,-0.10248406463574551,0.02287039979306645,0.03695024905308035,0.019079955795239523,0.01606493803218533,0.017525922137152712,0.08577286950132436,0.0336160576744401,0.05743075555683714,0.018561928501082858,-0.11806173659073654,-0.007445968996875912
108.00064849853516,1.318603515625,-0.009372894080652283,-0.04644527174514673,0.1946680654092214,0.12983996901403375,0.14836143364217305,0.04515734102998025,-0.11936330022891188,0.19036967290691087,0.14025867449278664,0.054873291497637165,-0.3002294606090469,0.025653512578755863,-0.005457888453951247,-0.08280996432182264,0.0014646567328580062,-0.03813844309476447,0.014573633085643406,0.002413779254690249,0.023802058595299824,0.03184266312770416,0.0070918611406743,0.0031771604016830593,-0.007076759993953186,-0.04080160983942943,-0.004782373616513453,-0.031939599995326494,0.029992568326769536,0.01545276555751816,-0.003684679687305756,0.08719868699726069,-0.01462311046940699,0.07580604392084468,-0.04058164024598455,-0.017467850618879874,-0.0011201291940711906,-0.020814633601113186,-0.008242511241605728,0.01704601924792422,-0.028469957399154797,0.09399300847816339,0.00207743086755411,-0.014219386610909782,0.03379555607929807,-0.05144512706240935,-0.01054490531733358,-0.012159173173552378,0.02221810635382531,-0.018131518991765204,0.048664857246587964,-0.012628948317859129,0.0716659675182216,-0.05185077463036411,-0.06574896976092849,0.009891614287805618,-0.02571890414691645,-0.000373949702360502,0.06082122932906012,0.00962863902441755,0.010982289544175398,-0.002081634581526964,-0.05788060235043777,-0.02650071459400478,0.06421748915569071,0.07335444636012231,-0.02397726958697062,0.030253848487397365,-0.038356159873639106,0.01078341139447021,0.03870121693247734,-0.05751540372742825,-0.07888337829172462,0.007979885796250565,-0.014293450293865414,-0.027978921824202294,-0.04083413738879281,-0.015642479253277494,-0.08054817752216863,-0.004741725020154392,-0.00236195682332362,-0.03455069570416686,-0.0017904047305881046,0.0023354832376764234,0.017114841997282783,-0.04022166671340735,0.003552048661608762,0.007919947624160201,0.06652867778222805,0.06620045154035377,-0.062138637003066724,-0.01141482679919699,0.0013966314158645654,-0.0056143453742735,-0.015822669444856666,0.029787303153879795,-0.005667015649757322,-0.05389073753956676,0.07630669537107088,0.04836425497530792,0.10600163615547983,0.09719847604501569
109.31925201416016,1.3986968994140625,0.09141206186418435,0.0947041320140011,0.10651847485790468,0.039136470833905646,-0.07427445866015887,0.037940120308927176,0.031167256140154358,0.05030126055275036,-0.08484571824572645,-0.0530114744279989,0.006929974954322491,0.30899710727281293,0.2819123285064599,0.12909428506262796,0.021527113626187883,-0.009557246858193027,-0.041804963031001396,-0.03187927325029897,0.010287959712727987,-0.04118709146964134,0.0065471277842790165,-0.014626466068541543,-0.02760730245485708,0.003124235234693439,0.0047924947899699475,-0.058309907763143876,-0.08610340819588501,0.005208120310389041,0.08110680269371348,-0.01638971529551794,-0.0572562924622855,-0.07970200799296345,-0.0412208918089594,-0.00817754918324005,0.011426592598261443,0.0037085436499798346,-0.007450370338750125,-0.021117858167504788,-0.0007380535073513161,0.005754295405466874,0.004235782976493188,0.057537278078037456,-0.02144877298499577,0.004082335792064288,0.020434421014955854,0.06931141264316436,-0.07680102335217628,-0.09039367849974736,-0.06753140400211165,-0.04909616540770876,-0.01720965478366649,-0.0038111341306098752,-0.038146065710055715,0.10338707690814482,0.07476305272200978,-0.009007308751870838,-0.014799884884753707,-0.014142295463649443,-0.02941526392812393,0.07578105789074739,0.0031412594987270392,0.056786369313161784,-0.03607477977970878,-0.037353447376465496,-0.01012636956248227,0.01392656491333152,0.03488934239522114,-0.07771547612691661,0.01767549240001824,-0.007424498782713285,0.04952417991344101,-0.00892190771775921,-0.0019158307916095686,0.016567114630365826,-0.058636251263119436,0.0396996956343254,0.040248525848929205,0.0670443765705304,-0.018812034435853876,-0.011874883210815472,-0.001466057489391867,0.09488384143404849,0.008798353025022965,-0.015337533952735934,0.0008168433318063901,0.012178497877021964,0.017616601714140687,-0.013773770803838722,0.03860475936413187,0.014717015641417527,0.018622384147191327,0.022262740364985323,-0.023477165776387456,-0.01543010180062718,-0.023793192769093148,0.12175028544744455,0.004233362925027316,0.066277106339324,-0.021966143312115,-0.017504459638153717
115.1032485961914,1.4181976318359375,-0.07220488226917483,0.024313068217762704,0.06663878537312745,-0.1643276856270542,-0.044162194110587964,-0.14237104215995622,0.1069990594161249,-0.3189515273640542,-0.008745655308807596,-0.14603449486294245,0.09957948040038747,0.13547716397533038,-0.0519761189045642,-0.05900996241556459,-0.07273474180375075,-0.030431504586420664,0.03717797298512274,-0.07201006229468743,-0.026553809600846186,-0.0003105178583094892,0.012665126079963857,-0.001477494745720224,-0.018728313668169124,-0.004349250933147877,-0.0028938428686128884,-0.05458380171434365,0.056403913007425976,-0.05604863041068956,-0.01862961885388559,0.007950351276780903,0.01954702597824445,8.567703339608292e-05,-0.010145961959005934,-0.030251517729800982,-0.002022617028228723,-0.05406338851259714,0.017832353313611653,0.037620365925297605,-0.002812077081810392,-0.06828421259771328,0.00956829767806105,-0.010309737107921834,0.048339116025533806,0.0038254505895804636,0.08762178837973868,-0.02526908290218432,-0.06051209121767071,-0.0368915799260578,-0.04036758430777188,-0.018904937810307547,-0.006002000255877998,-0.001635969314142369,-0.013304101330605108,-0.013894278606618309,-0.043342635947221056,-0.08321553667695031,0.05630767254543191,0.0015695988631948792,0.0748637253526108,-0.0039387543756877405,-0.050625489945068006,0.0835559463535827,0.010348894645660026,-0.05087489804790838,-0.0844404644410883,0.002810996705532756,0.036208137168177286,0.032696685595811945,-0.06299771633881746,0.06328584104150094,0.014115526739576011,-0.04374412153526957,-0.04121235629849365,0.03144677261213619,-0.062318846475009695,-0.01624569792880978,-0.06073700529561153,0.016241359380089096,-0.011193196381865774,-0.011987408029972215,-0.0303328848922816,0.009073725442712939,0.011013646015420372,0.039036660261539034,-0.03091622501810984,0.06080502573568002,-0.050001204787168504,-0.007217316855137323,-0.008345015938992409,0.05641718776299561,-0.016060489668581146,0.10816934843302484,-0.05348706327326243,-0.14252576404985418,-0.28208874817819773,-0.12367921472780581,-0.095572434868673,-0.016455946462741424,0.10350800328226037,0.0927764663403925
116.52144622802734,1.3881072998046875,0.08361592734856944,-0.03235147037145608,-0.10881194138492586,-0.028313418511769183,0.19448732783755546,0.03542452512146288,-0.3292131756511693,0.07054365652082117,0.012583497284806025,-0.06964713081935969,0.05628238260669061,-0.4097077519576289,-0.19838143110171896,0.010351826227251532,-0.028892659935992812,0.07879370658923318,0.003497289178292921,-0.05412746436039859,0.07680052690465425,0.024605222055152105,0.015304726996863215,-0.00517653204693027,-0.007104067521364052,-0.007247958456549816,-0.021549035445497765,-0.0016581742617839505,-0.03971381519798983,0.061726125944243974,0.00404006090730399,-0.010640339669868316,-0.030987777304454043,0.02167885875787793,0.03876041993591847,0.029390366477352773,0.005686274670662636,0.007207205764677319,-0.009755426294373603,-0.057179225191179794,-0.10242816389197766,0.07733592648646641,-0.06238218073310096,-0.005459118787553673,0.06817679478427778,0.026590617413438843,-0.053983377814125745,-0.02224173002991043,0.009709808407323018,0.007481920914279677,-0.011245372628451655,-0.04321538415099436,0.0011622400484358197,0.0218210177490744,-0.01022805500438129,0.045049546863237845,0.0879053168240429,-0.0405973445628929,0.06395329473149548,-0.0011585276626957896,-0.001028471984322779,0.06469656706449571,0.08543790270658533,0.004075843751037241,0.014916354739428692,0.08112011296846248,0.05319551678611611,0.033070754691530285,0.03086201237073751,0.01807919433951986,-0.05326679543316845,0.043367437275806456,-0.015404906957817679,0.026140992947889925,0.08564608574977384,0.03001570705876606,0.0038604793172707557,0.0011421218790752669,-0.0002561669917555786,-0.0007094194528102169,0.0015701626906275523,-0.08292053201560173,-0.012854891623751,0.005622105269899782,-0.00021300254168033362,0.00022525831518686588,0.0005665405096860395,-9.200698099284085e-05,-0.014772132859016542,-0.03619873465612328,-0.20477641485573048,-0.05424403219005346,-0.012353338773704727,0.1923290342021711,0.026207634790611927,-0.07625580741215039,-0.023789214438388228,-0.08920290248256216,-0.021775252581235742,-0.08085961976371213,0.09474332385306454,-0.09651795278459036
117.90955352783203,1.368499755859375,0.029254659223121524,-0.09013034282669867,-0.1143407464538823,0.11901241893193659,0.04304912567774645,-0.08190731951488253,-0.09455811663974308,-0.02439636646432353,0.03588142713895376,-0.4701304506163188,0.10538924206017432,0.10076649894995013,0.05627058708824058,0.000476037473160234,0.004563294613690032,0.0663408484604634,-0.00927171173905077,0.07761087480261893,-0.004842137151973642,-0.0028512640223938472,-0.017884608050382528,0.06651690568674576,-0.007907823206035978,0.01193533401461695,0.018397746010876022,0.042800876181729314,-0.0002754596554627115,-0.01518082811443406,0.0016785616108134364,0.00024949218665829193,-0.033027580145119945,-0.04879302888750961,0.019519663833035193,-0.1040486439224673,0.010440666708117073,-0.010302256622705555,-0.02807886915143146,0.05201337844689734,-0.05550195389462854,0.0218143874971186,0.03940593706131265,0.007984045938023442,-0.017686298532039582,-0.06709124609953104,0.01202988896833175,0.035069885845357404,-0.029365408026123717,-0.061811024284218696,-0.07166318035246322,0.05018697369717568,0.048149193083003944,0.03744412610847504,0.004690555022429837,0.01662329615340509,-0.05180657990955828,-0.055160890727409866,0.0023202445094747874,0.028373110844063253,0.018668678915425875,-0.02557584582622756,0.010443263544709772,-0.002132502558298321,0.03533258325527467,0.009204832062036775,-0.016529951730952966,0.013283858791673748,0.03987700672551875,0.005098640489720027,-0.04247649044429619,-0.04408143956811787,-0.006097944279671784,0.012648229485118111,-0.022784439280085625,-0.017049572050655243,0.041490563854770894,-0.017088858339626437,-0.03972326787665421,-0.0005346762199748437,0.028035771425831968,-0.019636973958860344,0.006576218993522682,0.01121296269160665,-0.09285477630260933,0.0972881420294465,-0.04374292228198992,0.04671002858990479,-0.009844744796466007,0.00893752491410689,0.006738017452482092,-0.06304628482924718,0.02357586665323383,0.01866879252137621,0.06556756285598737,-0.05875637065419739,0.05260528105422998,-0.07559893243899593,-0.020042092482404274,-0.05383470141774361,-0.054760816713436064,-0.24331853537981918
119.2780532836914,1.3687973022460938,-0.25689808156526805,-0.059492460268405746,0.09048522799960654,-0.11688166352621623,-0.12645140031935068,-0.13729415469968378,-0.007826083955442634,-0.04874179091259391,-0.18285419027461675,-0.0013046913112600977,-0.3142386523791716,0.055187896495730394,-0.042435866131237,-0.03185230387318029,0.0039660657562503275,0.005145538834502804,-0.07561030703858217,-0.006761073139673802,0.09246577017509297,0.012951556783603851,-0.00015035156915426352,-0.00529449045904732,0.00043200662480017874,-0.0015603162143890507,-0.07515152198464442,0.11139814674960977,-0.018080991211329497,0.010731479916382928,0.017835061448612275,0.049990037387842565,-0.0209477624046069,-0.012182709002799528,-0.008700984287794845,-0.04257694047339347,-0.047973635207612955,0.03287829899977011,-0.0727098657002394,0.009446011674635806,-0.035287265467814154,0.022626429715514155,0.09244710237014026,-0.05319137427147072,0.047059095768077326,0.005054495932362993,-0.024920752071743813,0.0050845362206986796,0.006250840785228475,-0.00037128165696814216,-0.022384679792211478,0.04700808334065699,0.06262235376223044,0.018558756577311642,0.005656116973769763,0.030142582911281968,-0.007976556392414017,0.008506512673632116,0.005367997833171414,0.023462624032008883,-0.0009544641422256373,0.056603495752271374,0.00542406731564485,0.020470004737348148,0.035407457610525724,0.039361451205167694,0.015504729079637162,0.013586568377772189,-0.0222031690726954,0.021730863703974722,0.03437125954222767,0.0030407613532947566,-0.03234089014555642,-0.01700139372941232,0.06877493914531749,-0.000977212005563527,-0.04673339777922619,0.02069822141167963,0.08335754945721541,0.001844747223221367,-0.0056962720756062474,-0.0012041180518150704,0.013496729402055672,0.00476998905486351,0.0008135037056311149,-0.0008918373681705721,0.00631789967019161,-0.002068864345457872,0.021430147449320446,0.026506396425082263,0.021685066324576282,0.010382854451581214,0.00028400617620723327,-0.021033532413378502,-0.04311490250010081,-0.0034230190778801795,-0.03703916693965419,0.002771637360867907,-0.16677221250989716,-0.14995553448507432,-0.0759640102193707,-0.13120455604385517
120.6468505859375,1.5081024169921875,0.0013709858733638447,-0.11126776452866721,0.14597313490704358,0.35801584453763907,-0.06069942341917988,-0.043725828500454735,0.27837395115527874,0.06837345714363052,0.02892542638042254,-0.14971417364008066,0.20184352567591293,-0.09324529643005834,-0.02077599018617966,-0.02443121800153239,0.02095685099093856,-0.011914030484497079,0.040542859227337615,-0.0019739856818105023,-0.00038472916207579755,0.0037457506953795577,0.08317877251705065,-0.005594570881743705,0.07379817390125629,0.07280223571623907,0.035493956446042495,-0.030822046487761018,-0.035204295952582405,0.07052491168522801,0.053257130944755406,0.04283609371617604,0.031257005539152775,0.0002975895417742507,-0.02210422328092293,0.007980719522966945,-0.04056073937170972,-0.013445675095223611,0.03386162098249557,0.015622911730705537,-0.009902516537955744,0.012783922399290604,0.005363159349590376,-0.018829697457607254,-0.011692998789132427,-0.009555533805576054,-0.020811410772700475,0.04237949018250811,0.0031946068825300673,-0.015302417547478957,0.01064194944073842,0.003945913378085892,0.039980455415479704,0.022597237713784538,0.033383658776986375,0.015894883953564372,0.1489949716055077,-0.004958797581233826,-0.019520394989187898,0.05900682461650837,0.0013954692866401074,0.11671981327835171,-0.04478426472673735,-0.02425990390722602,0.027915935679916105,0.025830341738211877,0.06889822437773029,-0.07530138368599679,0.04297723404444603,0.036208501226878215,-0.06013519112208146,-0.04119334863358845,0.042567038335754245,-0.04196144727712061,0.000335308998968397,-0.0007766174583323634,0.0944553966336483,-0.008715322150059776,0.0003732740080126969,-0.00019837603315290346,0.001290670612373785,0.0009723653889602485,-0.028264919999063068,-0.07207144040554775,0.0686796019952499,-0.06042524306719088,-0.03745071365184571,-0.07507165189943536,-0.039742152604450326,-0.03541645216123721,0.08941587195013675,0.04699823984845095,-0.13151576287523767,0.017823688405131315,0.03605843693212483,-0.002572753246552737,0.02382471559424655,-0.03365007428543009,-0.013124285242939633,-0.022702924154385032,-0.05786801970426364,-0.12845222459770747
125.16184997558594,1.3779983520507812,0.14029966828897786,-0.006445501123434603,0.045005357702733256,0.14501517318380608,-0.07471916863509323,-0.27449124019236176,-0.31318238833755807,-0.10012705929369577,0.17887878511099992,-0.4879710279591667,-0.24728869955335364,0.10989260424600435,0.014815291784020178,0.11547389613515428,-0.05510765838502273,0.16876209509732432,0.06999979896452443,-0.18184742827564837,0.10786414670993173,0.023224420643487304,0.04504749714212372,0.010354818447134425,-0.07673753336404555,-0.08866494497560524,-0.018277344535893178,-0.0005640480125348644,-0.01142380366561905,-0.03145722890484982,-0.06850886541780989,-0.045070075001371605,0.062001064778037344,-0.07463826304447342,-0.06433888505074284,-0.01544994027130283,-0.026936052714584713,-0.0746856298329786,-0.05953524560115872,-0.007754097598308055,0.014586641846186112,-0.004287947822590262,-0.014640451149167974,-0.007547145607639923,-0.04529847966227665,-0.04678769725465634,0.05558971906834114,-0.016743192191742726,0.023627922668030835,0.041449446359174386,0.02312722084095678,-0.059624856455318336,-0.025825109262571082,0.0034911786781868246,0.030065885571181106,0.013683010728074763,0.019706649416033367,0.026443559408776508,0.007435091840569875,0.10590467165564402,0.021803972693143606,-0.03113334248387723,0.006150713700283833,-0.046804268499791746,-0.0002959764293587014,0.002845016249974954,-0.0200336764738772,-0.08449826372398636,-0.04448601099592793,0.05040891351784703,-0.01638537465433524,0.037880123394291115,0.016986761209252684,0.01131792433498884,-0.0018985210383532358,0.06369250993104565,-0.08035142129607019,-0.007822819353547334,-0.07978851030896157,0.06440748904692148,0.03400975271949572,0.003991198067761832,0.029996261291347307,0.004534203659344118,0.019480010044420636,0.0304217603314269,-0.00857978278772728,-0.06118649867478526,0.034511957262865905,0.013489588421809386,0.0026746438103630553,0.0002886707048096701,0.006310386428642898,0.0385958173913687,0.005875808847074779,0.07705340086819214,-0.08457819570392608,-0.030191079622228757,-0.0668998574718248,0.03559787761624827,-0.027859465834687867,-0.10860906333967843
126.53984832763672,1.368804931640625,0.02437027455312038,-0.03980393674042419,-0.013728441621484691,-0.11626247182035035,0.014867752257383803,-0.01933548959674416,0.11528328563844022,-0.0014515160361295786,-0.2158225500966542,-0.04827816040001069,-0.1787177522912279,0.10202745076567196,-0.13667822052765963,-0.04967723018754221,0.10180455294169044,-0.1005918163194232,0.11478757213901644,0.2237536409430258,0.00431012489732007,-0.03036316052627974,-0.026382986011078285,-0.027510217423317194,-0.02102182720037914,-0.027492740894362877,-0.024956140012620483,-0.005968964870672638,-0.11305145362617675,-0.06491097208335515,-0.02478384366854488,-0.006835245156780425,0.004409220175813243,-0.026033813402123365,0.05332515178185131,-0.0003814963357416032,-0.07350106434567984,-0.053079133752527444,0.00789915720814982,0.04111810340653528,0.030941787102168817,0.003841003449314772,-0.006077855826015784,0.018026323866925414,0.013105383496914397,0.017484267768126446,0.0701548096475086,0.059619664077580015,0.05559707264062522,0.04525373812518728,-0.017154955543799227,0.009314440622611964,0.009430724949901147,-0.025331033212460614,-0.015465265711486525,-0.024217216564567313,0.0545789843373893,0.01381091981217019,-0.0043338986223333395,0.06727246691897885,0.0027123751407405186,-0.0034590162262688132,-0.020405146271012763,0.03478383848475188,0.004398796630600976,-0.02334141311318247,0.01653853248732316,-0.0308585219646664,0.01314284937055124,-0.06256473838989761,0.054496367795197315,-0.012991719459450707,-0.001238820506547082,0.005185763206237443,-0.05528613292115054,0.01030609724717953,-0.02702070437457849,0.033129903896021884,-0.0008088641581204956,-0.01993818033013357,-0.005777182150652325,0.0011881210503873342,0.0027985602084477763,-0.059300552665692445,-0.022205419137685773,0.0033266044756472693,0.01999917778557131,-0.01951053198346312,0.03267914616773332,0.08641516258837803,0.09587129613021667,0.06400941194424226,0.056541302404044064,0.03426940405189361,0.0637935924212307,0.07125493218524938,0.0008650308182701612,0.0032646336394317687,0.13405657899679457,-0.04163102492610479,-0.1224687670813832,-0.051654009387657185
127.90865325927734,1.4885025024414062,-0.062067282606584825,0.0769568604455771,-0.10287594049212283,-0.08368669677574772,0.07814013453727972,-0.07442364651290569,0.006743414823050145,-0.11333967273797647,-0.03693333644193783,-0.03601693238610673,-0.01935963559238439,0.16192486400775383,0.06870173627010732,-0.09333483274649237,0.04873128793773501,-0.018373917179878296,0.11521760620270591,0.0034411043330605665,-0.05220003058633975,-0.11261033092767017,-0.0078040377320839315,-0.04534827981596242,-0.05689681543430549,0.0038184900133091406,0.018285397403953903,-0.022739130206906898,0.014593420627875223,-0.032140248920399565,-0.020832789843689546,-0.029201780833613997,-0.005663910269049351,-0.008314242388197902,-0.01967241709337196,-0.013034066511947918,-0.008479234441837378,0.07167420561777606,0.004493399156154218,0.01175457993026157,0.019461739387486264,-0.04667550463370223,-0.009598010981556758,-0.005532070116490438,-0.0035036996046288417,0.022284178416860066,0.013650986794729626,-0.011250127473811471,-0.005903517314718623,0.048915289892026044,0.03518961264768089,-0.044290513927252424,-0.025660788338137907,-0.016022181949567914,-0.010259614467387808,0.004261987231401553,0.06169789906482945,-0.05267948048847033,-0.013277474964373686,-0.009487063728283293,0.022248506229740422,-0.05803128315721714,-0.05688635151585578,-0.014985021604922627,0.005217773217876441,-0.007057627145128206,0.04841569458569586,-0.03245931385922443,-0.07113477491267364,0.034846768145558905,0.033082747633031574,0.05427240758729992,0.05860130956870076,2.9854944381610404e-06,-0.06713811014589023,0.01146581457240661,0.11690192924511328,0.00028866302189520503,-0.08540165122598971,-0.005445257658010073,0.007517570910320068,-0.00027008815487523073,0.004307683415448407,0.006034116734442655,0.02071438584244258,-0.02906212117036962,0.0018890215351458162,0.0004959904530410121,-0.0037749200820090304,0.11451964217680596,0.04765155318937664,-0.04686757528934425,0.017274103739967135,0.004467073981930374,-0.006401030924968033,0.028797351963483278,0.03533437259760124,-0.020106108523593666,-0.03626911940966264,-0.0824705171957616,0.003891362403894402,0.03653421480194999
129.39715576171875,1.40789794921875,0.02936364311382878,0.10647403667244322,-0.019857967727605702,-0.02355854776672302,0.15728657177886574,0.0268134375370305,0.009771127858504558,-0.13716536456424733,0.2031874306291597,-0.049260282782252696,0.10976918660617158,0.25726509851881973,0.19262957253790947,0.13265375782975336,0.04895020476080729,0.021394380931945862,-0.08327708498194279,0.04984363808392633,0.02236882965834599,0.01581031290876017,-0.005420445289473274,-0.06483116297738337,-0.03260880793675817,-0.016932476513672665,-0.0648539202008179,-0.009102468716468484,-0.07929417520902134,0.036839837573393146,-0.06679456088813684,0.018496847262819107,-0.06006380918460292,-0.04200249251946548,-0.016631697335194706,-0.028364106711630283,-0.038553490370081864,-0.030572690304799515,-0.03225925343767973,-0.03445686428019055,-0.043845178017131475,-0.05322363960497565,0.0019014885800033333,-0.028366403668226684,-0.0050456561983249545,0.022073647689515606,-0.0507046781880434,-0.04044098331017921,-0.011901653577033933,-0.0013450542393849065,-0.02787272221441662,-0.028628582756970757,0.056975346547223665,-0.021949826526069537,-0.01491179843397076,-0.04395526215256452,0.01830783463496801,-0.00016734103663631258,0.07798281439014151,-0.05223025775993832,0.0821815668282105,0.003361650759774217,0.01954847554429081,0.0038350588411572547,0.02806747750009042,-0.012487752743490073,-0.035499624528062386,-0.07237122952328064,-0.07407615406976001,-0.043912875876225665,-0.021348936199281604,-0.028970797442707197,-0.04733645218035379,0.012639366341520613,-0.029049123633528285,0.018776892614435495,0.04315015801290299,0.05222517565811733,-0.029818631458165767,-0.01799427107960039,-8.824644338457269e-05,0.0072920652137784606,0.001845105339467119,-0.06173264618166839,0.0039050276704629544,0.01578531188712378,0.02079179105291441,0.019785613530028976,-0.06578423578518695,-0.009988725198390358,-0.0008169104701606719,-0.0031584912981895484,0.00018807945679049,-0.037751099268678964,0.013324009854749274,-0.0400653060018365,0.0042904397281786225,0.06383544843437006,-0.007360059883518066,0.04913747097376187,0.05804980327917036,0.06619396816689557
