start,duration,0,1,2,3,4,5,6,7,8,9,10,11,12,13,14,15,16,17,18,19,20,21,22,23,24,25,26,27,28,29,30,31,32,33,34,35,36,37,38,39,40,41,42,43,44,45,46,47,48,49,50,51,52,53,54,55,56,57,58,59,60,61,62,63,64,65,66,67,68,69,70,71,72,73,74,75,76,77,78,79,80,81,82,83,84,85,86,87,88,89,90,91,92,93,94,95,96,97,98,99
55.72724914550781,1.50830078125,-0.01873301436090368,-0.04160525163905575,-0.06336912691886354,0.05623262464779471,0.01695466386545818,-0.017103109126988397,0.02466182259244726,-0.00520719812452654,0.01923580476114125,-0.054587245193508174,-0.08111579823011587,-0.008201479188720953,0.03253379681376777,0.10387925867538458,-0.06985275436231597,0.0038658831944829706,-0.049907311654010356,0.165140664099533,-0.22063453002983988,0.022435947461508364,-0.12245423968568563,-0.046379023851144424,-0.05759076834548536,-0.31272287112706015,-0.02165549918314918,-0.12584406069385728,0.0010492798376092322,0.6512684393607677,0.14475043960829928,-0.06663290602670685,-0.033620733365844785,0.031647648406424075,-0.5331037340894436,0.2921636213100696,0.07399354710915121,-0.32151480684527545,-0.05965911919292892,-0.18349347062730936,-0.4323312321334012,0.08505013233716009,0.7906942074035244,-0.0010225365085238724,0.02448245903607242,0.1284803879387725,-0.6667703997001142,-0.5705784669957811,-0.027234770146791425,-0.27133750879512375,0.14603422299344443,0.002983618998816412,0.007152106666831706,0.08069536213187993,-0.21077533424601444,-0.21357051988825695,0.4150549901956502,0.07011154488675783,0.01479516075230064,-0.08160238322718541,-0.1841873147873398,0.2731902421745769,-0.0722618644577604,-0.14561471111425228,-0.012153201544864704,0.06973342247961335,0.042691162277330684,0.00985795209506687,0.0974417328264813,0.02438797879440712,-0.007630542209733324,0.06435324026436468,0.0003282504671200809,-0.10004712257658863,-0.032905243403614545,0.13455241556392153,-0.04437529190896616,0.08063695666142047,-0.023445182173900424,0.01631458498226901,-0.17140042821797602,0.07802621350481298,0.0024821687184598262,0.4907978164313938,-0.08623526039900695,0.03568801259654463,-0.047862693959337406,0.01773008376151984,-0.004425127275876313,3.619925149204745e-05,0.17015717152578008,-0.010678808030544166,-0.09383457405941095,0.042772690010095635,0.03258799338372173,0.010923736710587814,-0.009187087061876707,0.0057368532254849424,0.03304120032928662,-0.0011562063551587738,0.0019329145613491748,-0.014149245844557755
57.23554992675781,1.5283012390136719,-0.003421367460853149,0.04908228181643158,-0.045213989888506924,0.0022649424650581446,-0.033994069804146855,-0.0813233385243229,-0.14031291599427823,0.04010067303918486,-0.0045951276554793115,-0.004482886459673039,-0.007967310412607162,-0.248526945846522,0.2021491441087291,-0.030396876596142874,-0.17302883812129877,0.06242407125841411,0.340871335109573,0.04018020605143505,-0.2049258367854865,0.41300873198746446,-0.05377328501876845,0.06802086230001579,0.07373633353016326,0.07090210778582595,-0.013452113550228247,-0.07505637451127412,-0.26062142378469055,0.10410786049042405,-0.12700080034320188,0.3028947716084167,-0.38614661195404587,-0.1297254134633837,-0.27845024107197336,0.2883451745677425,0.6279436740882008,-0.17861386246434396,0.06494142799922248,-0.5929082095566672,0.39956006619308126,-0.1717512487029808,0.07752362911591282,-0.045318128548039675,0.5498416789577429,-0.06182223127052824,1.0705363004415818,-0.2956861484299493,0.0074754958886290995,0.2610540728090457,-0.1077977986278197,-0.08055431580132372,0.40839601443695184,-0.059490714448496865,-0.2471174802802702,0.04249726775127215,-0.01065198196807501,0.1748184011775586,0.08778514265831756,0.06830995570147534,-0.16116952015242747,-0.16944864851247943,0.03269912073858186,-0.18217001601168192,0.00933994675137622,0.0015374061058951933,0.01839133867716632,0.003352055737931417,0.024013524557174152,-0.0008259667622667296,0.02185492080941223,0.022555769881849853,-0.07280986008139709,-0.009341079489510795,0.021000576329207613,0.022242935951090677,-0.035161288136683844,-0.14026341157209224,-0.04744222997513334,-0.2360092338564014,-0.2679410763307075,0.03201208012161211,0.2768136065894581,0.22135613943690446,0.07352270002070792,0.04234729824804269,0.00789371447946539,-0.03561622283182738,-0.13144341063113035,0.06308055042138054,-0.0928409021162524,-0.010837432587529455,-0.004896178865986227,-0.011084230804346812,-0.023678941534762205,-0.045665236576114834,-0.0038588625969182533,-0.03388707513703213,-0.04945115324562244,0.006772307419142011,-0.04213112673359197,0.0495714005051639
58.763851165771484,1.4983978271484375,0.055794286445972105,0.02644580467337021,-0.02769907206880806,0.00564795159731996,-0.0318195580840769,0.098175877489944,0.0008948445311165729,0.07409678209888493,-0.010886130399311602,-0.05149742824756688,0.07424084266681129,0.4169648678584069,-0.028835089984169768,0.003055586052757366,-0.02697464878806753,-0.023803299833929314,0.006574377080823139,-0.02788037174642545,-0.20891884290454377,0.20679785943497325,0.02963700007419505,-0.08118102942744551,0.033187657744404686,-0.03899868044820032,0.10679657410574125,-0.008088607817186214,-0.17644002452990376,0.11729483549450685,0.10426979805692359,-0.03337866317356002,0.17563979984643013,0.2816067017272955,0.2983643475978521,-0.02790043098158347,-0.17023492590896597,0.35019206291414773,0.05193718376285271,-0.5068606535561145,0.020490534615850087,-0.09093431612973293,-0.013724133547843548,-0.06532537642544534,0.5717391208074398,0.2655294073657575,-0.28543425282359974,0.03750553050263472,-0.06223495825810508,-0.17652139658130164,-0.02455685624974475,-0.09490662762127156,0.24456429825570852,-0.1570163203074362,-0.038659408665979084,0.016596528984431116,0.059777724430115635,0.2154830233150121,0.018408864645290485,-0.07720761171278538,0.2826180530772289,-0.160308452757072,-0.013269132114858868,-0.077718400560855,0.01677367007426949,0.008948828291572647,-0.08295462752159052,0.043208006927323836,0.0069869145877919925,0.00475558186348779,-0.015638736030559368,-0.0212495096253111,0.0574203947597593,-0.14901503053939968,-0.249213294883487,-0.027389358180442514,0.008710481118489731,0.3769279261632545,-0.2372253457702384,-0.11411959688538895,0.15212720597646492,0.4632388568964063,0.004888015567638327,-0.124819621892502,-0.08800333950744271,0.11761086598326129,-0.044512310599016086,0.09739822816012406,0.12580952437346907,0.011586296975822816,0.011146703044271053,0.0031730216722641136,0.08503009566263506,0.010123299816048186,-0.032053878693182276,-0.01660676094989858,-0.08500047216964174,0.048768535895121874,-0.006694718581342593,-0.020016830584030545,-0.05848400016500116,0.04691316904534997
60.26224899291992,1.5181999206542969,0.05411771105774821,-0.04151391829438173,0.05754143607833418,0.01794727815199132,0.013031067818218254,-0.014746884931463197,-0.015522781256859184,0.04416947457902927,0.11382301582424802,-0.00028282215865844723,-0.03558239308433044,0.03625513094359604,0.11641051119112715,-0.0637245196657197,-0.19915451797428566,0.0116344884928829,-0.0366511539981787,-0.004192362239026026,0.18772757107892765,0.1653093804396594,-0.36162576488039455,0.046251226708779916,-0.03599998761642622,-0.08190501395913324,-0.41964543738489524,-0.10997845063855559,-0.07939222554309537,0.15260485502726118,0.08375284039378149,0.04434509930446905,0.005024640753105001,0.18703611018556707,-0.13313250709340996,0.017148278260107987,0.14893298985186587,-0.042795210763643454,0.17576450571415553,0.2503143173195426,0.24742638195399336,-0.3262129895150925,0.07984619250793407,-0.5480675720549221,0.0008464590416650607,-0.25516554637376043,-0.13829516110969275,-0.584225163798695,0.008832171679265394,0.18280469318317152,0.12834894698168559,-0.228041838932367,-0.05040249978819421,-0.20720238594962112,0.14219853184735504,-0.1379756719180458,-0.19156537532173024,-0.03063827606887843,0.05229172853682133,0.07741163340152502,-0.07998102093883636,0.09551180507360131,-0.02448038782575635,-0.1490783363536689,0.07804646448597725,0.10842835539853529,0.09038012036065407,0.01283586597531965,-0.0762158401100029,-0.0022016693473391235,-0.013259068769072246,0.008820357599143132,-0.29467998219173946,0.013206760073756835,-0.06587013121161375,0.0007571387318814383,-0.044320530146629386,0.012722888394936308,-0.040046149123401056,-0.10402636045431504,0.03209788057931795,0.015245255156492242,-0.1076140858472385,0.21638003601210254,0.2963930926173965,-0.04257657649069327,0.03690208290489012,-0.0005091402072740588,-0.19667148896079178,0.004552351121742709,0.10129577562001892,0.03691378376597896,-0.02237519228254131,-0.021031344628749133,-0.03879492382501398,-0.03885434513440139,-0.08498813843189655,0.0007535301333714589,0.00403597427335127,0.037884196861001286,-0.02589296980019571,0.12874500135254144
61.78044891357422,1.5384025573730469,0.2776561156634746,0.027510726045669235,-0.012303864077596944,-0.04183811384894431,-0.02733289041921418,0.02343104604997628,-0.00627496402705385,-0.038556600863787246,0.21669234437757265,-0.07822874569114241,0.20288748591057154,-0.07965410979334643,0.07087412845201524,-0.0385194072236136,0.008935591523133472,0.034586634148473655,0.18861207991059567,0.03984469241317447,-0.18044262839664466,-0.12090398721921161,-0.21294720696284813,0.5008720188069709,-0.006215972441206651,0.13133775831497324,-0.060453031067530055,-0.02324984365780685,-0.23137375076887767,-0.05469531173829311,0.051061391938533,-0.1835632994128719,-0.0607356660897134,-0.0567678747835928,-0.08911789915331442,0.07622408816443461,-0.12051316671885559,-0.12836202836094282,0.3079251037302101,-0.019138205352205038,0.080280501117516,0.020005441898881655,0.38358347230905854,0.20828869622218377,0.2913949645780204,-0.327335629439815,0.06472801638485125,-0.20987558145284574,-0.002157808404047945,-0.026457989527500222,-0.31922828157210437,-0.09468755824167385,-0.15832720573271286,-0.10862717879367614,0.13747011058088332,0.14799624007253387,0.10677400296230892,-0.07545002719498974,0.009520949327742292,0.06036169769279229,0.055002143243417095,-0.03871338253544658,0.011423523566243095,0.03553706374826164,0.05839512027350378,0.0362002585665871,-0.04673771822897747,-0.010309848221078069,0.03906588337968379,0.010123338326421828,-0.02755725244201102,-0.016414751429152274,-0.019248134703126096,0.028347615203820155,0.019047360513453265,-0.07976104514147077,-0.08877428050969072,0.061550738437426714,0.023782909553183216,-0.049138809943191905,0.1776484008041793,-0.05919343772816454,-0.021459022147129893,0.09067985138795148,-0.07534052004267573,0.06582826544013422,-0.02714183530745195,-0.1690322057353913,-0.017300038939191804,0.012100574516207092,-0.032761152075608424,0.006960615874948011,0.05974602012928636,0.052824429371924955,0.016313071478998437,0.037451116524305994,-0.08728535074454184,-0.050336898925024284,-0.04094343554397702,-0.038387677572123885,0.0011622874092686681,0.09222352435185238
63.318851470947266,1.4881019592285156,-0.04414475819335065,-0.02030310518912343,-0.003141866554162153,0.0350679037171618,-0.07972124610206208,-0.08611238302978186,-0.04430154325189369,-0.07064521397187942,0.0948337746566914,0.033079215812565496,-0.02057764047864302,0.08670920006502554,0.049788029044907645,0.0055425805161433,-0.08880705209966326,0.07672631630816451,-0.16446733518822526,0.02391490093990854,-0.09243281440925188,0.014765011692497087,-0.19368766269729104,-0.2783821451639209,0.1558544266508926,0.055417457758417554,-0.11446633629818738,-0.05428287577332672,0.08717999689805556,-0.028601238610616416,0.012651363022195087,-0.10501723470734904,-0.11647712364792688,-0.08705488805939454,0.058958127239632764,0.0451883882358545,-0.049551904977013714,-0.2490629885005804,-0.03525794765985331,0.07516104682140633,0.09214315951597574,-0.4252048923895258,-0.021905660191813198,-0.22907515768551193,-0.15986622239629955,-0.24354064068306336,-0.4027511865835825,-0.2867078549494496,0.4703325005992546,-0.14819614150769253,0.3111390168678311,0.027445493084690336,0.2952149247699727,0.14600853575749093,0.15175803138894747,0.08644844074062713,0.08186464909008481,0.03924112291856139,0.09779591184830784,0.19766556312915393,0.11063785152025019,0.3653498097853363,-0.1015513141633698,0.7761363312662527,0.06222815003368774,-0.05407819640389261,0.12479580833499349,0.07943196423720716,-0.020479667803412517,0.02535135741508165,-0.008414840500483231,0.005307899206879943,-0.015552130513563779,0.031871070584005706,0.05271727940242532,0.018161258547114194,0.062227126372649474,-0.016762298817811338,-0.011234494052881957,0.017150675230223865,-0.23744886573836926,0.18189762107827193,0.18079605725677697,-0.0314964686982846,0.21774708483218277,0.050593829745107226,0.025477217426864488,0.2008882819530272,-0.11765673992570327,0.011944744124904629,-0.17761923972953836,0.05887933179169996,-0.02142856022307907,-0.02364452193782822,-0.12640196106165977,-0.06989152507512254,0.020771147263237935,0.022426447586749103,-0.06375680531955566,0.032827052107733616,0.07683796323044546,0.007663813831115749
69.36184692382812,1.408203125,0.01836333957788383,-0.02783363468882966,-0.02316709675126182,0.04319094588138416,-0.002766857687145787,-0.057725677506621845,-0.08425273761426769,0.06820913386849323,0.07489801128954435,-0.03721957248524353,-0.0009631389947828278,-0.015131409963562563,-0.09212031655734279,0.3617115733773983,0.17879226738572693,-0.15032877250973392,0.0794732392677695,0.058674090815547184,-0.06979963417776626,-0.03861660861158435,-0.09375073097667425,-0.10108963472135135,-0.03317565627920286,0.0847429775749516,-0.5338668484707009,-0.36101336396254824,-0.23273774235584455,0.18207705603086008,0.519688413630414,0.20596723801310207,-0.004549219005632876,0.19750935180401327,-0.12154661982105931,0.16933884203813188,0.23969381752137298,-0.2372592432247527,-0.6326626455758463,-0.6457500070383616,-0.3820343604891643,0.4995558622919079,0.16862093571797648,0.202407901506296,-0.2473696711762071,-0.146418971238114,-0.003095656237129879,0.18732880621565828,-0.19847111135412632,-0.38922313503037737,0.03869817103430314,0.11632045595768112,0.0713726192441892,-0.3932344814734782,-0.06243711731770881,-0.12942000355504066,-0.0882580820491821,0.10494874547692358,-0.018177467387901637,0.22785440190413558,0.0672345677949775,0.06627381208090735,0.012290499369751233,0.0968904588086302,-0.0739630100072341,0.03744834935375111,-0.032194449574045825,-0.03714114494138556,-0.060318849834848115,0.019537451219199968,-8.039267788297142e-05,-0.002671040999430433,-0.05729386284962846,-0.017338989455331563,-0.11808151980308342,-0.06251983860675693,0.02816349162551252,0.07777075172961984,-0.021384959903120605,0.024096700110289984,-0.06686340782225955,-0.07884150331971665,-0.11338397748994844,0.1097035939341928,0.010173801240272949,0.014791742671936734,-0.00720176701555306,-0.0030606609677373176,-0.00906383304475493,0.009140528536087903,0.007085860004898026,0.020976544818048608,0.05309918713646761,-0.030442906505161675,-0.009585415341121669,-0.02046663378828735,-0.03024614393504102,0.012744551420512215,-0.019976287856544407,-0.04585329611712453,-0.03963969164998453,-0.007896990537277574
70.77005004882812,1.4186019897460938,-0.004979613481105287,-0.012140932824433463,0.008355784951991085,0.01792121999694347,-0.007215560683210623,0.018567329083579817,-0.02816150294075156,0.05048845883310184,-0.048586294733800786,-0.00888124699076319,-0.020288481045353163,0.17001866089744416,0.06195252119581809,-0.08800222016101125,0.010361739939072299,0.3179289653037961,0.23710055588957885,-0.028376431981575488,0.22056193800702273,-0.09752188459691333,-0.06089377312864466,0.019568380882951014,-0.2705626986503666,-0.1544572138036727,-0.23850632527767324,0.0257186709155494,-0.18380157564987443,-0.12675957397763565,-0.10336558682334183,-0.14861295371178743,0.07367937188317869,-0.05646916838064557,0.1488369735327055,-0.20484476074064176,0.036983629441569604,0.5385150979951496,0.1745130606811591,0.30144838552338726,0.08704017387102533,0.34964344221144644,0.17939377997481318,-0.08832421885682662,0.14590905191669257,0.3900310454756543,-0.05143022459647095,-0.07353818914734633,-0.16463036215519786,-0.5276846490606536,0.03902985032823742,0.043790493313505846,-0.048184998128316246,0.09215545322146859,-0.04876252320732748,-0.16775949431910214,-0.09836195594249353,-0.12385094666665038,0.17695192060659037,-0.09414714948120469,0.015167902878047453,0.015655514158639288,0.015564877329457202,-0.04086467399373769,-0.05429433451807375,0.03525425745087059,0.04981506320463806,-0.03453560519429293,0.06546886173955069,-0.03487927870435517,0.0071764326120218325,-0.05214593953208451,-0.04918130277032358,-0.007815772901738023,-0.013635487917314094,0.0038402162066297064,0.09189344845686455,-0.015930765104495422,-0.030168918479187953,0.07830887364464446,0.06200640092412036,0.16919215964333809,0.10097784424741771,0.15002940337356566,0.46720409838259036,0.0882466189398063,-0.028389512833590275,0.20146610008929983,-0.007146991129297502,0.0025524154529754845,0.0016028210327247612,-0.02293253203395513,0.07225478912302404,-0.005871138170234655,0.016255979913320742,0.04870756381569165,0.014936623093410584,-0.009127917493122618,0.006866121327843139,-0.05878849651356139,0.0239308087988649,-0.11709956300492391
72.18865203857422,1.3683013916015625,0.027537608597856505,0.05099692235113102,0.04298252057370035,0.08968603740544111,-0.018810385778290795,0.13199771264907995,0.07649019430231455,0.02278434004629297,-0.00454842230211448,-0.048021074235301324,0.12835567340703047,0.5025426338133779,-0.10957099062669784,-0.03757661263140703,-0.22881461601715847,-0.14687006200735703,0.07017552451210603,0.011834846366733195,0.3116384831277017,-0.10545687299762113,-0.003635252570502597,0.31598414806262964,-0.07899677818030786,-0.1356176166273861,0.1360099348783649,-0.14317787377671498,-0.022585045112411786,0.11041845433370774,-0.131123990319181,0.5005012889418406,0.031518386687264845,0.17730514323033938,-0.33106181485870967,-0.2143805414996885,-0.29993277484947306,-0.03651156371695586,0.011169472590916912,0.06510630816628524,-0.11708954787536871,-0.0864525052246651,-0.04211954876279787,-0.13055546359517214,0.16008658156464653,-0.12436297993555481,-0.03296589293001097,-0.19175818624066357,0.024751507185371467,0.14349451995835302,0.11973689031344166,-0.5758417202823519,0.06684722238295575,0.0315102705355579,-0.08122971125700976,-0.19113414486853159,-0.08711854268303329,0.033141763878440755,-0.08997948448128844,-0.07068242314840155,-0.012166654334553804,-0.03485739870560872,-0.0243073779339767,-0.06638492994902405,-0.019019745906524888,-0.0160083671181277,0.023904157718294072,-0.009745417476198646,0.007296682799509692,-0.02342914773367025,0.054908078579915164,-0.004440463813902022,-0.05617677546083949,0.011316521886534842,-0.021505863798396724,0.0031475916311769925,-0.03454890958232568,0.05990118054304601,-0.00874714228483123,-0.011547132116677256,-0.0026375886139352947,0.039050531721486585,0.099766249250801,0.15356110731073258,-0.1329065121734612,0.18286706259522698,0.1445317734328415,0.023193973052626923,0.004799445809496292,-0.06734349714833311,-0.021164571804797066,0.00038804342513579454,0.010233298751484482,0.0038643670682891353,0.10077443791252708,0.05552926179752661,0.0010801914269686491,-0.01020030226061914,-0.048198334162288727,-0.05586267185216537,0.03753591951988343,0.06813760559380674
73.55695343017578,1.3784942626953125,-0.06799672694815936,-0.034824906521477704,0.004692342400272888,-0.11335786747256381,0.001830948934179884,-0.09337974814480364,0.006311085019124696,-0.33681798286999903,-0.006532464767279533,-0.05556849440064814,0.039441695710252175,-0.06369571815783256,0.035918995682069604,-0.09507025853157572,0.021587109010373345,-0.03479054751985455,-0.07525849848688099,-0.10157588520090031,0.18483784390439734,0.12181773526628438,-0.17499713540354864,0.10262167321805422,0.014927494463166876,-0.04885651597949168,0.0004256755307732729,0.07478018377943148,-0.08836548712602638,0.16038768617593127,-0.18408001074414582,-0.059324904641524324,0.17912886170146333,-0.07098025758720905,-0.055581547562796645,-0.2515784488602799,-0.04124832376005289,-0.11351829416576155,-0.1100451174981928,-0.10611686688298222,0.01299330763530027,0.15354561708205333,-0.0996339132739005,-0.17301005611156572,0.056886140925373585,-0.2262795665743386,-0.3751144483749378,0.36197805440004666,-0.13424826291097325,0.157464907330844,0.4093643496124795,-0.26731855817311423,0.03636175739651875,0.013504836586892319,-0.1980507869234944,-0.05099464124614743,0.14809036238313053,0.009995812748546717,0.14104411686033325,0.04342176702390135,-0.07208126210282871,0.00521980832275561,0.019162369211212428,-0.06321430923477976,-0.018816921509099756,0.0051031395610638035,0.0746004750251389,-0.02361850780442744,0.047777164498926265,0.00987887280043237,0.02787348606584527,0.07950690468771213,-0.0018956488530001035,0.04859914001920224,-0.0617741366061552,-0.0049846644555741546,0.0588709621891655,-0.013407564123839344,0.018510980211387026,-0.06407067664428062,0.0961844097281998,0.24154515243494115,0.24144236425075377,0.12541256654770486,0.0720657739875654,0.07083019191005926,-0.014419591462180022,0.01885933257008923,0.03207586064253007,0.049897183567332415,0.0032781365180120777,-0.0021393938576728722,0.025011261708287054,-0.03916031033811802,-0.05548630187296537,-0.011653633954243101,-0.015748715291845412,-0.033540414204300005,0.06432360733620336,0.026485643438516962,-0.030624317517256302,-0.07687612692983556
74.9354476928711,1.3881988525390625,-0.06742488181407055,-0.0006889015324078756,-0.0670975027266546,0.03472411863772382,-0.013822188167901308,-0.010318429343218093,0.22225553940454268,-0.011898800794273082,-0.04004441875251579,0.01331469025474787,0.018809197748707204,-0.008922380859435121,0.0014278913019188848,0.2565657601495231,0.07687713481759628,-0.014566559062085097,-0.116993812398522,-0.17118056444535434,0.030426825693746242,0.09543179454424251,0.0524329870569802,0.15962162608130298,0.01688199286268095,-0.027005233249800698,0.0122577537452398,-0.05690453426843613,-0.024286170612009245,-0.027743807681945468,-0.284648531063599,0.09857322121824431,-0.16025062744308977,-0.10281461383161855,0.032500556530826646,-0.6517328342380374,-0.2554564138490005,-0.4045735262176789,-0.15634853734244156,-0.25856653868590157,0.044234626265891724,0.15181276905030103,0.2144761989571307,0.035121834549469676,0.2637785195515072,-0.045766945180791926,0.3030276067315317,0.2205234630592486,0.2728166592994573,-0.1115758138515914,-0.07349475108280176,-0.28376706323801226,0.20827410174566377,0.021219451246865667,-0.206146850449208,-0.12517342868933454,0.02684521510445006,0.05685589764037741,-0.09309162743201946,-0.028184096642724237,-0.02967479563568312,-0.00394061952204537,-0.01124616074805436,-0.05467991606853705,-0.019005145750991874,0.011316041717057726,-0.028760117085589672,-0.004324818019533164,-0.04243279511516794,-0.025616633598294553,-0.10413089044317192,0.04373554395480906,0.011565110203470483,0.015526070549784686,0.019724579144706007,-0.012955245052153149,-0.006118706080483884,3.6949918449636536e-05,-0.10033116512305923,-0.21413195953409395,-0.04354071276297193,-0.05542051536258539,-0.10784061015412633,-0.06573533123861526,0.20674585029302495,0.05561838006897819,-0.049205518891585545,0.061695489155272426,-0.04277335150818901,0.00019826006270580888,0.026403286824875444,0.01506857865296155,-0.015258580183898402,0.006559663768559475,0.050155682093525236,0.02989737592481962,-0.0499992758342484,-0.009638986286248603,0.016672916709980626,-0.0250880798935479,0.03537790562628207,0.013772572429786578
76.32364654541016,1.7081069946289062,0.01326522131824484,0.011296823691483274,0.029123943549240014,0.08271686915440324,0.21669350278377464,-0.038764617252231,-0.020948983032897987,0.060501790233579066,-0.23109319745640688,-0.10343505794906545,0.08885920870220206,0.03578538443663382,0.03254031377523956,0.13192864291714235,-0.0365349451494246,0.13348220506403366,-0.1405412252038117,0.21990610128149624,0.03805471351132211,-0.057182892301699394,0.1171477499687837,-0.039887568384070066,0.168637869454923,-0.07448147687763138,0.0636467585911928,-0.08390839676256952,-0.09317477785537452,-0.016169659088847786,0.5607284388816507,0.04116872069455693,0.012168615105238395,-0.4288784445515754,0.10262363119674561,0.2891297082941344,-0.18424498980089332,0.5903398375079362,0.6954231565381592,0.11022985525078369,0.05927513678902261,0.006823518475608414,-0.3881355514293396,0.193387611146398,-0.42920447014369223,0.13688350920338643,0.15237637556319147,-0.05331351606131322,-0.009267984890439908,0.29759776974507823,-0.3129763761366811,-0.28961617823097446,0.07084743595816462,0.11943942136558197,-0.12946334108412344,0.06094264140952585,-0.007865822083370885,-0.1067677861670417,0.058916118809253924,-0.005420608798202525,0.03274577730633006,0.07173211834162399,0.0011937487715061974,0.035423669658969946,0.009481097909429734,-0.06924600191777053,0.06657675041782482,0.010104313868766888,0.051380668661813046,-0.00894536355330551,0.050033973747781194,-0.06049089970273074,-0.04542226336790085,0.10534525701974862,0.04448590921991347,0.04428811251801829,0.02839943655066561,-0.28302313896337344,0.05240246913110322,0.22105313247412223,-0.021669073392816762,0.42373815273283977,0.43883467736937914,-0.020375036333000935,0.032591450273364915,0.014383551019494692,-0.12855754456453727,-0.007835991014565098,-0.033989686380006656,0.06100151680724297,-0.23493256536727344,0.03248476438040377,-0.027997741489161582,0.0011768473533384153,-0.13816097312529063,-0.0037973476737499083,-0.027665754013484423,-0.017339800002196433,-0.1039203399749206,-0.10075850529038718,-0.06446688158534257,-0.0423524118234784
81.058349609375,1.3585968017578125,-0.10983028267480925,-0.008268583486460764,-0.0013952890850931657,0.003957622553390931,0.09892892684033372,-0.012025343000981244,-0.053687761848409815,-0.04095554825816303,0.006474748570330746,-0.048252076703898916,-0.09666324448647921,0.006885841888451001,-0.05864351305801069,0.0129432474033742,-0.02979193765206333,0.08405666100268132,-0.003951752667686026,0.07442396480020683,0.07782720295825131,0.09851391233813181,0.1445870774957486,-0.00071875141698686,-0.03947250421319185,0.08733362059819075,-0.048123661869452175,-0.19132248529801163,0.06888257521060032,-0.08788088618017259,0.07158496890679941,0.027860552476291496,0.04015248248176716,-0.08090504892096145,0.0254844524850443,0.06798458158166176,0.033090841210621044,0.08199073351057491,-0.06873347366250873,0.004316540756553814,-0.06567898021935999,0.22575379705432091,0.44074184935126137,0.01836759241684645,0.06008498054828103,-0.035828020716361916,-0.15947043594347218,-0.09820417508871375,0.41784240617373203,-0.010804912593975556,-0.1608196146065341,0.049868173952754564,-0.08251822640193755,0.01706353738176135,0.04571840636032065,-0.2743176277153403,-0.08962776979683638,0.2907828043752926,0.11177368643682585,-0.061729748820427324,0.023136219417669565,0.02741881662057144,0.0620762466084553,0.10568013811272249,-0.004855810616734538,0.050504397519687605,0.014075260671046683,-0.018273590307388204,0.0805054624591229,0.05343009921901455,0.09876228443955432,0.002412220425405884,-0.0354529248366823,0.02740138747525602,-0.046649747683324264,-0.04673269441992216,0.07335528364486779,0.24962511698615042,0.14278476978006333,-0.46079127378142837,-0.2756247533821936,-0.01215083056248879,-0.4281274745501607,0.038691336676287456,0.10467425430902397,-0.04931283712154469,-0.0846168968966916,-0.09547354990634527,0.04168170490860123,0.062422234166932794,0.0020150156231454894,-0.003704125310986013,-0.03927136844125075,-0.03731100798200694,-0.03748280915899259,-0.04620533701626267,0.011991448590382411,-0.0018137190805647234,-0.014641575545107085,0.03059948445449213,-0.05315293851449026,-0.06714606984813809
82.41694641113281,1.3083038330078125,-0.0598405650158078,0.07716875405954662,-0.0178242924568824,0.011312034348588778,0.04915977692731356,0.07873871897204185,0.03584277695394924,-0.02898408822903018,-0.014634850742034446,0.009989734402917314,-0.13549730584811429,0.21278094303677736,-0.06872878551668173,0.005189002837600875,0.03040558356649575,0.02850862234077531,-0.1165648558060058,-0.04096041560699703,0.12334924796544396,0.07593597497753275,-0.04479384450640417,-0.03938888104920276,-0.09339174350686191,-0.15221546966423125,0.15650267305720889,0.2464415647149038,0.2797489093821828,-0.19273934029402673,0.038109118756903225,-0.05087234460434949,0.3190980034029756,-0.1456726247833189,0.035459355901164356,0.0716398264577863,0.006679713762157691,0.0990236563911423,-0.05212965785045633,-0.13478996502897703,0.4703459562706944,0.12839524249429216,0.29418333368610255,-0.13340676873148738,0.03217893763904943,0.18130943719146464,0.1044160657884134,0.118787370647918,0.1175063494300115,0.13154182387809413,0.05351181741940596,0.20779410243438387,0.06127164099274679,0.004708123628577336,-0.03452818464571281,0.4100072530419532,0.03703777949384386,0.031351587734523914,-0.0366174275762856,-0.072522089901987,-0.008012348973436983,0.11018024285409,-0.12973697019210456,0.1962156520941708,0.043940782778245986,0.03163295537892279,0.024236883070774387,-0.02384653107794716,-0.03390265166131263,0.05551017957832921,0.008717133094725951,0.10577806169983596,0.04844995823879769,-0.04857256883659821,0.038012371406846164,-0.06257781522900582,-0.039185412973980926,0.00031293300947203724,-0.0015904329273698748,-0.012784230211565599,0.04932943639031208,0.1432364335680573,0.21419785357890472,0.14340861168189223,0.21728676503505456,-0.0448642956483684,0.013609634812065155,-0.1509483409804276,-0.02163777702516758,0.001487701020792785,-0.0005705203149820056,-0.0030442643029420916,-0.08611150007884297,0.05748366741263109,-0.025082750776044552,-0.05646544421522546,0.04577782445125081,-0.01680494933205454,-0.0471113002098041,0.03650550106912847,0.0453867165127365,-0.020516584199836735
83.72525024414062,1.3087997436523438,0.12267141776841338,-0.03354690990805525,-0.006818441199658028,-0.019767410119305513,0.05661203823991894,-0.09202397035766291,0.02998589071196225,-0.0017214429942133697,-0.055394553182035164,-0.04788585157438279,0.03787467943495456,-0.0012097467535151507,0.2156119519812278,0.09347356844127759,0.10482163636884825,0.02156811184499765,0.17410614844657726,0.15653149450727616,-0.1761937763165245,-0.1578141358149423,-0.006892848081094555,0.09464094451169427,-0.20823281577267544,-0.1434173721233773,0.040194228014551456,0.006857197297762685,0.21728726793994085,0.12440555815196,0.07930191896778042,-0.23548160918001487,-0.09875365316082067,-0.4557883015504169,-0.3869968194364162,0.26276226256660845,0.146928597694692,-0.13352233872687996,-0.5453064118670484,-0.2959339665252283,-0.954098874480909,-0.7303812881959643,-0.07036025782631992,0.14669615869693095,-0.6471874402873046,0.014228118087383682,0.2879613383938881,-0.395665931171487,-0.47550226425858066,0.4587243016643484,0.2971861214621305,0.050066871843338995,-0.05561955301940329,0.18310825718115176,0.09569681224008826,-0.23783132300083173,0.0755213372803225,-0.0277658105689114,-0.07766296017634065,-0.03840512228653363,0.00010158738916708635,-0.09718364117186234,-0.10195620999172583,0.026287970765863256,0.019927885247567754,-0.06592671443663602,-0.06117322829298766,-0.0556714920059563,-0.02011603192306625,-0.00046466092023889283,0.0072832175085289635,-0.04382555724687025,0.007512818412947458,-0.03974559286193985,-0.10597821485442133,-0.009708342598354826,0.043980655648189565,0.04038804691479962,-0.0334123351841045,-0.07737237936465313,0.09637843570946408,-0.09733895226433613,-0.03684384248438918,-0.23319968845736558,0.4873044706458055,0.1038980149876392,0.00444597915322148,-0.09190039008403265,-0.016016496641654915,-0.007165152598094405,-0.03508507755509875,0.027044237313922602,-0.01519259093050284,-0.0713013025956018,-0.013358203249711625,-0.04127615408512133,-0.034375273727084,0.022328451353511684,-0.022864579864670127,-0.0859872197595605,-0.0020092770000208534,-0.022373229417890002
85.03404998779297,1.308502197265625,-0.01243166806850951,-0.008139738147405144,-0.04580758986771191,-0.09383123420371856,-0.035902642941703075,0.12099075792143263,0.0088248098075531,-0.06302225206216126,0.14708779581664885,0.2710544697070766,0.01570420076249095,-0.10552971583623363,0.08818521558241246,0.03526111775006582,0.2009540051871475,-0.31455762444456076,0.0032533796776790403,0.19638423167481464,-0.06191374185738355,0.11431015186168492,-0.05199712424267764,-0.0768041929210274,-0.0759432104063806,0.281852747895077,-0.06740035308184046,-0.03787042880126397,0.08009762596404327,-0.19586145918730496,-0.030582680191462,0.12806750962823077,-0.026275287924267948,0.25722084636604625,-0.12279267236629016,0.08239904436620071,0.14828456031350684,-0.2283812700039977,0.025143628985626665,-0.3128769895298316,0.024635563011074196,0.40172178885813864,0.16145142673730403,-0.26812789875606863,-0.09642864374703508,-0.2601046780280512,0.1824371535059656,0.25983043191818755,-0.12436589178654214,-0.05136250108799956,-0.11890672535446137,-0.1712947067610069,-0.14482616930303407,-0.013300238682344142,0.1027151925339842,-0.03542800865758401,-0.23994337169617252,-0.07515135981077192,-0.05473675551625203,-0.021740083354951787,-0.029110895415174975,0.033959715541308805,-0.05698227229615774,-0.008212497487589787,-0.05016266537910071,0.0017922179763462374,0.03651906391744022,0.08066719234835121,-0.02706407814106853,0.02970870771162809,0.10401544269825698,0.01412927403307948,-0.007954297382098033,0.019748198053716266,0.02183995518018239,-0.0024114574293406937,0.06813224662931895,0.054926214037808466,-0.005971198824007531,-0.01674950620356725,-0.1521932430757154,0.14933890043178,0.3162697508684061,0.22987020127128974,-0.3856292609976011,-0.00954847683475208,0.05326664951523614,0.0041546294913685075,-0.00039762643115204494,-0.0963495243676931,-0.00274821896802228,-0.008724612871859336,-0.040672701701163994,-0.009309664701703715,-0.013436568540208383,-0.012677767555399365,0.012719975335886594,-0.010298109075508988,0.07043735221447817,0.04424100360178371,-0.02416984422703964,-0.10680841409206657
86.3425521850586,1.3183975219726562,0.0397360390538388,0.055183270293174,0.01581942116875018,0.06451318897939642,-0.05120015432842349,0.04252393901939967,0.12167616161198079,-0.11006823657612376,-0.009729314046844476,0.028774987336982746,0.06273557144619303,0.0023442773271972472,-0.18727790193701044,-0.07120024211439359,-0.04059563043758456,-0.10636257366315059,0.08999763136007008,0.03380365230031106,-0.007510837428325968,0.018082983694945848,-0.08100477604836719,-0.3991077277992359,0.06509995333566089,0.1795477020686145,0.3554048163295936,0.17141798413834528,0.22300734309427428,0.06301653322356407,-0.01793026594224988,0.14799170104811687,-0.0078110931926734725,-0.23186354017772443,-0.18126497295918595,0.028756683803046676,-0.012768948766858789,-0.05354056480374057,0.06002619309083646,0.24893105072978353,0.40409482887643755,0.036572228905431416,-0.24275494700829037,-0.3238160553722417,0.10084125908272926,-0.21914043680708342,0.04358441629505142,0.6240468571329496,0.523015728280793,-0.12878601800090028,-0.2565503635923105,0.1483114941712288,-2.5055099638123662e-05,-0.351081124159946,-0.020774520935127036,0.2756907655679269,0.20276728737102515,0.021972285882375292,-0.07372888888248079,-0.04300326369106236,0.08272973519492598,0.11360931084632919,0.050970306439145296,-0.04758749690374083,0.020182012049885147,0.01246267493035691,-0.09279632741396363,-0.054490122957156065,-0.06139062822624708,-0.008190044782227504,0.06978699677407528,0.06241977948818635,-0.04653414128853968,0.004792531244736829,-0.02112678530094776,0.07088124778245677,-0.00516411805850038,0.006596638098046962,-0.04262534282646094,-0.08414221042448963,0.13675633712868226,0.08260108696942776,-0.412526389737784,-0.09565325859613968,-0.004595363377029472,-0.05527023877133583,-0.07296624210495266,0.036266128375064786,0.04298073955754349,-0.0037203906332656522,0.033403593076351795,0.03677709285245363,-0.007815445217896328,0.042193625902344295,0.002985542221010735,0.04138721420969416,-0.04040703174055134,0.014741137656348918,-0.04837919924259165,0.09094614104760519,0.046983738027630256,-0.026806873671786365
87.66094970703125,1.2782974243164062,-0.030640684028567393,-0.18223749173285958,-0.06325359625137844,-0.008858905753835494,-0.05131554434159687,0.06314723193665545,-0.21124045966761523,0.014353605219191046,0.002092792678189766,0.06211644456764361,-0.07536431864099856,0.19563271110379404,-0.2592831196361396,0.13231943778364147,0.25880361991600354,0.1382511521394204,-0.17590350290033685,0.03937787548341484,-0.16358192911035524,-0.1360583708690675,0.025644937475521837,0.1565793031873901,-0.047932095875691375,-0.03739362140494655,-0.20584533613233033,0.015341890350430166,-0.013167278011701991,-0.1340750716768709,-0.060839495618000235,-0.13483322994751362,0.11850878698935118,-0.06284047869482927,-0.0415844569767133,0.06589417417106251,0.07333748884250552,-0.08398919766540903,-0.02701285126740835,-0.17786278701264793,0.09912964334126109,0.00033641360777741935,-0.4345138849185578,-0.16198456131393288,0.26532631753119035,-0.009991690639978113,0.045402318650552366,-0.11537329582215916,0.09193797597759502,0.05302894989098293,0.08077438815799695,-0.09700069051166507,-0.3541390854988853,0.12604217015945252,0.062147122063850396,0.10780746115938476,0.17662632890446267,-0.029314326499147846,0.0650608661173748,0.08224027857049232,-0.010859218913631983,-0.02974434848591795,-0.10617514691636673,0.06161367807152117,0.002953106072987274,-0.0725222706763542,-0.010698378631244603,-0.04788646251362866,-0.0635537448244915,-0.07915465011110913,-0.05086832057675481,0.09799206432190105,0.045728510822675955,0.049448861699614106,0.006643785891097372,0.06216302498675726,-0.008257395806168645,0.08669472860561715,-0.035699877328365284,-0.05634198599743157,0.046198652949480445,0.12979039136160078,-0.05426002064938334,-0.1900093161056097,0.10324528954633148,0.13422356037097494,-0.21057355871993627,-0.04671513521684447,-0.023930321490399087,0.0019251989040357164,0.009558194659740872,-0.019500073974311458,-0.032372049480740024,-0.006769603200480659,0.052042170875362295,-0.06576660994949575,0.03190746154176917,-0.03869221496604948,-0.08178410675814107,-0.061126825812922565,-0.0053041582664934556,-0.012546807883727942
92.82454681396484,1.2988052368164062,0.058600414088377385,0.011953362069453714,0.06830671408490534,-0.009911444837887782,-0.042597112752781524,0.04258749707220795,0.19156020869177848,0.11653941323947432,-0.13686978746094697,0.16009364860187225,-0.021090939745992153,-0.05385435952282704,-0.07662233418543642,-0.029281418275407787,0.10785381170425787,0.38388745198008545,0.3835252576808554,0.07949024279156704,-0.10362666012179048,-0.15713692117851924,-0.23307188357937617,-0.134978746495064,-0.017134662367198187,0.1540318428136129,-0.027228975828908427,-0.27692347018679625,0.23582295618551627,0.22042737080317937,0.408080538671677,0.14563111542452883,0.30453965924443693,-0.057442387788101984,-0.25908317530083896,0.11141698213560675,0.04346783606965084,-0.21393148332980647,0.1291485938110731,0.04491894370937203,-0.04177879364852233,0.013304075073394168,-0.21415794608495922,-0.014591886532404959,-0.36916269876551344,-0.06175707766501949,-0.11339491407801752,0.05301812670119904,-0.041995111571891924,0.005850954729275763,-0.17415498526681494,0.3103361053333589,-0.1694300165049618,-0.03826328391865975,-0.08778592706064903,-0.12250570418316334,-0.05351875018517781,0.4451842833383083,-0.05910626839528037,-0.09528137179615452,-0.07299112946421728,0.0007553466478575011,-0.04458689266641322,-0.09629174033662805,0.0011563824935857353,0.016058597064567432,0.023766215580515608,-0.07191677204919693,0.03816173259599589,0.0018028500091970324,0.005342715503981777,0.0020258382962295637,0.08135707482688506,0.039520607188384974,-0.07893067924434465,-0.07158541099196536,-0.048914648477486035,-0.08376170960601588,0.07437900231317096,-0.038842769174064734,0.0865550755812004,-0.07355386822549963,0.07925599857166783,0.11572267097804126,0.1221076866532975,0.15817775460944028,0.04622142776694082,-0.0023583714235868992,-0.06172200615163852,-0.03473591514765084,0.002654684777199508,0.000384441787142641,-0.017348638852427795,0.00628043858030259,-0.013321066044709746,0.01648258600577435,0.0016269071685567522,0.022732544198272843,0.021068193317999327,-0.01693531067817662,-0.01650906298702716,-0.041461205434046675
94.12335205078125,1.3086013793945312,-0.038577020366740426,-0.0021517403842736637,0.01168186860377887,0.05174811006261203,-0.006495424720549023,0.16387896258031306,0.07400640600892154,0.08541792503444467,-0.016602153831035745,0.07781712684744266,-0.054717800173509745,-0.0693015603378553,0.06500398901986171,-0.011529059962756438,-0.019103953371292982,-0.15909452481407926,0.235350887805438,-0.059951474163325885,0.03673294270726172,-0.19991714204719863,0.04459883370376058,0.017547562100878798,-0.04866413889504422,-0.041871375459115553,0.04310133420721263,0.2239393090652428,0.14616985873552799,0.09063608075198834,0.12111036857745466,-0.14166429602940048,0.050219437112799685,0.05234941482574432,-0.060532778383684836,0.04452123567284361,0.3553249158916031,0.270838944814618,-0.06187147770641312,-0.49989159930010785,0.12453614248377907,-0.3656837847429629,-0.4813327703805453,-0.7567283687931636,-0.07755511214982527,0.2666535297866297,0.3253919653765975,-0.4271091748531684,-0.5154220495628983,0.05667967549253357,0.10087348993512907,-0.05218253023090885,-0.1788396420617831,0.5102580121084469,0.00162943230991891,-0.14906425135460577,-0.16381358528931048,0.10108748449809643,-0.07868767597648992,0.03227481507137414,-0.09650780486507349,-0.10919993819522392,-0.18287575851946217,-0.002440575972096631,-0.005590647900997631,0.06677953431994897,-0.030487294287356456,0.05380491355460019,-0.03620817819887535,0.024627357418602825,0.09565340027285538,0.04578014256218994,-0.0011162846065976395,-0.043685446690099335,0.004154065638959142,0.013041495083757881,-0.12133372208090573,-0.0034294830917828622,0.02515750245739115,-0.021914042061864744,0.030042598345408577,0.04746798922379158,-0.020845818163565812,0.028548347497454732,-0.022885946809702698,0.01382629626950738,0.04348616135405685,-0.07520081207500379,0.01576555546344078,0.04370494644747387,0.019377362047474898,0.01528719373359462,0.009772819150815201,-0.014610257090820552,-0.0022052680867727433,-0.08125118012128843,-0.030156203177838216,-0.048170754372399836,0.04380406137894198,-0.014172770200908784,0.04865050233069163,-0.03718791017795537
95.43195343017578,1.3180999755859375,-0.033066178478811235,-0.056055329832608344,0.04111468427451915,-0.07609565220397327,-0.020064415381641377,-0.01605858569539715,0.0032705536928682123,0.02973948964767168,-0.08120893417994439,-0.1767812193429238,-0.19930804691488935,-0.23818138611468223,-0.03474133974409316,-0.019950383994334683,0.3132139857195766,0.2376608635411953,0.02901958714574365,-0.13352174993437194,0.08020960378188044,0.40346008363495645,0.14362732944696083,0.014537613851503983,-0.005091329429158269,0.10947547150081294,-0.003647244039947109,-0.04476561456284732,0.008675104433943169,-0.14004331653419239,0.0816228031791257,0.36272480532317697,0.048818107962198015,-0.19151531479656242,-0.3650571901188127,-0.03126956851271194,0.1874320412743407,0.10064730298284066,0.2519589282740854,0.06693112437405761,0.13527659921844332,0.1761922009695622,0.3052609840689079,0.22153503745893022,-0.32459534115781236,-0.01842985865851928,-0.049416819686017965,0.11842596857812984,-0.5070310949774252,-0.20672626317239817,0.44159869858817163,0.09338895131397704,0.11995178419714818,-0.0017659429265379166,0.0242251357957722,0.05735451056046761,0.007444118872504404,-0.1091704410660135,0.04889710863434122,0.023278335649294407,0.02545944031468486,0.0495390561013069,-0.060383132062589655,0.0339362015553714,-0.0012623057766694324,-0.07187146086861369,-0.021869156941199758,-0.04053446827693165,-0.04142812888011021,-0.009722900969842945,-0.06287703218180839,0.0003793194067728781,-0.21680682008490088,0.030051722915672652,0.005169854780493449,-0.09893127924210189,-0.011557234981553912,2.9437515306104424e-05,-0.015519298233547939,0.15038030175286948,0.1511120073111249,-0.04813013506179197,-0.03402264327532243,-0.49127325718610737,0.012190180237149226,0.0990063867568623,-0.08014092917926016,-0.07215975190216607,-0.07364958336674723,0.08963426025671564,0.012629643723922604,0.01296575510068207,-0.016735635416296274,0.03755476061470278,-0.006043402909043885,-0.041063409133709206,0.043209177668648506,-0.03607952888000628,-0.04458270981752041,-0.011517640202151212,-0.011541218807642674,0.04992988414727254
96.75005340576172,1.298797607421875,0.05532364241260827,0.013721546185614324,-0.018729772380501903,-0.04469654027116631,0.005929958444832788,-0.06026184703607923,0.02537976373735394,0.08390889849890759,-0.018015077446706683,-0.11299125857260534,0.031206154794486025,0.0626471090263022,-0.24917544035818012,-0.09250890923220993,-0.042896711684522165,-0.039432119556399144,0.136895373016513,0.027217046902229255,-0.058645000030542266,0.08977172271177608,-0.0009554361339923906,-0.12459881788278773,0.02771334310114072,0.09336491934122304,-0.011500236130401742,-0.10428920857482579,0.24872555124164303,0.08495942903483375,-0.03086235381427168,0.06585759768451822,-0.158230387023624,-0.23107339428193863,0.03780541014205942,-0.03920246962682922,-0.16735370599239913,-0.05153716632804138,-0.1142929798624815,-0.056075675293988825,-0.3745031535121294,-0.44355519095559237,-0.22071272702261568,-0.09030389656853263,-0.5545162803810525,-0.32443050426011844,-0.14140960810171566,-0.8475124092237971,-0.1811141487466496,-0.8373086244565101,-0.18774152400874736,-0.24686474337421643,-0.09923155399606885,0.28420815316413883,-0.13004481729569745,-0.10883493940110575,-0.030050728419109437,-0.07952333545803873,0.054224900146363206,0.019698492675674598,0.06480323081703986,-0.17709211768921934,-0.12658243644221975,0.10354613067423044,0.035805704118204496,0.04160252183988003,0.005535008559064789,0.04000221485457681,0.036937886202595055,-0.02506305347477622,-0.021986543008784838,0.044827905959308516,0.05101814294221699,0.005790065305358451,0.004850702627467578,0.01051929390892376,-0.005540487511120934,-0.04852071188538653,0.0339454866972945,-0.007492285277539467,-0.012977598741798359,-0.07042928736900943,0.15426928692766118,0.17140454760442914,-0.03364740173429469,-0.017047610918717856,0.08637387285222776,-0.0010474727886385132,0.0588738510767546,-0.008134195336571393,0.03217013510268836,-0.07297952882632923,-0.024289554080788343,-0.04757553679812544,0.016052360463062527,-0.02601360468302369,0.01607490724279154,0.06254576224910022,-0.0791237539289236,0.03054247354000674,-0.029753722281083403,-0.02853126167600243
98.0488510131836,1.3087005615234375,-0.02522489718115698,0.07260123613071424,-0.003713857897095489,-0.2601322727289729,-0.04855468945578141,0.06059884008514742,-0.16909645739302345,0.09935262747051204,-0.05700019611143327,-0.08974031683526949,0.09362880927709452,0.044920749760515064,0.16600922391830367,0.16530205916938012,-0.14381548121557658,-0.05431235928952132,-0.0015471406160549024,0.10438127844157462,0.0956657413660355,-0.13268982340391697,0.0659342462708444,0.12320823530417985,-0.1095736262541317,-0.18140074247973242,0.03201261493420245,0.0022466867732945095,0.06734178598264466,-0.033664600626427836,-0.09257984620188421,0.10876822458880697,0.12806052684051913,0.2680839144524443,0.041398942526981425,-0.06955374055560126,-0.10363935422602624,0.06842835195931339,0.027143063419996213,-0.1176708243589279,0.16555802834643552,0.06634645931875652,0.1936568232432616,0.5186674305915946,0.1791977772804921,0.21339813704260296,0.16338866097496238,0.844672825626193,-0.013752964602903622,0.023098602975862838,0.16641455557703033,0.23392575477119096,0.36368809734790014,0.1063861112863941,0.2926356873690376,-0.025393742191503088,0.1595164557047931,-0.02735040107916225,-0.07332821783916048,-0.1819749594253085,-0.002188340557366624,-0.07551847344141907,-0.07136467475575821,-0.023194576718495168,0.01970530425470529,-0.0701098182083003,0.024673775740766922,0.0006375773566912318,-0.09247442020838388,0.026257330353123807,0.06364350365299554,-0.01447916554061019,0.03763057712665285,0.06746517497412093,-0.006647633656235749,-0.009423393511044752,0.014193547958825794,-0.046572854458667774,-0.16026696264196816,-0.02681594193126771,0.016543450522433806,0.28793500243850007,-0.07227563196459368,-0.3019870902316065,0.08461919701332424,0.11942879864677114,-0.09625733993932345,0.06714758106932711,-0.02605023893456378,0.0024050289573034514,-0.059086185755258515,-0.01862140544428849,0.05667442794583131,0.04466717460445604,-0.03914335102830117,-0.03430995248885265,0.08138970748422984,0.038292863235797246,-0.004329503890516274,-0.08115097705773264,0.09226263910420693,0.0016475177819289645
99.35755157470703,1.438201904296875,0.004212246895896606,0.036020949596786464,-0.23542991093780694,0.1285117559317292,0.01923833883137499,-0.15337095812683768,-0.2156503233555804,0.03411976168392027,-0.4467039516011125,-0.09863286855220678,-0.18331466515642125,0.10263540473324965,0.26244955954562915,-0.09045247695823207,-0.22406672793460686,-0.03335653859765596,0.008052319691306471,-0.08181720899118944,0.3046080606001242,0.061105780099176894,0.09732919496992998,0.43890751458953436,0.1516962764828988,0.4344713604771414,-0.0448270283094961,0.021659096702560596,-0.17705625789964685,-0.07422536732283697,0.11862645185210303,0.1971417160059775,0.14822009113557555,-0.1872703234805254,0.01156340302531724,0.06579197370392321,-0.3279059690902475,0.018438106356215178,-0.08220719728849624,0.17818446675856978,-0.18403085033020156,-0.05914792879665245,0.2884751437863029,-0.07397938464921644,-0.31193637802668306,-0.25304374019092574,-0.038066546252221195,0.5571993330301847,0.3237839695553089,0.0545771448699539,-0.015399879054499077,-0.29118247780969303,0.1501430698799156,0.06387658503036762,0.1256749393052325,0.00878226273952879,-0.16185252655650498,-0.009061724269379998,-0.02751683961837817,0.024721582784243665,0.052443391708707765,-0.038927952667779125,0.030983955130645283,-0.033103937723815556,-0.024409454749842612,-0.0014802618758149983,-0.00898024902276526,0.04424483797423784,-0.11498691713636311,0.05216682636448096,0.1056456567091638,-0.03941557945543867,0.033988971565302714,-0.06244116790394208,0.011382104035377443,-0.08288483155211991,0.18576190139523965,0.271805034313869,-0.19074310760208896,-0.03787836240899216,0.16742452129651655,0.19504809669583573,0.24993426911611827,0.038987664633415756,0.013559656737069459,-0.01729295926962514,-0.11348709918441906,0.22973908395636208,0.04747351982546281,-0.002679851023053223,0.015481419221601256,0.040625566730594025,0.1797966362976594,0.0019675211417370646,-0.15999279474894842,0.006341680524857143,-0.06308298309451024,-0.03719929378633821,-0.0699995663086623,0.012830068743093215,-0.049175472141361504,0.022549803875295298
104.970947265625,1.2985992431640625,0.10294028956064635,0.01539653134554763,0.006206279989707545,-0.054644297454010886,-0.06805218378958017,-0.024407592748270913,0.2145206437335206,0.06579621722999356,-0.03794174587875258,-0.00499119349134877,0.05796956354439275,0.34210016356579015,0.036656293076152285,-0.004250812489317274,0.17025642678459244,0.0050289079483578705,-0.1635522601776608,0.18426070511326098,-0.07220219340698607,-0.19722547645105298,-0.08870245681832852,0.13739781963687722,0.15986681580918136,-0.11646651951981109,0.022649289342853908,-0.020822140586599636,0.05935226166778888,0.018034329629282815,-0.13893013725075914,-0.09862879303625074,0.21871446168740816,-0.2512384446306328,0.15359435499198903,0.09558003897360451,-0.02561791864504877,-0.1676530905003301,0.24455964760199225,0.25444607298578,0.2104452382603539,-0.12388005585968721,0.4723868057253406,0.43802505101409667,0.33177151441584984,-0.12308118753661286,-0.4474879461493388,0.25378229089653653,-0.3039489421711479,-0.40904864178939904,-0.1489668111196375,-0.00834113038127721,-0.5078148183499548,-0.46008957575854353,-0.10213061112538228,-0.025595106963816443,-0.1455909687844501,-0.06173116707707855,0.03047917815921186,0.03472287314716143,-0.1196937477901901,-0.08593958409063927,-0.026394212533160342,-0.03705094467428055,-0.0219061325440423,-0.009277938711565743,0.03597435035463375,0.033106442739019394,0.01702488609125161,0.04244111105531699,-0.0356903496121918,0.02536863372840241,-0.004191434471817239,0.018311490825528947,-0.050281655247253504,-0.007924909870636139,-0.04741482368457793,-0.05994004015491362,-0.07286778471310602,-0.0008105628789888455,-0.03055654970112958,0.05820557860545639,0.11091536872664065,-0.12991544912317898,-0.015862163264855303,-0.04363613971291707,-0.18222062883302373,-0.05903105640574999,0.049017055253164875,0.04836200471621971,0.01575233436712505,-0.008713979158466863,0.03480502732227326,-0.04414870470785437,-0.07220481866862728,0.05135780033119172,0.05743639730348855,-0.019621149329938657,0.0009554870091621637,0.013003769004337414,0.023784274412647737,0.09026052712398625
106.26954650878906,1.2681045532226562,-0.0426689417522092,-0.01975392758960845,-0.059798853926492694,-0.0410522611275118,-0.022142240918335287,-0.024008161253937642,0.13829118047206057,0.07816103395563986,-0.037698314386938395,0.04688811146604421,-0.058183927046472524,-0.10563700106674367,0.13766570187600277,-0.1212623718217893,0.00017971155010375415,0.052178616692289265,-0.1983432929305693,-0.2541248851495052,-0.1722500061934068,-0.13037865810859556,-0.09883052127017251,0.12665704763836566,0.021894496583767617,0.028291449451559945,0.20538874279208263,0.10710459027485411,-0.04210111378914237,0.06313589339790358,-0.04694350381184946,-0.04603940979217162,-0.18575471845140504,0.26046023180020245,0.06062406351629138,-0.12741227131056665,0.049570460860152196,0.21283803066829937,0.3008043578428735,-0.08959140944421648,-0.30646784472122535,-0.13773031870482474,-0.5200939691084737,-0.36054253254674523,-0.2136945393369449,0.07188619666333634,0.03659729372420496,-0.215707748701226,-0.33101948362367956,-0.6210749866003904,-0.16394146523202716,0.4251576933650468,-0.2734264113822397,0.07657321662141539,0.2044328581260715,0.3535210740209667,0.178583757317756,-0.028418188942323147,0.12222018049029003,0.05497830167197498,-0.02785993515217202,0.04911547312540277,-0.013835944578552735,0.07486617715509983,0.05929604961710248,0.0899385347753348,-0.035711313793739895,0.005436693365305403,0.11797530864530989,-0.027082302630909397,0.03696863721787967,0.01739751523623015,-0.009469746463944894,-0.0008059387899934341,0.010546896971889107,0.04208117075452505,0.11447324920804475,0.02689744052279623,0.029912373660317838,0.018728346546572808,0.018849529247234424,-0.0017204441727249192,-0.006015756465728196,0.016891351885154438,-0.016542796332277003,-0.09890628594655725,0.13826843994243446,-0.04574469136381398,0.012049902032121668,0.020290164341245896,-0.006328088685258734,0.010059435328781766,-0.03938594756570555,-0.050279167118754214,0.09452185792599752,0.04025609054752597,0.06331987528238914,0.050982526892820214,-0.0380530495218576,0.018929463779177133,0.062168015852437225,0.07003449961550957
107.53765106201172,1.2889022827148438,0.07812456951736824,-0.036240601923475016,0.07153826814864389,-0.0077066620235333744,0.02029912179722097,0.005289374169187289,0.6178026637729274,0.10220386385370084,-0.09408207668343646,0.05485632731499483,0.0646047911317948,-0.002599163236497174,0.05522958864211692,-0.03674823329011701,0.13601210921234824,0.12312302153021737,0.10396642552746718,-0.050478861866661236,0.027595664685015002,-0.031108868151107884,-0.14810478477563724,0.06757181502519774,0.09533650114040224,0.08077157361055472,0.35233034225395354,0.08122272030878588,-0.05625633704298394,0.32351314576969803,-0.04457110575358782,0.1423999208494729,0.2272633354309505,0.21447617077086398,0.13968147528620567,0.05640657265121113,-0.26876997178845985,-0.25210207696937215,-0.4405366207055279,0.06513889331214723,0.8213822035983297,0.01963661557757096,0.20644819358293984,0.10274221767026698,-0.3534496376869899,-0.2604206170819042,0.1270696696682097,0.04001379882854069,-0.25228321235648926,0.24756170162074786,-0.24121566757353569,-0.17213035463642368,-0.024586294360914467,-0.23588882239032855,0.02407813489617676,-0.0759939875344582,-0.041590395919105,-0.05491419988347203,0.08318658473528662,0.012277600053005412,-0.11462906253317594,0.03192441672537077,0.014178218428225666,0.0197786289707304,-0.008434171628573177,0.04002888804635103,0.0632351887463776,0.06022717688345949,-0.018594090092721935,-0.04122729898338198,-0.04339760239138368,-0.07028401937339743,8.201022621918443e-05,0.04427201277681442,0.032466092264169355,0.056823502297909674,0.0919597631192206,-0.01302431774358347,-0.04962741530972387,0.009529491808629144,0.025732572228478055,-0.06901638039086389,0.18152412433429124,0.2644039457240729,2.545549685721571e-05,0.0331216985338755,-0.1285898086709042,-0.047041347094026395,-0.014718174276608166,-0.10329435606951673,-0.007745114763689794,-0.08530631458394122,-0.08487642557082904,-0.033735029397544,-0.011854449168047843,0.03981657118380284,0.0640940526356465,0.04913155053564865,0.002792551736183686,-0.017995298829916323,-0.004046732583702209,0.03795119434797173
108.82655334472656,1.2986984252929688,0.04369480129675482,-0.02805850409200912,-0.015895484437645456,-0.033859918806638516,0.028648293273030867,-0.03247314102430401,-0.04063529065823947,-0.37024071398819897,0.10507343121107811,0.034759195312188115,-0.12395421301450255,-0.20346865338464387,0.09345622336670344,0.12382791201792878,0.0890523960775041,-0.24603920516947453,0.10124834739669432,0.1859027168868441,0.016253830623389816,0.1899278442034139,0.027830154580451044,0.08867982814095603,0.21603068246742507,-0.16927969796156767,-0.24074649362290038,0.0213107239433971,-0.03269110450902892,-0.14091397181568013,-0.06864225803128511,0.07230571974089886,-0.09007340949851857,-0.28280892373232497,0.1414167249667908,-0.12187680382455959,-0.0890433987282628,0.026860810578977778,0.011467113164577252,-0.05936915779438587,-0.060937826619433484,-0.10319418185161258,-0.10004531115741871,-0.010129551812002119,-0.09615077141120645,-0.3219530514791198,-0.14626963049705827,0.4367167659398432,0.35982970824830474,-0.2381764829771964,0.02700480646225687,-0.7033298664461631,0.10285786549772528,0.003141278483871386,0.08127025678265415,-0.15199286552606187,0.25703686623691047,-0.022715969360970777,-0.05215002566099712,0.038438179547319054,-0.004118442780725703,-0.06532425803693717,0.014774127091420612,-0.028520756751168684,-0.03365871730316295,-0.0411894590768017,0.0475968006631131,0.040752921870193526,-0.0658614360246902,0.04215352952368458,0.026308387441122207,-0.008217342784572241,0.00788076843905405,-0.03581469069081114,0.013450016285882022,-0.001346018664935891,-0.0062195210578333635,-0.06544949289800633,-0.05521542583306701,-0.10572432065702207,-0.008381387560754471,-0.0034166243047061284,-0.007426408442080799,0.03640582914517753,-0.36533867940415987,-0.01677539742442885,-0.07731612751498688,-0.0037297352421989966,-0.012971398529909875,-0.019498124473647988,0.0022085197317331926,0.024116241924664418,-0.001210151879874671,0.028060009786545957,-0.019516004144363018,-0.04661902023050973,0.05245524017599782,0.05892044690320922,-0.07327925027512355,-0.11305980123027713,-0.01915664079996685,-0.12062625953328464
110.12525177001953,1.608001708984375,-0.11583073662379213,0.02997162797975526,0.037909136087622045,-0.024735631248044874,-0.03232409791525503,0.06680146449099493,-0.014691939504507534,0.06028983631513898,-0.033284232921374265,0.0796981189952962,0.2864830723671371,0.15361248141831527,0.14116523129962413,0.13159570552363606,-0.02705004718966152,-0.07617561356149868,-0.11158802033530874,-0.08666748173793135,-0.36179694860591965,-0.42864197764538847,0.052546470903629565,-0.0735969489423384,0.02868218688201587,0.16937572825006064,0.13852603564944124,-0.16037164752132138,-0.05370737557056328,-0.4113825155844604,-0.09354771836202894,-0.045240718240244365,0.07896251454224959,-0.10316091764576989,-0.3563384052542547,-0.09361124507099419,0.10488714719703697,-0.4269688678640905,0.20350679062297913,-0.13233193210893862,-0.09462647516160608,-0.12580137491556337,0.191626563050486,0.19059633652220498,0.19957487138540048,0.16471480598076496,0.38513888795216134,0.004545139540265954,-0.5323077808259593,0.06696713646900959,-0.08961293952110458,-0.017027739808289227,0.0275907181160399,-0.09424560126127457,-0.1716709032604302,-0.2856117834826977,-0.018403636711895027,-0.014885054276976149,-0.004509283397815931,-0.009954711506618169,-0.017932440050062774,0.052169096982922894,0.030580976088254202,0.013711282668102434,0.03906272626943294,-0.015381811509445033,-0.002700669460820263,0.038211731406431255,-0.0652425661869729,-0.0707883434468904,-0.014350583707355863,0.07053584196521433,0.0261992434650056,0.0038522232858708063,0.03381440849337344,-0.05615140012190477,-0.013519243218118527,0.12261147080740617,-0.03835151315059384,-0.15074157391970705,-0.007299057384860572,0.23347688477858075,-0.0941235773439549,0.05139933360254843,0.14725523079588632,0.15580130842603734,0.0954961248221966,-0.07265088941441379,-0.18057971186050734,-0.02717842605791521,-0.002549699629102598,-0.012587691045622915,0.021632864579683178,-0.04280950071913833,0.08679309678133389,-0.06504506894889939,0.014301446740846074,-0.025067511224925742,0.012329493258022278,0.03695939300917758,0.13361398922470555,-0.02777779614529248
114.50005340576172,1.318695068359375,-0.05017522344486675,0.003238535971931424,-0.03339239629769486,-0.18902622330000657,0.10540610394395694,-0.032681850871784233,-0.23793361562900783,-0.08893796865594536,-0.212754691701116,-0.4767183211254369,0.012694323061438986,-0.1152838496250891,0.32137937016647494,0.05629770971310541,-0.0438973202954316,0.20424276351920934,-0.30864054996271256,-0.23918592204251957,0.03154031617616773,-0.1267708161393164,-0.19850277565952673,0.2410676713999909,-0.19239930079090906,-0.008893465843564985,-0.030454269586307953,0.09687840991305786,0.15445386328759736,-0.07965754791811708,-0.014787607614020454,-0.13475564427603762,-0.1172422111504612,-0.2191327542526059,0.12009382374630724,0.14047200576393268,-0.015545601854292585,-0.06513665876203856,0.14898060911226527,-0.08219440781242522,0.42921440074123185,0.07588388046029934,-0.9875470847767877,-0.4922579164101172,0.22433026445484067,0.0037270942185040207,-0.3231591437033567,-0.7044852694069833,-0.04359100093245777,0.07023212713670454,0.4018933170480619,0.3275582824676808,-0.43791162872485545,-0.2957214219283229,0.06593777152707275,-0.1164023169142308,0.05684136377882149,0.02289070119863131,0.002598952055682849,0.13529952866690168,-0.0036688197858671945,0.06228387581978334,-0.05396374634101076,0.057325589755453175,0.03942118396864894,0.07040729367960963,0.030128909487174987,0.08458893023129496,-0.07658827542989873,-0.016002115370003032,-0.04440585830559048,0.02274938002741426,0.06886326707526813,0.038223819792088456,-0.09351131638442899,-0.02364068641358469,0.0015471247320493248,0.02238988540118682,0.044593050050168254,0.06823900385789305,0.022500951846210763,0.037857616809995845,0.09333856600515453,0.04583173005517898,0.13424399208601578,0.03278674931111441,0.31713581368780364,-0.17979298616707406,0.11514040317029434,0.06434394036436965,-0.004512180741896075,0.0014247688832825778,0.031977652029475695,-0.015593238427198803,0.04537345776711792,-0.10624901908791723,-0.010364893082103832,-0.004443097022743925,-0.05745523547359349,0.03333697807423759,-0.013396302708545218,0.07776957151960628
115.8187484741211,1.29840087890625,-0.05792903163744545,0.1261843652522042,-0.00932490058409919,-0.017252295564540075,-0.06411858549033737,-0.04592003954123107,-0.03542334473055853,-0.01596326280093807,-0.023964010656973088,-0.00621523781431743,-0.0412177503477597,-0.11228733515861523,0.10683975094716816,-0.12668252730460489,-0.15300453804884645,-0.03782199775026223,0.059916042777636375,0.022497765953013824,-0.09920551184202994,-0.04810044410530924,0.04129525189373112,-0.2618985399251995,0.12858974561418632,0.3135677409104324,0.06947356951161869,0.01419996132184348,0.08647614608542921,-0.09730564987944683,0.03763004069057249,-0.17268772211804043,-0.24838253291552112,-0.11338756969062946,-0.2068859207332719,-0.38068678402691,0.24124706171030924,-0.16120299761710905,-0.10971725586032222,0.4046840832679538,0.309075049999764,0.2086990002689196,-0.1698746988089982,-0.3308621082264933,0.39747583807306114,-0.19162022489694336,-0.19499738119162704,0.19828815933307403,0.08165259083256227,-0.11626864444330753,-0.3680676387763096,0.20599116328597086,0.346729154955673,-0.14415736765604015,0.3306554843786673,0.11087160650085308,0.050575237952772946,-0.15382598043576232,-0.08336177363085952,0.12281991776430169,-0.07672840101418239,0.1462793659191856,-0.04376064834106082,-0.01822393993219816,-0.005041814060313966,0.012249536826688922,0.029254055636597956,0.048969976969770276,0.04022587356220323,-0.04726945748102797,-0.021647405515891716,0.08671528558318972,0.015357507666748012,-0.015886943535549522,0.004906492703157027,0.049910711876332586,0.010169847122124334,0.02394475287907606,-0.021906286692055923,-0.01530354628842788,-0.0935805230419922,0.1202195265673723,0.242545215760261,0.09664349658921748,0.1384265094927856,0.10068638163578997,0.051881893524010445,-0.04693620932742751,-0.02110881325828481,0.06239648854513352,0.05006429030136082,-0.0052509032714622775,0.021179523312596593,0.022627424749555314,0.006316030553581684,-0.00857972900201342,-0.02858453267180235,-0.015185871739367435,-0.05432421187165716,-0.03818130806859147,0.04912439132780404,-0.01208374095292061
117.11714935302734,1.2982025146484375,-0.008535500738500103,0.004214270701272777,-0.03194482470707518,-0.023455055841263325,-0.03879272101813104,-0.005750151834115845,-0.17623094393644748,0.045842567497257944,0.010798414728555677,-0.32502264750997195,-0.04928423712130811,-0.07990943658148018,0.3118598617818875,-0.07776572446905575,0.2788526570836837,-0.08739329535909675,-0.10032600053115583,0.03455221600662344,0.015966801492458153,-0.03592701077006327,0.22217213251368367,-0.06979454851010457,-0.1588396306954868,-0.0678392976521737,0.056080072053036764,0.011529966554891746,0.28574264722403725,0.1069376200217551,-0.2005460335912328,0.281287478014326,-0.04189244970431905,0.1018419068138337,-0.1666508722487685,0.44167786952055105,-0.01942525352318958,0.28394886216355314,-0.06271713802638562,-0.18329181177244025,0.13294759797797112,0.15492781440053918,0.1327837316035197,0.43503229034869484,0.3962569995198098,-0.16891224932570456,-0.11191711422969215,-0.6000756819173325,0.5666465034664733,0.31677818252162027,0.4409565792932465,-0.04813663487832931,0.20982222593955463,-0.403641425653195,-0.19911395981600435,0.026222045527392837,0.354277735178093,0.08102227494990076,0.0736496996238871,0.08487033822848175,-0.033496664784909876,0.04669795281614146,-0.08886424549629335,0.0009504164207882748,-0.07408626308005895,0.004444400140001674,0.030758574184119702,0.054216660403802776,0.04069486766250745,-0.04180202063289169,-0.07419229932492702,-0.049111284098773404,0.0384213355858007,-0.0520712353483477,-0.06511772775346543,-0.03262258120336253,0.05181088190960763,-0.0728895616997356,-0.09346251856457846,0.10469659444751336,0.038183153200128946,-0.05414562905575965,0.19795231607462913,0.2606872711178245,0.0035374215961363137,-0.02060211294589985,-0.03899066999521942,0.0013285590468393698,-0.09066783841339826,-0.05006581275814958,0.0003488803291416216,0.03251235345380789,-0.004400344194312646,0.008515716824052867,0.009952843504356235,0.06926922272603904,-0.03961480653639692,-0.044736464150897756,0.02776468859962792,-0.01306623968526384,-0.08167357033604244,-0.04151461728302633
118.41535186767578,1.29840087890625,-0.03534105138815756,0.12780017288575748,-0.027350199781192595,0.03875177624284412,0.023326963574001023,-0.14915790697519035,0.03181741306035504,0.06582357651675451,0.028103683598391705,0.12967147545941038,0.18926021996647246,-0.09862023151120393,0.10927489539014101,0.029233935785373408,0.0908734662741153,0.17085173719320532,0.04469581344954889,0.00886664109816819,0.0406722471372373,-0.07972918924367528,-0.15989440836537566,0.09443018214244403,-0.05141452906576088,0.233756652643696,-0.10991015676541954,-0.3182305364077445,-0.06079889049873787,-0.10485560238148531,0.07994726880850331,-0.03527326035757468,-0.16809524252089877,0.28239467851195493,0.09704301440553596,0.14811833511990682,0.10653180453787121,0.03902953551473047,0.030599580771807567,0.050669500329503216,0.00643288618544176,-0.3099184366783532,0.16720513027920048,0.21105356992746438,-0.2947893805291812,0.1258811880891696,0.12905825517525696,0.004306315154376971,0.2435878765358755,-0.036256790950266946,0.4249640898307565,-0.16488761000026916,0.08794145944810901,-0.15807619224286276,-0.0968134378436056,-0.07316368539685521,-0.006026329859097741,-0.24410356155001436,0.016281252232709188,-0.10633261020936752,0.0850839628969131,-0.023162717952892566,-0.004973382092963458,-0.10973695996528512,0.0018978589505660726,-0.007703713816792976,0.029773802298070105,0.009416855601797695,0.008367697517711223,0.016616517239301437,-0.055609645739078936,-0.019543210566142964,0.04770339548141765,0.033246185446913865,-0.023387426129967352,-0.057454878169100936,1.0226552642733124e-05,-0.06171162423153438,0.02084624725729574,0.013473846099936753,0.07282825102695073,0.09604937209685599,0.030528204561947228,-0.037112302146078205,-0.1462975781910808,0.07553579947759538,-0.06563639548583979,-0.018409218080613347,-0.037745024902057604,0.024955812122130012,0.03703908258823764,0.006984681150294226,0.014967946993050332,0.013185030461156811,-0.03098199330887639,-0.0053106727556704696,-0.05078678389802447,-0.012222563898484005,-0.06902978233443215,-0.06354115222400325,-0.040569489037965756,0.07985729718300931
119.71375274658203,1.32879638671875,0.0830758473860487,-0.0817442356467588,0.024570908882729753,0.006212183474506014,0.062083248659933025,0.04404413747039927,0.19085498581717492,-0.0344760335165762,-0.06376399678288747,-0.0312579894768186,0.007493997286757156,0.38557797890942713,0.3301835102077207,-0.27801874326469367,0.12299583925101698,-0.18168241673904564,0.28364665054548643,0.103585488773265,-0.12842913692189545,-0.07889737668719146,0.1104868657948765,0.00047846374152268455,0.06227110221597888,0.02542166603171512,-0.20751953318453487,-0.18774309241877524,-0.016937569092166246,-0.0013078132189356662,-0.17112610827495883,-0.05022471680890661,-0.033764398343474125,-0.28019353908933503,-0.11944403758473769,-0.07768409155814657,0.11154338994178958,-0.3534476290721218,-0.2334908296265149,0.06638191714275604,-0.18271037126777848,-0.1790613184736159,-0.3389788318405791,0.20873612542113504,0.0816078599222032,-0.023527198558142965,-0.10063959178000649,0.12728676618098095,-0.045730826620817566,0.1343070670593855,-0.2227596121945642,-0.05632031136118272,0.05093462843963646,0.07757731539511344,-0.08355553674357272,-0.6042688155720506,0.06015422721238757,-0.11857402160701591,-0.10924587677319095,-0.05213164433205206,-0.006371017640439129,-0.011376001425719932,-0.02586556270643056,0.0006507851751064147,0.016044521577172136,0.07061734788085483,0.03992340489870478,0.0521853491791946,0.0677899533555367,0.019819555341453896,-0.019255852673221528,-0.023755506926162375,-0.0454387541039889,0.003665580824450321,-0.024140236763536306,0.013536402547972164,0.042634808094795335,0.061421023572574895,-0.14139516646969397,-0.16756748242779337,-0.030273834186494864,0.1735593115346539,-0.3380334193179514,0.01654420172479787,0.21674397769350712,-0.0859601336823556,0.008697188663325604,0.006023487857140885,0.0068092934481081,-0.04820874166929367,-0.014980647396121222,0.001624993906674583,0.0018619583795047552,0.00434207479929238,0.10750134420019296,-0.008759210253984934,0.026199055034427765,-0.0391330303410262,-0.05598473973814937,0.03182272461936707,0.0721001615642418,0.04065678272535841
121.04254913330078,1.5281982421875,0.0432652383885849,0.00948998376710497,-0.0472357256105361,0.024569642842953477,-0.06888322890755941,0.1109999204029735,-0.004524429316261763,0.06824384933992392,-0.16727516822815963,0.052695113348133385,0.021959813656071622,0.2839788595757284,0.2872974105524564,0.04948792385251967,0.08033764233582301,-0.1755875905617236,0.08719149494118085,-0.022174907124795376,-0.4512592842377011,0.08584465674698812,-0.1685348343616187,0.31079675645501287,0.10065009546587886,-0.12767186265094999,-0.2482633858860239,-0.25830418478036477,-0.026815138441661918,-0.19738373339082022,0.04770092641519694,0.010258748680890835,-0.046813643686594436,-0.014850905843852374,-0.16963248907953576,0.056691748505530014,-0.1144895065295747,-0.08889738232641597,0.03976061862740954,0.16576100619213824,-0.007389265815528817,-0.46887592109094145,0.2250086794488274,0.06378562607334867,-0.038041362308715534,-0.49417289319125196,-0.3685510811449511,0.3408330610969765,0.12913649748748787,0.08156580144396727,0.029635938839101362,-0.052949022881342886,-0.0013662534241358527,0.012478695123165908,0.011328766519202551,-0.012948443280280705,0.13502239070173458,0.13494842982395744,-0.07394084442608344,-0.07176367784411136,-0.04600552266507923,-0.0350543559592278,-0.015071542683358634,0.00946064240751011,-0.022803928772456697,-0.00015582082311975083,0.008895127623200653,-0.08795451742438642,0.06608085805322872,0.002453106348867154,-0.09292172465296886,-0.012626060374812252,-0.019461242669549357,0.03888718990313335,0.020622958830890527,-0.018510441472124016,-0.09685845640661615,-0.02505541424284006,0.06810823116896039,-0.011973650689554673,-0.25053169514056167,0.0266480427930135,-0.3943550104867994,0.02022947479063012,0.016988553636172025,-0.05470933449505667,0.11532741149238857,0.1398571338110461,-0.0013036614619195456,-0.12860614248103724,-0.08579916036165296,-0.024452773318406833,-0.012361972473165277,0.02279564015631967,0.04412530166656582,0.1815459257583803,-0.030898756526444124,0.1667512468474924,-0.08026672610310692,0.7037423179179909,0.4572968375974108,-0.11449824301838632
125.54734802246094,1.2786026000976562,0.026892222871827326,-0.061776003899519705,0.014440298010249809,0.013051197501845519,-0.08099788113459207,-0.01867759430529714,0.027337027340510796,-0.02946317673572091,-0.0791213145420474,-0.03861114832142287,0.10464785829603278,-0.12304796313899365,-0.20230153903106968,0.06349882627092852,0.031954463406068535,0.0015958927550966569,0.01716261624116221,-0.11356383525860685,0.1965395521929486,0.08046949945034856,0.09304654321935779,-0.1848884777734141,0.08138317876717804,0.22179872620682128,0.1387867859478692,0.2892440477291237,0.08479942942306719,-0.20004169080293852,0.08228188769955062,-0.1786872368011973,-0.3071128696771822,0.05582006423985267,0.3129826456702536,-0.11064659023037934,-0.19174702400124297,0.1133239370900598,0.41676477779423204,-0.03134783631700162,0.12352868424341877,-0.6009910461674901,-0.1605537616683097,-0.24476655734347472,0.37038900723486945,0.18721698251973445,0.14146769864549585,-0.15121976802687861,-0.3056015377942545,0.06825226726561079,-0.059309948305921144,-0.6120127540421291,0.0622080357158437,-0.5321721885300998,-0.13997231624509582,-0.0013445162034906033,-0.0466621332945849,-0.028620226477149957,-0.05698639005434634,0.03658425796222844,0.02530567868476841,-0.0645491185858951,0.029852332311518244,0.07239235767427984,-0.02290467538744243,-0.07006046698779368,0.055495379754686,0.06976116244558439,-0.03649307839434476,0.01529655513769573,-0.04800272783558783,-0.05439893233666817,-0.011171588337371328,0.029487126160339237,0.09387660323124478,0.052464855075551355,-0.022697431537528765,0.026943780334369047,0.0030270763554830975,-0.012027045318454516,-0.07130419028836953,-0.04809939162899188,0.16016058585401136,0.21787985594432968,0.12250745477629214,-0.1981087825638593,-0.013165324275838435,0.0937787771094902,-0.08404668123138195,-0.005017213158332083,0.0036048095224815017,-0.007958410224530338,-0.04764671585163374,0.010869866366738984,-0.01932254828828287,-0.05133409898679309,0.006241495292525023,0.07044689926815315,0.028582548738439986,-0.04268518464615163,0.014131510271595357,0.049476921298097526
126.8259506225586,1.2585983276367188,0.05281454475662731,0.015131079095884804,0.01264953817074016,-0.059292651814321216,0.006970063218094914,0.011925937816946857,0.03042951093660623,0.02983136009390468,0.19141196520626808,0.013199549351183401,-0.007254090882999133,0.12102893925828588,0.15682973227866687,-0.22327683871687493,-0.030615509093433132,-0.13408295392584743,-0.16029957794966007,0.02891966900241789,0.34434009456036097,0.011202616786500766,0.042980568548494455,0.23493179749895565,-0.19910236758112831,-0.1342291181594408,-0.40749923190447723,0.03825294586860785,0.034764537387069146,0.262487100937542,-0.20446667634222643,0.21278944640858038,0.05105288771568225,-0.44931837795957125,-0.39742787390885725,0.1079944449173015,0.14475901881655903,0.1117571767343307,0.1644695637063519,-0.1312518040079713,0.09235217176476904,0.2645804364579036,0.022049420963655933,0.38387368361302965,-0.060795285674185545,-0.22613149080360187,-0.01618847224106855,0.1551817118802192,-0.1656928809915446,-0.41389639234717573,-0.1290439215154149,0.812357732397972,-0.08010588198558555,0.12397187383648547,-0.24572855042425418,-0.03322653025815558,0.2187868547371869,0.03929122344297638,-0.20177401926194216,-0.11283976384669925,-0.027851195112172315,0.06652858026315503,0.033212832233784656,0.01719819852302232,0.02553652485658023,-0.029192909515786715,0.005003826844059578,0.04767121572059172,-0.04912134418972988,-0.0628635419712808,-0.03806366107214984,-0.05218570189210174,-0.0019463377044892523,-0.006180920920039851,0.011559119585103457,-0.011091793011243564,-0.0067715220691768885,0.030710669208951453,-0.03208506068541475,-0.04350751611195769,0.20649423048565685,-0.03269704188651359,-0.06170917790404009,-0.10853727453414311,0.0046990613132743,-0.036941201448886976,0.09158084964958087,-0.007030274380080196,-0.0030126484944702388,0.01108747460709658,0.10681323309360663,0.003230605545639303,0.010289224247392127,-0.026636600858812216,0.00037257980744424823,-0.03193775097475925,-0.07693512827107743,-0.07693453982223024,0.011216713261144692,0.020353829154565364,-0.03344048197839401,0.09853101945606918
128.0845489501953,1.24810791015625,0.10705139755195948,0.08544284883162372,0.016071990808017904,-0.011332531423236541,0.00042665835685475745,-0.23343010146465967,0.012729644348239519,-0.07828572456570171,0.02002869897522444,0.1429380396701039,-0.16337390749052388,-0.14252626762839715,-0.1931362117117383,0.15820989584446346,0.08704952209060485,-0.10963834093143464,-0.11189747660097107,0.11202266647608737,-0.1743861977211949,-0.1109587029518844,0.019639853008940625,-0.02092674567032193,-0.07511200386999559,-0.1129038505829584,-0.09710804128432737,-0.14690804143039712,-0.3333700302984838,-0.1328205871905393,0.048110827133129835,0.15256603589787182,0.220525549146737,-0.32149653618089324,-0.17154981413991818,-0.008777003537120166,0.07874867261285348,-0.22188048056705484,0.04945755196030007,-0.048856133662018256,-0.39530175398298933,-0.404163799382602,-0.20410433602534356,-0.0981775054323289,-0.10544960793953363,0.10121154240755653,-0.14477118114410648,0.09638071006838367,-0.3624006071218631,-0.5519942169549049,0.0831913531829179,0.35499030828323813,0.25695699421902146,-0.09056755604131905,0.06234782858853222,0.02664543746630551,0.35658096782896265,0.11653928929113724,0.1450780330590394,-0.1601717746404283,-0.27437748546286456,-0.012581784106777412,-0.005769500542136755,0.08914179272699208,0.11442991192159595,-7.159416520709097e-05,0.04390327784947434,-0.044602440629572936,-0.008365451532771753,-0.06128071742573396,0.011403396290648883,0.04888710310302891,-0.00866793752699323,-0.021012733265964898,0.026065820510263543,-0.032770452598038444,-0.00577518292202271,-0.097171550919258,-0.002091468222417797,-0.05394723416337014,0.013689030679898854,-0.1131408762106001,0.07418521335966348,-0.006301772789027642,-0.0763407615207603,-0.12516887542032298,0.018118821139794173,0.006858859883589807,0.014100362650922587,-0.03508327707941799,-0.003054966530878289,0.05707907084840595,0.002308783099002756,0.003923005855214531,-0.053871821231230854,-0.051294963028442636,-0.015776106419868,-0.02204160650971911,0.1146019769743729,0.06218934260226113,-0.02534354410112638,0.03336632417782605
129.33265686035156,1.238494873046875,0.0396989737283275,0.021027342603616207,0.009936790376161747,0.0507124204765388,-0.010325691236505202,-0.11692118805703797,-0.21451290316731836,0.08038335590052395,0.022159095748910163,-0.16545145971675504,0.20620214328940398,-0.05464214522153737,-0.007149098650374061,-0.08559173469392939,0.10456350361566152,0.29962217736085084,0.04830897001363424,-0.14147818133592796,-0.1165828361286364,-0.2977823021535563,-0.35721017147884015,0.21332165823452626,0.14006537035127503,-0.2742182246223594,-0.4790388694004324,-0.12551394376608177,0.450413605293879,0.08719704219102276,-0.1485805664529322,-0.12876331558305273,0.5141951012891494,0.1051296241523637,0.03997542451317151,0.009693251115476137,-0.3988586020512697,-0.2022840306062029,0.06283075529771558,0.18178619330100956,0.09198615222434722,-0.0025472592977614575,-0.14108013640094794,-0.36691515342308667,0.1327868885549789,0.6417533767310634,-0.031372736619753386,1.0465247759078593,0.38311985611430743,0.12896110801712377,0.453920359542282,0.11477065016311062,-0.08816888928946337,0.08512115947978079,-0.13085931740147433,-0.14470274089286733,-0.023982394834714323,0.1316774000442718,-0.2482253737823669,0.09460339466561027,0.18347832077731097,-0.05361454534725172,-0.054369353415262625,-0.017735867071367276,0.05790138730358324,-0.026387871479991484,-0.010570026916106454,0.014124564525909137,0.01317899844975717,-0.037037988685195866,0.1024308963273976,-0.005018907561672533,-0.008939277735476862,0.054514722012543315,0.031546704516548146,0.01796510995316916,-0.07280684257833443,-0.1098907374345963,0.0931293308257523,-0.02096467445371203,0.07177077080835682,-0.045943097074863166,-0.060151360597691786,0.08128711050974996,0.04830813952442524,-0.06011409954118589,0.11023683843386516,-0.21179270215585758,-0.03626762303062711,-0.009673708950462507,-0.008060324239428247,-0.030381005292340835,-0.011937656747822378,4.269674116581237e-06,-0.08557727031678938,-0.021752604671101523,-0.016411430154814572,-0.02331514531821364,0.08932525812858536,0.01822107730735616,-0.03822390210385416,-0.046536343219669776
130.57115173339844,1.25909423828125,-0.03795288546695325,0.03087821401475018,-0.06660712218838105,-0.022968176455378284,-0.34047127971342106,-0.12886782844391043,0.14748003475961272,0.1274798498070524,0.035382624055684514,-0.24820711075681182,-0.05205588748219059,-0.5507101874524571,0.15562248788111308,-0.23036675596967457,0.220444191989491,-0.05051194420571418,0.28711078627538,-0.11890210143443722,-0.24670245984166536,-0.05268731414449765,0.0598390752102024,0.10806486910656275,-0.0743260789057177,-0.290368995388278,0.2449801268803406,0.10362799889992483,0.16280143212848208,-0.2795635050402443,-0.12885086855342154,-0.3781517494131392,0.023439559018354338,0.26932565749215664,0.20050358029992474,0.22959556638186499,0.16434310069131838,0.3876404640684756,-0.2696301033750943,-0.1250187095145344,-0.14545643475843295,-0.32939533081320826,-0.24781457159800296,-0.8093738825864766,-0.5100834565866793,-0.16386479618179642,0.29756779138081796,0.03102493815545048,-0.03079729900875226,0.06533235778525001,0.011287883081716342,0.2267028255374584,-0.04303110781196681,-0.045043391549597925,0.038173737165407534,0.09332812142332271,0.2592351796879829,0.06794344575620057,-0.014017417457141877,-0.21959319079322842,0.03924756077034152,0.03414805805428533,0.0014857778640314226,0.003259480280729564,0.013835646807320379,0.04065087328934232,0.07827226616935709,0.06919800219959164,0.05093056281450635,-0.0012862255270703,0.08550348232456106,-0.0498276506514837,0.03589032768651132,-0.047340302315561286,0.02934159222710429,0.04616298908348093,0.05769108205514002,-0.011285620301335883,0.04816649670804416,-0.0687185926525829,-0.015034190313916524,0.15732574247973405,0.03852524638745711,0.12139621495661793,0.11269788681233721,0.05183408465846347,0.05640803473416425,0.0738173447637295,0.008130901230647502,-0.02684743077267899,-0.024112233096741296,-0.04302398376723328,-0.10383503475944718,0.04458529821173955,0.07620337492120156,0.0737092596439049,0.0441400835717021,-0.045923192590405025,-0.04624714799972293,-0.003225967311712241,0.015394910228196784,-0.0072376069296287366
131.8302459716797,1.538299560546875,-0.004029799661555709,-0.07412602248717245,-0.008457198698298668,0.03693667652772947,-0.07278161112809892,-0.24181296896101917,-0.4779279162439892,-0.13678914358837174,0.06207554901063463,0.028901996270366635,-0.014475716542380425,-0.04694031607042487,-0.39070422287329676,3.557396981325456e-05,-0.20326596546633616,-0.062032705611821795,0.3338496835442473,0.005718728846465488,0.021348953559370075,0.20549037279210436,-0.07941399910610289,-0.1372179089957982,-0.07349271036300214,0.02882605382120627,-0.0634732387259586,0.21834178048383482,0.34310786449903263,0.1464908419977459,0.057132512266418314,-0.06168009003777293,0.12079071748586329,-0.1468500810228603,0.04798387802413716,0.39512614997160833,-0.26233894772061783,-0.22357566813018667,-0.3205881741953326,-0.17910513260081884,-0.21211779366212408,0.10277286223426811,0.1112251659629709,-0.06138367261310011,-0.3660136674682912,-0.025491923402034877,-0.6440708706740464,-0.005060337912448554,-0.038788261488367,0.031769383409245185,0.03885952838093883,0.0653556481152763,0.5149043167069471,0.15938990458489388,-0.011267206149171281,0.15036910836359127,-0.02630998703897265,0.06681582365531612,0.035491500036494025,0.10046221553034915,-0.0024768298792704497,0.00463005827584287,0.02250255990861995,0.03041696931536437,-0.0006489605449955997,0.018115778455184462,0.0193035985898393,-0.07163517820825743,0.03145432192626562,0.007210900572443278,-0.01466346194254913,-0.014975289198117733,0.08068463179529832,0.009981867002697467,-0.024875708172774083,0.01158505966524578,0.029525233342058064,-0.0719197330044705,-0.11903074140857754,-0.01390764809954648,0.012585252042547684,0.21475781057241583,-0.0032618207925550202,0.0021554337218379124,-0.007812725200045473,-0.04366850798436599,-0.18777431471499306,-0.13613244882546166,0.46591268592803725,0.02055619160642882,0.011662089777517395,-0.05781837075131424,0.0291541948339248,-0.04127784630118411,-0.003624655364086724,0.07833000986007474,0.028476864826930008,0.0677659020306968,-0.09775137691704647,-0.08176879332466978,-0.06099443713564841,0.006346148286125425
136.01535034179688,1.2483062744140625,0.077885175392605,0.030567835954181617,0.0032370494278451583,-0.0981866796373308,-0.03704317572813188,-0.042212862245255306,0.018999458639236355,-0.07268817168417817,-0.3466485562558248,-0.08732385363665884,0.14684350530144358,-0.00725099297380994,-0.048380693321770384,-0.08483366191197601,0.1796885876280635,-0.15830763712610718,-0.07119921779965743,0.004916696065294649,0.10422097601171103,0.3431642124806233,-0.41473548039720276,-0.04789346065597233,0.0184128610702477,0.2887145819054549,0.041152108433245876,0.2018450197576635,-0.15332503124985683,-0.24883931815677246,-0.047722823060972884,-0.1612340764945337,-0.26242234368170836,-0.12284703961559423,0.19085433638825783,0.23351526229490088,0.11322418595937098,0.02126741050419432,0.043226582462148194,0.5145153557347849,0.04517397211590094,0.19497703903640967,0.5895386591167023,0.6897302035793154,0.07964304700203581,0.22224175313278094,-0.1291669037541865,-0.721782597861764,0.1538354254426273,0.27927250426129946,0.3356790750575224,-0.029817099910008353,0.6435372877614166,0.22727115343838297,-0.04171273066489506,-0.30912285328521033,-0.24702827606182653,0.44737656272437964,0.019771263220679673,0.006954467550972303,0.0517729939979114,0.07482066361176529,-0.0456462122267272,-0.019642490098489566,-0.06260475924724171,-0.042299050287200636,-0.07061469804421638,-0.022591983825354975,-0.02947388708097487,0.04407010812666156,-0.006614376772659033,-0.024672024682281538,0.004766060318971699,-0.001198449899156278,0.03460325490920538,0.047717577605623715,-0.09731730208928553,0.10032378468336768,-0.03878728553404011,0.0650607104461673,-0.04636007636886623,-0.07012366710332528,-0.0638750117013734,5.5003842319734444e-05,0.04692554882793062,0.03479767918641069,-0.01698077976172417,-0.012954323622827571,0.006352539639131052,0.0076554506894152006,-0.016160475127291844,0.0295698225872717,-0.01720724661641641,-0.000313109170532133,0.01604477115637766,0.007160457381153534,-0.003847248156966693,0.026450093023591584,-0.03861670383530985,0.06347426152613102,-0.05881448129318146,-0.007810710256644773
137.26365661621094,1.268890380859375,0.004112572498967168,0.10792471298610884,0.04425581147754451,0.017609420994175198,-0.04766038868487157,-0.057011781562869075,-0.39552100851255856,0.05939942678334212,0.03915592355304002,-0.23582171421664516,-0.004474156736679162,0.027524317204397287,0.07779536405657986,-0.1156318126596712,-0.0004184877712221091,-0.15847895717063432,-0.22333525062413945,-0.08231254602675711,-0.17155402940293737,0.06632227759788033,-0.0479706877024245,0.13526876810841537,0.0018830773049647864,-0.3625179162879308,0.04203287611450268,0.18965795200295332,0.10723413145658114,0.07369534560327094,0.06700110817878113,0.005056076691528113,0.19910071688085185,-0.03350382513715632,0.037168257630075516,-0.03662255296100515,0.12652089798299232,0.7446098329535861,0.11459001159906242,-0.09237614821037007,-0.14790457785596792,-0.07490806122532956,0.24205472760966357,0.2351044144152172,-0.28255161447655686,0.14917437985563836,0.2302359843118612,0.24724536842163658,0.13301724941051235,-0.3252440723395661,-0.14521146868206722,0.22182240274602397,0.03879706190628485,-0.42207923007207643,0.05347561413259943,0.019124913616468012,0.17442665421708572,-0.012638460837644019,0.015037067072653267,-0.07433892949369893,0.019616201741662658,-0.02953900446081973,-0.07890399090669237,-0.06556461503995413,-0.07216035789079314,0.0040624623871406,0.0020978073586937623,0.0009207776062704052,0.021607806409618308,-0.027888777150615184,-0.06423823166789906,0.01271003763375939,0.05552101197990443,0.020256351596112134,-0.014812816608560445,-0.021594110338744824,-0.03135309493653746,0.10262872545043403,-0.02096620072833067,-0.01891052068385444,-0.033903161436057705,0.0522653938279908,-0.07288800251073864,0.011375050119561895,0.1285968160448965,-0.001772340675751525,-0.03445156890440811,-0.04727300750665792,-0.025918733688967865,-0.019136284652349744,-0.06436438282436525,0.008313876013554912,0.017932643096770003,-0.11153316453314938,0.017354345545524934,-0.009855433015201443,0.057283344645482966,0.042376394162373654,-0.04965972127062544,0.04390475059370162,0.052611974137984754,0.05246770009316294
138.5325469970703,1.25860595703125,-0.08331177213990523,0.010293286619694086,0.115811644866722,0.0005562355194524927,0.01887294187668077,0.06611822351501885,0.08557695019815299,-0.03143218493381653,-0.1063674581820744,-0.07440629837910843,0.39142361747965204,-0.009631668039846414,0.08035142036772394,-0.06770031784254686,-0.10103781253694612,-0.22343096126551673,0.18100829193879392,0.07246736823797509,0.00431808940896577,-0.08740550799448617,0.17282008525101478,0.30168944219461347,0.024600535321649186,0.12987873728904611,0.07206055705319145,0.09873930717188029,0.14466728399513085,0.0667639100444713,-0.03237017857441382,-0.013758627196666337,-0.1343402516474864,-0.09304843587999598,-0.0986358028876033,0.33588711635185897,-0.05191937421862522,0.04174193170289035,0.05259960093295936,0.0985894725832739,-0.04625843399974619,0.31950627475769533,0.21611611188558472,0.039827419023380245,-0.0471242841292306,0.09333023750959304,-0.4039297313328784,-0.3704869305211504,-0.11352217689720023,-0.171624677638537,0.12061676343210644,-0.3659031368264113,-0.0050983457072576385,-0.04756094589788367,-0.2951793819237438,-0.04773453934885327,-0.06488077339278436,0.013603464915047297,-0.14651178742568716,-0.19290390834050922,0.06535722861978034,-0.07613658779424674,-0.0159542806080754,0.0313034488283313,-0.06786649849578097,0.0007175206549277294,-0.0031987797701092547,0.043242347109912066,0.10141201312937541,-0.025976791632590257,0.016061477369558444,-0.028408687443162838,0.05579526803793434,-0.029252881719286875,0.04551490781629167,-0.03033427578864213,-0.005988474700133773,0.007423690365474337,0.10322224858912878,0.13187867480725507,0.01989089146562707,-0.12261438624713786,-0.0349987564321901,0.0479081323753791,0.12222152695598126,0.19993050972824422,-0.09180326216505554,-0.0023643533612275934,0.012794240769379999,0.024027286728958125,0.026022117995589764,0.04952676091626962,-0.005462275351837302,0.006826359302445215,0.014311159471119661,-0.044733034342108235,-0.06830500993885867,-0.0009991339517820587,-0.009850556521943075,0.08622353963861526,0.05121105033407695,0.03229775005998598
139.79115295410156,1.24859619140625,0.04091010009381701,0.027852082767328017,-0.007405524612358036,0.051389017285574976,0.03535539941407569,0.0474839194314388,0.32136967231765934,0.03268423707087749,0.04467502145052059,-0.010540743281003491,-0.031653101559841766,-0.05991437113015116,0.28276488527043253,0.04023043544067319,-0.16660294065035947,0.32010250798501133,-0.09741111983080826,-0.11925391637003442,0.10431029036046383,0.15816250914243724,0.10091242025567985,-0.43934582037096215,0.19447375845032902,-0.05641573450696581,-0.024905488301294208,-0.015522243020232154,-0.10149547798635078,0.14878153029600102,-0.19986035088993087,-0.18050393274018686,0.006149051461390644,-0.07654654736636489,-0.290994597208289,0.002801572413763727,0.4382653994370173,0.4179703585279214,-0.03275292727282145,-0.05604156195784407,-0.07335678017557963,0.3457197715212122,-0.029808744052025563,-0.49455578556327645,0.6379208402040866,0.4241785067528144,0.0921946214897458,-0.08397226938219017,-0.047640813837375146,0.3800613977724538,-0.1421334959274948,0.19758535685969975,0.11842594135651703,-0.01786115254100308,0.2940294485631487,-0.04251850798625568,0.055055774980971334,-0.14370012488532546,-0.1982927101939188,-0.027467056727483827,0.012872072606472742,0.01972822677836858,0.07699215561358161,0.012690222618670272,-0.05495967629284202,-0.018304722788182626,0.013015701773684964,-0.01399807683066593,0.04375537635234323,-0.027097295260347133,0.011956961419726086,-0.06875346153961555,0.005183702436581983,0.04502893739309675,0.09655603334292817,0.03182973919289497,-0.027224316778707416,-0.07329875589268711,0.051094552991046725,0.07917184779509118,-0.009440378491071424,0.0839551118264476,0.0612129122716412,-0.026939976386793855,-0.007073616840976606,-0.01835484711133846,0.019145595318263264,0.030772388227419328,0.0006834548366045038,0.011254356134210164,-0.06034426351235194,0.018839066862750015,-0.004479763009866494,0.0054803527021602145,0.02672442007697261,0.025552197272503997,0.0031636132572523926,-0.017983932960486337,-0.01266473584465996,0.051405291340167095,0.016636407006828047,0.10058888530905616
141.0397491455078,1.2581024169921875,-0.033959245446286826,0.04315518611147061,-0.05348915343323295,-0.04344980462453122,0.009607867142362534,0.08998759282932378,0.061314329922890654,-0.11369907555053642,0.1380573240940447,0.06328996356079972,0.06948570606765941,0.009403310618625038,0.040603019789471215,0.12354520686790732,0.2217144651215903,0.04320319055279281,-0.09856407487645467,0.006270122485970288,-0.05151820162216931,-0.2265157477940153,-0.26773759190683405,0.07903739594158016,0.22116928581906742,0.015406581528802553,-0.2838581742233073,0.06599060104110478,0.215639753640902,0.13647553693570114,-0.2342667736438897,0.08401871532828661,-0.172649243426165,0.017320031950108478,-0.2758583842738376,0.1686832461569029,-0.6345249546650085,-0.31012000031142,0.03212014629027272,-0.2907402825489511,0.21563102525738342,0.29848645351684044,0.245543797312007,0.03679533157948522,0.24806494080379293,0.3670721740873245,0.6847383613199672,-0.3423680090747182,-0.2223096324687207,-0.05168063513969591,0.09215445960897471,-0.13887634681146488,0.008160928941666546,-0.04979066718494544,0.23649023170730207,-0.018373768596500417,-0.04525652188865405,-0.09606932375804703,-0.026769242998275794,-0.005638210058738528,0.022943359391676812,-0.03115237827124969,-0.05956204364206315,-0.033977988531259856,-0.01288197530462909,0.019340315193455512,-0.06833618811053269,-0.05213351212479356,-0.03982039872754161,-0.025619000589778052,-0.023401041939192634,-0.057276853107453646,-0.044586763367396684,0.04058192129600757,-0.03493155103764611,-0.0055923344575280155,0.009960654841550252,-0.05103861334441501,-0.01971114724416946,-0.005336229325322155,0.049744322801540536,0.0451133188187273,0.06159390781670988,-0.08369497707626145,0.05463814343129058,-0.08624652103469413,0.06340004997865774,0.0022037724026715234,-0.03580825600187227,-0.046032891508485094,0.026371260166162164,-0.003470427887617991,0.010393747129308396,0.02984114805559608,-0.015373084390548472,-0.0767722955734415,-0.0020140597997524495,-0.047203151948128866,0.12353252776490214,-0.021610076796533297,-0.022846344870805908,-0.02447396832067765
142.2978515625,1.35870361328125,-0.01796315063667437,-0.01229295099698578,0.016719191128843687,0.044680785333691506,-0.10651769195586154,0.11693402983581083,-0.3341069583069063,-0.1001287558698464,-0.06479367665432786,0.08440812344936956,0.05784376326434547,-0.127134479185034,0.08116611312829497,-0.07432085645907421,-0.018476533427476183,-0.1277662494396918,0.03826481074462781,0.17163634808280512,0.3144702095468974,-0.027405017278467083,-0.06811407624853626,0.1098581042425184,-0.08319963860085318,-0.01578941904825918,-0.06918886557778742,-0.07296520252971046,0.13748574010628845,0.04947962491167115,-0.17756069340158287,-0.2604302855392638,0.1407738267216513,0.04284222788683323,-0.1953939560410446,-0.5164749591011477,-0.0777391257832529,0.20983594118703947,-0.16582571119379608,0.06939811835477133,0.060461195429762526,-0.3192767506069164,0.1209701336070658,0.1858894609759465,0.02648609544640143,0.07888601444753432,-0.2702334270498111,-0.44882857116773717,0.06137865295320833,-0.26462311845510117,0.11192514140329521,0.03280913790603411,-0.023809653743355225,0.04828497872504563,-0.11846220590432793,0.03056497869081965,-0.00724182117614023,0.013532500814918781,-0.03430081796349745,0.005969496083670457,-0.06729417967152505,0.06199523266465233,-0.07035739428230345,0.05494753585108425,-0.0434779976065107,-0.015730559847899856,-0.016210221439147063,0.08003547898471257,-0.004698888878808648,0.022999198194950207,0.009548539087774274,-0.12363294152814852,-0.03872073116483881,-0.04009588381724323,0.011571450311844377,0.056515586699484054,-0.12113004612924182,-0.14628772287879113,-0.008632020835671037,0.0806739417773805,-0.05106466801985003,0.20239436104041553,0.11825785360124941,-0.183496709078909,0.11080544534992964,0.11445187280548166,0.027967028598344074,-0.029008692845749084,0.02374108548596945,-0.03116280454385386,-0.10210936103176652,0.09405540550055508,-0.23380019591195,-0.28092790638245463,-0.11118595880203413,-0.001644597707013265,0.08956029246743215,-0.01953050369907143,0.026801107711002463,0.031317354529399884,-0.13057675455404122,0.22587039352558963
147.75155639648438,1.3987884521484375,-0.022181537247593558,0.09588354769962978,0.004475434146358758,-0.03771322859540644,-0.02869669340351333,-0.07597288612712934,0.0127294988055229,-0.079028951735936,-0.014252763096106708,0.022983503318425205,0.12052101890820319,0.08764966627633342,0.2085439627584589,0.03682313463982164,0.019804431802959557,0.05283590411907429,0.012536249776884677,0.027186030301237868,-0.05112432242126926,-0.16576902315925057,0.21298279753401553,0.05005063683290939,0.2134094883218827,-0.022514756485609116,0.23654887424702845,-0.059358826312268145,0.07386828820743707,0.06253158817979176,0.16577828773312078,-0.2593610994371805,-0.1077779651468987,0.2921952259646885,0.052612436000664065,-0.26445907464520396,-0.23859346200180925,-0.43805850440159,0.12549622757370743,0.2471033192879073,0.42694425196971264,0.16729550832842147,-0.08665485700455781,0.04854962349415863,0.000662571350037916,0.3271308310057651,0.3875180605925769,0.251938409056879,-0.2608055241822291,-0.09760819483221095,-0.03107076656486178,-0.032621988949100955,-0.23756593072862497,0.10295473615188061,-0.10013911359374757,-0.04598873682922162,0.0019885243759752425,-0.3750275041280407,-0.06263532353356484,0.018434865393368884,-0.02712660811695317,-0.06568266176561519,0.06415748888849367,0.04306594829719836,-0.03727605868377655,0.11109994402118416,0.06218736276016676,0.0101696827239062,-0.004840171672738471,0.019241143049282483,0.04196081841717052,-0.016492030753270895,-0.013493809127285955,0.04388331776507229,0.0699772163958111,-0.09556596279635231,-0.020950795763400473,-0.04422076018316207,0.04959583054245383,-0.19817456212960233,-0.28492930911101194,-0.13697654612503185,0.18571426809321645,-0.04516413573642819,-0.3683415744808928,-0.026461672428688764,0.07660229934773882,0.049917802990236904,0.009445720406220062,0.040880978893368336,-0.0046587721520397925,-0.009464119700172224,0.03947931559084326,0.011208679483542715,-0.053491514743319625,0.01908111108795728,-0.0930907023915789,-0.011046271432041307,0.06058966673724392,0.04787736451662645,-0.057895470374350236,-0.07075476978402932
149.1503448486328,1.408599853515625,-0.06322088053814334,0.08511842848357422,-0.04795941263645743,0.040358239806909085,-0.03563490833465845,0.009401301293317663,-0.130524897306521,0.002662636776377219,0.07895964556135122,0.015484722385671557,0.11213479798454434,0.1687084823155917,0.16601262810034512,0.14716648259770806,-0.008273523720070628,0.023320048955752654,-0.1670713899035401,0.7288271687868463,0.10652972626048754,-0.1425639599435708,0.06881106477754323,0.05330957239134008,-0.0330910038851881,-0.23197091088269722,-0.0018542219790544379,-0.14072544961548394,-0.17101252073994505,0.020537287436825896,0.10203880000329554,-0.05954872925033129,-0.10745465917719217,0.08623883923912178,-0.017472461757058397,0.004416735846604063,0.16361974593574816,0.2631864076788231,0.4887664088847269,-0.16076979566846744,0.07927233834572213,0.1459002001546782,0.3548606676785954,0.17915226209467883,0.15812458385170974,-0.4402214862336546,0.09279929908767084,0.2824917047688884,0.35943833426922706,-0.026466621630616312,-0.5730459368471741,-0.142184407147122,-0.19610680260928454,0.0007654671291446142,-0.018764816276190192,-0.08039044827377242,0.23590721969489406,0.0816828413040878,-0.1664483559105474,-0.017700504672899485,-0.21518348069241788,-0.0011483829533187884,0.06822356153781652,0.08336026282921682,0.10068475605712612,-0.017402019426147948,0.06478057436704754,0.009444126431065066,-0.02094588828046751,0.05661505349089005,-0.018978783729382026,-0.03953772722485215,0.043770667796480964,0.00990640356319173,0.0018567448132703456,0.02045182424183019,-0.005434301878871249,0.021380728890496165,-0.011960853171798548,0.09782682314463455,0.003588958092871229,0.1375105412230583,0.17345278917879925,0.27746081687544555,-0.1334078648055815,-0.005678637863522363,-0.060850516309505435,0.08402692942983124,0.06951872346010993,0.05106297579437417,0.019696770667259507,-0.07746796217021719,-0.03996960301750474,-0.009133046846434985,-0.05900774101051142,0.0007860197709589748,0.02899919783765327,-0.024516891312310062,-0.0349629049624437,0.03489224398881906,0.04287634030660995,0.07344839367580112
150.55894470214844,1.3180999755859375,-0.06084796652102592,-0.0009139194119387245,0.10471193152101414,0.029462008774173883,0.018089650004745817,0.06667605093662063,0.10432380676614639,0.010249134491901787,0.08825075179098958,-0.04625785481597527,-0.07090173144032412,0.021901090981594627,-0.16988134266776278,-0.008887219860527196,0.1930681922107093,0.0314895933371748,0.016244267772074484,-0.10794530999066385,-0.09272647521123045,-0.16127743927087665,0.15703268581439384,0.016350145595772428,0.049366239948741245,0.013834666599876054,-0.1152541657047628,-0.08643227931918515,0.0581782090180195,0.07344002051359573,-0.03472651690957671,-0.08130045395007374,0.0016518059838098245,-0.37588822201217004,-0.5158898599295031,-0.13398201439951968,0.03104224739454598,-0.029345700391256127,-0.42223546671266277,-0.11395932664908867,0.20465187329426426,-0.16280520277866742,0.0037951310366856617,0.21045500159257058,-0.11349094249757938,0.16472091241146405,-0.028349125446282875,0.39268176206899175,0.5939561220692995,-0.07459662514350275,0.395435881512857,0.47194033651840567,0.008539244691724603,-0.07911825346946802,0.18202688680260046,0.0019279547106827721,-0.04167879343169692,-0.24451680467741477,-0.18905825034778778,0.048813997501215185,0.08038944521381122,-0.04249270750864185,-0.012015335355105326,-0.025148955100558014,-0.01341713298181955,0.009887274892737191,0.052102724679490106,0.002131836061746079,0.024403632747575777,0.05787424069794343,-0.04003567983153473,0.007743478228967973,0.04923375305481871,0.04251841555910545,-0.08683807882117185,0.035140510275567284,-0.07121367537945555,-0.07854521364125827,0.02779484844068516,0.0071038495921816125,-0.039765264596771835,-0.08772327164956192,0.007066610132436157,-0.16779880790545026,0.36685444832848835,-0.14516356054037466,0.11608891602437184,0.20570490559514407,-0.01804034671196301,-0.00762093891138743,0.01474581982206887,-0.07550171922378844,0.05118110437583561,-0.03519128753939998,0.035127291858502295,0.005343794132570672,0.11235749766945456,-0.03311029285656824,0.015911557143853266,-0.06558204881649272,0.05044329268041417,-0.047180633201394304
151.87704467773438,1.37860107421875,-0.03913955398422108,0.02752229961914531,-0.03454393167816575,-0.09459077356725511,-0.09776762261685953,-0.009894714696706428,-0.01575900713571181,0.061213910443244576,-0.007373960569237194,0.02834815756700786,-0.06941350029010471,0.014215151081131229,0.14213028095400312,-0.1053020561866644,-0.19951552817200843,-0.023812791228113066,-0.07025157570258739,-0.08989964071430448,-0.0018675717024448318,-0.04709653568277898,0.31272207504652805,0.03422512205860285,0.03795263044528262,-0.05052151971610193,0.1464028909387395,-0.22963573472059448,0.11797534221418435,-0.02965269007332738,-0.19708087106695427,0.1676718523693809,-0.016569369030799943,0.12196792776978398,0.09977899344382465,0.08022034033886899,-0.07166921251012728,-0.10833632318116534,0.1044273656148481,-0.0448549770636018,-0.13736224629342086,-0.36962948025109765,0.157154350782235,-0.17914339694188128,-0.3083303142112653,-0.4033386865312281,-0.41606404130582214,0.27420778750811475,-0.24339433242493486,0.009272552065197847,0.013998177231647604,-0.006867219700251873,-0.07505987969679816,-0.22796802562858262,0.015269420857812839,0.0771949875503145,-0.06376155163122023,-0.0023549441238669934,-0.0008119598799522232,-0.010185892544085102,0.2816380783376644,-0.03117571375002278,-0.0032667648519046923,0.049478564607364356,-0.012930927679392256,-0.03320757732012992,-0.0009788870300335714,-0.07812829457322915,-0.027094349837853582,-0.027157282735097977,-0.021703578231571246,0.11361783145117735,0.014073455338976535,0.019128871385891418,0.03438493798478451,-0.06301306539020037,0.012002864208142524,0.0339039768085992,-0.0007025737928797652,0.05235409644342755,-0.11743803636196598,-0.22122742992055577,0.12403488380228511,0.1649493596069509,-0.179528129136659,-0.11363804279237835,-0.2508384068478045,0.0013828219959390246,-0.1040077333124868,0.0031828241275497935,-0.0046683730638616555,0.010695415089270431,0.024609065460929558,-0.018563761134472338,0.00812397361430611,0.03604201880237059,0.034288800475944806,0.019634518472250763,-0.008652092909186712,-0.06796785911401282,0.0361952526209696,0.0750655663535951
153.25564575195312,1.7881011962890625,0.08229273687086702,-0.006876723909562949,0.06046879332592034,-0.04592070392088316,-0.025354955630211076,-0.08771736560014168,-0.027892202908424382,-0.015323359430832316,0.021775579210094185,0.04701095095931007,0.10103250322563581,0.06252964706277037,0.019120379729897753,0.07234168783572119,0.28817036088079256,0.1969383640333389,-0.13316463315500468,-0.21219800084434595,0.039594877469117495,-0.0553777330317553,-0.02814512262476642,0.0061004498962441145,-0.1409907870527659,-0.45875218223644665,0.043225401606693026,0.24153893400635623,0.05335800286946313,0.08031132197444522,0.07183874166413426,0.08322431579181967,0.10062266356735597,-0.019429041242653433,0.005733656670755559,-0.12230058322597256,-0.038720829185095895,0.059628460156763805,0.16936675430954945,-0.0339296455386588,-0.03998383347894996,-0.06531185902069425,-0.008250222210591412,-0.2462816032607332,-0.1978142106156906,0.23391334575564782,-0.008919397818914675,-0.39771133182564283,-0.07604583725194294,0.23764403281247193,0.04102688299565924,-0.10217316426214867,-0.21610181430680772,0.17392054621190514,0.1627889680148754,0.2121868386031695,0.013464133088205332,-0.03222224019005527,-0.08260158801560157,-0.05091486737641426,-0.004390581432440956,0.022860095850961784,0.08174166444386216,0.10211440493191676,0.002509091117802578,-0.003608537832787329,0.01839440701623183,-0.023241857218241103,-0.030383523761534192,0.014282143924893626,-0.003365603609774761,0.008248606832443816,0.09561594050997944,0.03001760097156063,-0.07553986584944934,0.06091833931952174,-0.008848952563135622,0.07500194236214998,0.04533972132492577,0.19148510946893205,-0.2926083915769053,-0.12103088635775186,-0.10931016165223875,0.11055341092570661,0.11598866196887674,-0.0449558080446426,-0.08756545012602425,-0.059469576206950876,-0.08382186431476477,0.10534094532017488,0.006620529812714719,0.0138243953736492,0.10161555668602115,0.06320242355878541,0.02825573707130884,0.007459474949964719,-0.02865900248061712,-0.044479963015076736,-0.044943594402876846,0.05487403289961211,-0.03620428314499128,0.028923830271244115
158.1896514892578,1.378692626953125,-0.008141059685639853,0.02972304722993359,0.31556036671516513,0.13876305323279867,-0.08784383047594659,-0.028679365892057176,0.008355872890770286,-0.02825870606337623,-0.0759533704680018,0.07240539453528488,-0.03940847897568372,-0.04495763442061035,-0.03130479091158497,0.05138375205395285,-0.24720427445929177,0.2678576606512787,-0.22065385232154172,0.017022433951810353,-0.06156674029754981,0.06610668146965801,-0.0026694434227589707,0.014628355163529304,0.28298396129931025,-0.04741943969742855,-0.42634135238546217,-0.017895324877845252,-0.04723194310138946,-0.06263672495755737,-0.010908709333598013,-0.06195948720999025,0.10803330284779782,-0.0991571092269246,-0.29917783262461606,0.03345545910138388,0.20311973452043955,0.013234715840231736,-0.1171790587532051,0.027467899395188608,0.1421206990812828,0.2500777393351233,-0.1839402377446981,-0.4223647987065809,-0.14795510043465493,-0.25728671968020883,-0.07631857808668237,-0.0728310093601162,0.04844376239448903,-0.516317568805639,-0.341670612273366,0.33326092666031104,-0.017079801433692428,0.13873700897235852,-0.06381995797237476,-0.06649136229633498,0.04994720832640054,-0.204052149994728,-0.019982523681787677,0.06124686051043126,0.22489406376858156,-0.08473050924775095,-0.0107843295385142,-0.0037908380820002585,0.09791596928850071,0.10355984216152427,-0.1808370049212675,0.06258630838727841,-0.05409888522245933,0.05884560292278082,0.010000445943642602,-0.07947389122032428,-0.052342857495914635,0.026665143432552597,0.017091818272983825,0.011347203762923516,0.04096158435766982,0.021019579312813147,0.010417850949509705,0.12679020469052446,-0.01544103652347036,0.03269104946069036,0.13375510003521135,0.1813105289765102,0.04578891800127997,-0.0729649570461036,-0.07617670746602981,0.061148996257280736,-0.04851557357296913,-0.04442794196607332,-0.0009973508832758578,0.03410278672728851,0.0035610989256149176,0.034439746522432126,-0.000931220100868779,0.08004312438053562,0.012800505131162019,0.014402880477498645,-0.052714475832668424,0.03602596023070758,0.03859057030612644,-0.008278231372469082
159.56834411621094,1.358306884765625,-0.004857453423840219,0.015522273569390774,0.02745637845687679,0.06766200626721453,-0.013326438433830714,-0.21033846439724843,-0.367093034822494,-0.23149101753244566,0.02742871205184991,-0.004420084385194163,0.17222631186960616,-0.0781163797745727,0.01635554144874214,0.04010885457568899,-0.10270335787898437,0.11622652627582905,0.11140870263184909,-0.04148629883816254,0.01885748122299029,0.32713141282026753,0.09764998348256043,0.06728847887515922,-0.07943545930755203,0.10608739173796505,-0.026168508963440456,0.11360339498819293,-0.08021749039450939,-0.09625327477720852,0.31663362053499244,0.39337145134260293,0.013281200972264609,0.05220299842965631,-0.06711480072519314,0.2557583586294917,0.01336223315766846,-0.010968721421496026,-0.0003671830028790712,0.3786396631170188,-0.033117484279164375,-0.07588761787605605,0.14879022822444954,0.0905713620610288,-0.11572838480870187,-0.13945831396716352,0.045616139941475536,0.38981402461010684,0.4776453772414469,0.41473847833417865,-0.020469033543754664,0.02665747371588873,-0.14232729010880693,-0.1322193115685012,-0.01409355227380851,-0.06765956839559045,0.020343231699965138,0.008113217084878083,0.20454889083119582,0.1478181377209487,-0.023031175595968956,0.030345954011144413,-0.036460747601547536,0.021759079070130923,0.06390849526478957,0.03146276034428454,-0.006729537443833387,0.009431220528810007,0.041585414093033415,-0.04860999048858988,-0.023962818726459202,0.027722641847093672,-0.03807365727827633,-0.0084609378173181,0.007964761049860002,0.08059682819467931,0.03763410355051146,0.11401530840616307,-0.19185860092716658,-0.14561034949475488,0.11271015359556077,-0.03771519527977628,-0.07727521548510194,-0.18105699641629588,-0.26611988656020275,-0.019415331804039284,0.11854709540499846,-0.005529542385971167,0.12144753272757176,0.1025190319862256,-0.09028433594527947,0.003895246105249897,-0.0489226689048665,0.029900199352946723,0.046264813458760684,-0.03493625229944935,-0.04334577287890675,0.002206908204405165,0.0861332992136174,0.02864708014505453,0.01310493154698932,0.04489013721597216
160.92665100097656,1.3787994384765625,0.05238892620030449,-0.06015017157651999,0.0026678028315501377,0.03475560387709669,0.09245603067165845,0.012537705570821638,0.09209203460393624,-0.06857698784018673,-0.0712081127527501,0.10709767901194012,-0.0768333789352568,0.09911266755972248,-0.006741541990219045,-0.07870621743809007,0.16581938793507237,-0.011670770048320544,-0.08239283606507906,-0.04527471147203697,0.08519728413264564,0.25205178155166036,0.11098876919660963,-0.03708547851426553,-0.10082811642404017,0.049188403976426945,0.02934204458686301,-0.023011554427820175,-0.21010302281480045,-0.09360376718152202,-0.029616042075292986,-0.06213050126041124,-0.023626045089082646,0.23489091956926142,-0.01149804629046808,0.005092458436849358,0.025972350484420294,-0.23776800197918738,0.5201791011314442,0.01690223544202056,0.0777826517175092,0.38711468053897374,-0.047459690972415536,0.3087744959775473,-0.13338434304656083,-0.16165908788185862,0.018816720522009736,0.45151036074213036,0.444221232700954,-0.051214768498945906,-0.22673420867000058,-0.062057467001472306,-0.06416414740030643,-0.05517346460683877,0.0394463647444667,-0.09939338291595588,-0.12431870189318196,-0.035856935692472676,-0.023774853502412735,0.0899274907919936,0.16119779254926186,0.06655363643774223,0.08808935247971308,-0.021877165161982768,-0.14212354640033287,0.020178550375746965,0.10627084667190788,0.035177656549005745,0.05833734156602541,0.03174090472976503,0.05165747771700601,-0.03402850107883913,-0.024656254508275546,0.03332088742321905,-0.10098793277615799,-0.04211945140967999,0.023421545537392913,0.10982334682840376,-0.016228640235988995,0.20941567384219517,0.025352151788733394,0.04526041794750424,0.21233741584917662,-0.0075042235608998135,0.1300444329100437,-0.18078955091295504,-0.015396308402942737,0.060185907037241256,0.05833908529164766,0.0013347622979043854,-0.006194559119527605,0.05095234853762515,0.0003351987312339191,0.012000930107223945,-0.00492297649088087,0.003721172089613761,-0.02880785136753206,0.00395590163400306,0.01756879474411959,-0.045581314708786895,0.04871500144617731,-0.0035751159842261583
162.30545043945312,1.3484039306640625,0.0024814412767980407,0.02132934227841503,-0.02993059761840028,0.041792906206361335,0.003966938430196271,-0.1257802322884018,0.008220170263284515,0.011306210147965134,0.030544001578170363,-0.09437098749303752,-0.053600213315483376,-0.16993843829130736,0.26070188544900663,-0.029409392954041533,-0.44833868436068214,0.09177006668875454,0.1036077724752113,-0.02017493257071962,0.025104194512766822,-0.20340619366530374,0.1338042947770659,0.011122954235699783,-0.07243918701500175,0.01385287354225674,0.09352470940686708,-0.47032725507164747,0.02054682495811104,-0.08190640752317253,-0.2015768256248029,0.1098188055397408,0.4616651237778185,-0.20444733394899078,-0.9977868444840547,-1.2121295424246705,0.11992576565456953,0.4427657676492497,1.1159739960247737,0.7806652639614664,0.1611161987045589,0.4945841525147941,1.4430309871068607,0.2798785440427414,0.6219154579675387,0.373493070613815,0.26756360254375977,0.7795444533298285,0.27706783084248465,-0.19012910410543096,0.4252981283021561,0.15175612602282545,-0.32087002647185714,-0.4500491707333591,-0.1200918032013743,-0.20128878634183117,-0.21013998542520013,0.02514630477602095,-0.0996274726849162,-0.13464653397497975,-0.1569979728044572,-0.1472436076755285,-0.06299887445449527,-0.09757876761243081,-0.05120197212576338,-0.12607748350951187,0.02927985660585532,-0.04122389556884376,-0.002786501844283021,-0.04635051176535644,-0.06216821101411052,0.050851698042495466,0.09270297866737447,-0.035775320036362517,0.024611469106544343,0.20882382396172525,-0.26266988939591923,-0.1588290337920167,-0.21130748158083965,-0.14846754896630693,-0.06912696001218374,-0.04690767213179857,-0.13416651179765543,-0.028837566786024244,0.012517551602455206,-0.22298198944907005,0.2148772276056335,-0.0673444951302955,0.007480344559703961,0.007484199948200579,-0.08099064598971178,-0.05066716438342903,-0.01522167135601226,0.04567903883752651,0.023936561579974317,0.019994532390637077,-0.05902854581345032,0.002435254372038013,-0.03949855781745109,0.06007733621042386,0.03903031662017711,-0.048351698618637425
