start,duration,0,1,2,3,4,5,6,7,8,9,10,11,12,13,14,15,16,17,18,19,20,21,22,23,24,25,26,27,28,29,30,31,32,33,34,35,36,37,38,39,40,41,42,43,44,45,46,47,48,49,50,51,52,53,54,55,56,57,58,59,60,61,62,63,64,65,66,67,68,69,70,71,72,73,74,75,76,77,78,79,80,81,82,83,84,85,86,87,88,89,90,91,92,93,94,95,96,97,98,99
9.106749534606934,0.9700002670288086,0.036050844288277706,-0.008762659467576123,-0.06065587690801674,-0.04583893149242892,0.024305283370421784,-0.2985564925950209,-0.19003645157753135,-0.16959465676729005,0.20954787687664114,-0.13218786121920317,0.03440497933601748,0.21413276623386626,-0.08674521792497922,0.14441840638126666,-0.06907370119638388,0.33210181475920614,0.1468614743238195,0.32240650284701905,-0.11887224339259603,-0.2556483152332355,0.5471215150739636,0.07185212953912866,0.05148895847907281,-0.19182264862328222,-0.18332231490249568,-0.010166359684928652,0.10321823028931038,0.4311023480049367,0.12084225145796662,0.3356687720897881,0.4996004099285125,-0.5381070021497248,-0.33392900562144673,-0.03926812219030898,0.03880101743063741,0.7696381491346819,0.32970868033403233,-0.9592690499091828,-0.903468885997517,-0.02432823453296519,-0.5427960154199163,-1.2215408027236634,0.23118605149268667,0.20016035967630277,0.6964186821564514,0.15219792095864693,-1.202279003806054,0.3238532234184025,0.3007772783679922,-0.6128286850061222,0.2855466937136123,0.7454991540906891,-0.026567030374137893,-0.2511714616117379,0.13219322821073837,0.07395641055827276,-0.053112017754970056,0.006598380553440046,0.002613665399005029,-0.081063537495656,0.07193333987900372,0.0078059352794474235,0.04734041844097093,0.1062226761055694,0.08784915340187179,0.13981607260559867,0.0064100051283955805,-0.022863247379575288,0.0048874213342788445,0.03416726261382991,-0.08638308299451965,0.019848180221768215,-0.07695182276821136,-0.15652679624762306,0.03233986197015085,-0.03830600395245649,-0.0282634757304058,-0.00782196074250444,0.049237177771863684,-0.06725446399278039,0.13417452410324185,-0.04307525772321559,-0.41648592854130717,-0.03788306192733427,-0.1428256187509125,0.10937593067946884,0.015423468703370868,-0.0006604281620938984,0.06862472479470119,0.06709946147599681,-0.0386285429483519,-0.18158337257712076,0.0456758442465025,0.008075777694574737,0.00808837019187076,-0.039951460946341166,-0.23286107656785024,-0.03693486406288507,0.12095922239169622,-0.03466531115306218
10.076749801635742,1.049799919128418,0.10793930141504543,0.13895061677616416,0.13857188189392441,-0.12557289605213826,0.13557562418772245,0.004585917959139707,-0.10566784918704633,0.04177901394423384,0.2816190377199272,-0.010112751094634033,-0.04292983264040077,0.10493036629712216,-0.059300910860030503,0.31590105092853554,-0.06834983130686194,-0.0702778543635433,-0.0030805763449176238,0.33707201551007976,-0.46015233216611784,-0.22445496671841894,0.021415358334144763,0.02980174248167186,-0.14153162301579802,-0.0055768250248154905,0.08718380280477786,-0.08311891630526048,-0.09798739114879075,0.11260879461610017,-0.448137329082379,-0.539715775841572,-0.16789846806874825,-0.05545509024155208,0.17105756600844146,0.3601724895744629,0.2095299444281535,-0.23406326963649612,-0.12456365289986335,-0.5648087277165904,-0.8788406731469506,-0.34203358945964585,0.26514936096917663,-0.6604551604839832,0.107057308679738,-0.32998732102275574,0.29296546336617946,-0.11631249910066424,-0.1686400625321829,-0.06518527854981215,0.04322488219586135,-1.039111180791654,1.1190217235445592,-0.024760206724603287,-0.1969374180368016,0.0013593227136000537,-0.00022747407760063953,0.010540531697831127,0.02695370216729781,0.02801078812401216,-0.0005444753893899519,-0.08737478879961881,-0.04101230410030405,-0.09869982338421354,-0.1484618157595839,0.12446779057676934,-0.006532166642599856,-0.04624311950576253,0.060264132235765724,-0.060771483326254615,0.002279585562339271,0.04961269156209199,0.17627679390330406,-0.26439455842508963,-0.20831948654753604,0.007911361789032486,-0.04616383007211354,0.0046224256443888586,0.04926590011281467,0.12685754040642508,0.12219742559356246,0.16150524036023245,-0.0005711674680997589,0.12580001696677376,-0.018402833125229185,0.02853636559096309,0.029580552545635328,-0.00015726213247981,0.05342573956556035,-0.08612382469258834,-0.15347090401559166,0.07598532832197902,-0.1104783314888654,-0.10346484479142204,-0.07081268318171503,0.004248672781595744,-0.025024842207423202,0.09853191692584504,0.05026579019932913,0.17158167419394427,0.0677545853828181,-0.1311740174769005
11.12654972076416,2.0993003845214844,-0.12846692657374736,-0.0577113221218417,-0.039951417621543646,-0.18429600057375756,-0.06815491681337618,0.10745712573434517,0.03723505418147578,0.25889159074344636,0.07755597351879871,-0.0527864511711014,0.06104916077244136,-0.09313709182225748,-0.052608330829419,-0.07674171397955656,0.22726040513197787,-0.17235245184938855,-0.09261387512108553,-0.20647016877159927,-0.10480816174961731,-0.26879443163217764,-0.022193191865016983,-0.3029979729624838,-0.12696256503689912,0.018862135386829258,0.026946475019235715,0.1398630764716754,-0.19110727642188627,-0.34447454966668695,0.03230616004931962,0.04741768586419338,-0.5451009467046458,-0.5103136139255808,0.25821568717990595,-0.2888458908298562,-0.036961668486979515,0.17772949199995497,0.01953666410645233,0.12820353394171957,0.10648700171963724,0.1919024889250192,1.7072114291662197,-0.6663973897868269,-0.4313646148130625,0.41228274193854036,0.021984793745632284,0.2594783950549783,0.7309501702555417,0.6860839526884771,0.11816653570900013,0.7770057926650382,-0.40542106183941895,0.07049331540106253,0.7809088377856954,0.339165827878745,-0.0033877398815052506,-0.05571906013011654,-0.034898463591086934,-0.027649387359377983,-0.13466325971452905,-0.029901070474769854,0.0945412303441202,-0.023433684593742336,0.07634737711700068,-0.032146483053661835,-0.1495602715646246,-0.1112568384964354,0.03042761206214892,-0.038186809141034166,-0.0660409161271747,-0.014306575157498377,-0.011140007415305658,-0.09239705576229236,0.09847579715925822,-0.00892629504379363,0.0029396002348233137,-0.13012781243173582,-0.05521616479473578,0.09120631118298168,0.07535804851746261,0.08030550972445036,-0.0437515148637472,0.09357023816518537,-0.010186079267516562,-0.05381096862218314,0.10709386546998856,0.09605748684589607,0.0846348916820144,-0.04450708450347181,0.04895122477379216,-0.07615074177470552,0.00073636971298525,0.031997332596633066,0.3245405213312425,-0.0606345816478981,-0.05464659693523084,0.056315648522464054,0.017601376978339453,-0.055507101649101484,-0.10174723739437583,-0.15385485203902927
15.146249771118164,1.0093994140625,0.29524731294782136,0.07488219131802909,-0.39815891699969674,-0.2074293972930366,0.779446067530944,-0.07397535604820062,-0.09474052105784951,0.0662268538094372,0.07829949911758376,0.04325391778770489,-0.022110334752501855,0.027882876584827975,-0.014609962315188135,-0.01621276928503078,0.120420977490761,0.09804807376520334,0.5123403132893133,0.17967626010533236,-0.25362271566246236,-0.39816291962467987,0.003894796457995472,0.07561615491109254,0.04523852322396092,-0.053570561574037966,0.020636113875648582,0.0987721603031039,-0.08928548391146218,0.09098710037862608,0.02446280883413872,-0.41309272987752077,-0.02565207144687849,0.37762944156731665,0.30918431456321094,-0.10703669047844172,-0.25748987619527436,0.29181567998313285,-0.21970197064530245,0.545550507904402,-0.08513229246444849,0.9493064359043419,0.3595105893205799,-0.7967216048617692,-0.45708643453274955,-1.6836056287781251,-1.3595103731799216,0.4553171000170628,1.0633463871950992,1.0324280918039417,-0.09877071887989015,-0.5403332371429952,-0.7921528701227227,1.265154264629667,0.14563107502889866,0.04314961635941178,-0.18075445833945952,0.010005472258733812,0.037691104731109905,0.0191038327353846,0.0017131956323181811,-0.021613982379303318,-0.052221542829882575,-0.044718032426578735,0.00030535219408041716,0.11854494278012856,-0.049019353070501696,-0.07056114780250976,-0.030373349373326163,0.06446532539860829,-0.02423575964362599,0.08037277216669483,0.012138857411155562,-0.12381626571085441,0.19751299551804904,0.023813229194284923,-0.07787840540640423,0.04635480667190626,0.16341258572070602,-0.047307275745128455,-0.059549299670042105,-0.04338657889224956,-0.03923736689540665,-0.011535113862506066,-0.11294281612504524,-0.02525884954585261,0.02624733363350715,0.025511386468670186,0.020448352571440568,0.12886233447915602,-0.022212961834145714,-0.009557350844507167,0.09968641855919647,-0.019311278425525828,-0.048877583441866795,-0.07472453123665254,-0.1205062642289423,0.008143731283882169,-0.09736374806466623,-0.15495075362574617,0.0029336819750030024,0.14694207783721272
16.155649185180664,1.0195999145507812,0.286203502446099,0.21577552531657365,-0.22477842306034979,-0.23477000658598973,-0.0842613754723503,-0.14687916567282677,0.12940111950587363,0.10141152125921384,-0.1380893059197468,-0.17531623758317538,0.09929190411321312,0.015530874365350559,0.05664636649045346,-0.3804346436532563,0.05798621555995622,0.33945344062875044,-0.5042614953879883,0.3463663708630944,-0.17766933560970755,-0.20792202174871072,-0.40903256199525917,0.07141308507437041,-0.1970481102996923,-0.12866841687859432,-0.030929337030679967,-0.18073223469853583,0.08932238281050102,-0.0665691102922076,-0.06436463528194275,0.031305610390829755,-0.19169535126264586,0.11662011517057924,0.20399656870471888,0.1569129327697643,0.2042722582849212,0.20509336370231082,-0.12466565732968865,0.20096197812817507,0.11143245870587407,-0.5050133340723006,-0.48103629904544565,1.1964306382559347,-0.41303328699163033,-0.8392708749817624,-0.8748773500212133,0.6621242721326236,-0.380121559867138,0.5722132442687577,0.2480697423837528,-0.36053356362898664,-0.09931792539646926,0.6947871807555331,-0.02540306201301521,-0.0019317691771243428,0.008451350386391412,-0.04790063950640474,0.05460238826957489,0.06680972672917475,0.07197401317448825,0.041596467365083135,-0.024171193462297146,0.0378105811223329,-0.00934220416346938,0.04483656877518892,0.04439017478181661,-0.04470510263501015,-0.004373756416078097,-0.08370554191344327,0.04639467674086082,-0.0370785896083462,0.10646008500428225,0.1363326531446565,-0.039090691153990054,0.08775405641344813,-0.046525454377827694,0.09088887383847825,-0.015755681366845384,-0.006897095447330295,0.029436116003738085,-0.035591055492957734,-0.04100062223222779,-0.03871541022317456,-0.031911439447983206,0.09740561881710581,-0.08234049185110742,-0.056792705520951565,0.03361048393322268,0.014213074110306154,0.07080804406733684,-0.030362958202220746,-0.041172640720311064,-0.019843091023091536,-0.08359188530885053,-0.036730329276928125,-0.007643575665921817,0.07839874453365288,-0.0625063220021301,-0.05022417199903072,0.06405020025653888,0.11939087972304416
20.27535057067871,0.9995994567871094,0.06291229059260905,0.3741254704239182,-0.2917694063477318,-0.20918252070597174,0.49239132860807705,0.3641012648056858,0.12018499212866189,0.023932469052824146,-0.10000325213951991,-0.04684170200795634,-0.08861036811587747,-0.016738685534080967,0.05763534924438345,-0.007370646194963456,-0.0626893810350016,-0.17633053136433074,-0.09695103119340882,0.2909161105609304,0.49574083258874263,-0.025287481438366705,-0.1069673127421964,-0.2668664474135778,-0.2084643355052293,-0.06706004289972008,-0.23817937437187958,0.14908134796375333,0.0538022408242185,-0.24560269876047425,-0.2151297151113665,-0.32090321163669255,-0.1328113171015861,0.5075838024013158,-0.628309576246923,0.18104480869191392,0.025428163544155436,-0.06863478118637159,1.009944877434733,-0.6317004588301678,-0.20249539263068453,-0.35371684651907465,-0.3211602283000601,0.18203269299206432,2.3321902895892084,0.5805943828485495,-1.5374122024061925,-1.3006236701989229,-0.47780300916554874,-0.39243695603068707,-0.8725365841985508,0.044855986520312086,0.5700030595129754,0.4373915775311248,-0.12509549458261526,0.18834486630136388,0.16540938612220568,-0.006365569057858547,-0.011239264765765835,-0.06662640151868222,0.039188443401151844,0.0570095442561082,-0.12076703361389725,0.09119043815540961,-0.20144905283958714,-0.15776150869612238,0.1274358395529893,0.23490825842871121,0.3911695745320003,-0.05543799178020927,-0.031290990752328496,-0.041962261435223316,-0.010196102043122513,0.12260861170820019,-0.14317159814801042,-0.057515456104128594,-0.021366915554584906,-0.05987492474277318,-0.017512911654189764,0.005878947256936068,-0.026629717035898653,0.14365583526994036,-0.012793094266525543,-0.051452125597966095,0.07324275206063141,-0.0664976150217945,-0.0685505495143103,-0.09708498949384074,0.026664133558435096,0.16930246651810862,0.029597326810826798,0.1332430807385489,-0.04511301769617758,0.09439445661250509,-0.013496493243296628,-0.09071912287889357,0.04091969494809425,0.08278660577904651,0.01292740012409504,0.03005530245827286,0.10117785183187031,0.051661640078297884
21.27495002746582,1.0196990966796875,0.05839159322704676,-0.02877915805031228,0.024840178310858337,0.10388171017425431,-0.07236857369501508,-0.19470274249249922,0.08201508875190745,0.23317559096632892,0.16421467587775196,0.12401964443239677,-0.08477046468609137,-0.06825891679053508,0.08300850932445547,0.04963763409451168,-0.018078939142548395,0.11527479918744041,-0.2067893783047611,-0.07342381310300308,-0.295599849350286,0.6754635309194815,-0.13370551661236732,-0.1320896771046523,0.03804587370695084,0.10615191820292227,0.3603012929463441,-0.10984455927907985,-0.14036126770105317,0.022854888254277894,-0.14747534178336666,0.5640607309410273,-0.5342802505528661,-0.07446431596487749,-0.16386432789413746,0.15186153191175722,-0.37260997280826424,0.22278244854086193,0.5419269412923666,0.1135849762546543,0.4992863528443586,0.6070904212414306,0.39839388305595835,0.5448288492852631,-0.18472365216855416,0.809077457384859,0.4033917242189671,0.054801475142408615,-0.9655654402490494,-0.34628863141345834,1.0949354101247708,-0.617840288476617,0.1505304268515609,-0.030958841019747736,-0.055035311762889616,-0.007610889208173496,-0.04720875510764505,0.009496520726959291,-0.004469853269787716,0.006917953725429289,-0.029550056193070932,0.04439832437378448,-0.10817879136153585,-0.02371439585512687,-0.20710997554215332,-0.1516041744306278,0.11526511086170835,0.16315085131465168,0.11304006323338864,0.003110556649131266,0.0023194013393300576,0.05600047037574631,-0.02567518641172887,-0.06285439235418308,-0.006254888155897933,0.060103604640891824,-0.007141115553675985,0.02880598436286534,0.014283275008655972,-0.06039184005215309,0.04814258294445717,-0.0231385370935272,-0.06452040007817297,-0.08981298197080417,-0.10158986482410934,-0.018177301138522756,0.04101838500717986,-0.02762467347469468,0.05962488354601089,0.05686626948623018,0.13618411499675628,0.041440659259188856,0.009115289369711567,-0.08982261889620295,-0.0661072790761698,-0.04956820382764668,0.002131619093391585,0.19075952610981572,-0.10386036811300835,-0.12926636846022072,0.13939798104535392,-0.04090118061798431
22.294649124145508,2.0600013732910156,0.09307365352701671,-0.05442350546206648,-0.5788350286800037,-0.10529429093204,0.5189832070913164,-0.060734584311838764,-0.3244246811185624,-0.15492384001416182,0.01787960993403881,0.07883314209382007,0.08953510941538254,0.006682482496690359,-0.03330094126570926,-0.023685116966637353,-0.07893368436707845,-0.06514996189557361,0.42071681339413725,-0.13823859915650935,-0.40495269514619014,0.23630150537770164,0.04410034313785255,-0.24549100859482176,-0.018376465733578193,0.05262895175815365,0.00659001263508725,0.021160718273814355,0.016703529690652086,-0.18253224627240933,-0.10529781575301014,-0.35070327617345676,0.31633331069785553,0.029610753649615296,-0.4208039739136299,-0.06316017410530139,-0.23070553839326763,0.08361103822102814,0.0036908435699836775,0.09911368837995677,0.09091538673547157,-0.4057755638845809,0.748133812018187,0.33578014489696834,0.6902603441167086,0.38169948099744827,1.6663010246089431,0.37158183777693865,-1.3366861574904247,-0.673692541969328,-0.942431578280169,0.946174667838608,0.19383479755866806,0.34704826713939263,-0.22115445351829882,-0.05449525468620375,-0.12245617803677798,0.1321876586824556,0.05919365646235991,-0.01688769463358397,-0.007447845025039386,0.008379005120256633,-0.023872301569865473,0.012308579746187976,0.04378789358333021,-0.155651808145472,-0.11099237811474517,0.044450161984025766,0.15842544586362706,0.011729596900506858,-0.039299068279569575,0.09367152476043883,-0.08938197569499642,0.02431052913572447,0.049685834537510735,-0.07586090490257479,-0.003628043037006854,-0.00044257429267846853,0.16552378026483733,0.09777333590939172,0.027659704118084792,0.06294285860528213,-0.08247004901348669,0.07139342233834044,-0.02938254581531192,0.0948202004020448,0.014501531314745698,0.08836454425822043,-0.0005002402041353434,0.030467510136733655,0.22486518731764324,-0.02289278952754656,-0.14059838102515188,-0.053089977509691536,-0.016755353773604067,0.018053721102344808,0.023260373398520145,0.034701335145582615,0.025563741781550468,0.009720083504041396,-0.09109800624473184,-0.12159478290411797
26.36414909362793,1.0300006866455078,0.17777352808759675,-0.05427614193281152,0.1282485490655375,-0.029524328527653087,0.42903002819111913,-0.05026112666266548,-0.39056819226681067,-0.14732790704486165,0.05832106293663474,-0.10254994790413192,-0.2792245887997586,0.08801802632879227,0.041610305940449455,-0.1083806823528453,0.07298247712743454,-0.1875418339410153,0.26724781743695036,-0.25051617198934206,-0.1727032889248507,0.319315629462986,0.13366715029857074,-0.2905619031822059,-0.01964538713145101,-0.04374757644323758,-0.12488284948478325,0.21404101158819347,-0.16507739172546804,0.713659251640109,0.17025880521912182,-0.21090232131023715,0.7170459458941381,0.08039178469506653,0.17462816219021435,-0.1973714704857528,-0.3557754206436825,0.3877036911295786,-0.5321706358571385,-1.3365716458692751,0.5891213540544038,0.28162357268937244,1.3242478647017235,-0.639353933621052,0.20880712844907712,0.8022194367602906,-0.2969481690634404,-0.018507728785686343,-0.8901118967802835,0.1495266449091364,2.0713255746637746,0.08544744798541108,0.6284734351482788,-0.20391534225025673,0.6671493090088085,-0.14094359972784254,-0.02832948125554173,0.002586159042863065,-0.1265296894795278,-0.052967046539378546,-0.05804031545705769,-0.02730171586717295,-0.04913137927770681,-0.12509566937542999,0.09345244591775402,0.09635757175186943,0.09272320912748987,0.12364214083267762,-0.10389170854511269,0.20160114948198865,0.06042968866301482,-0.021443253567382192,0.19744283233515483,-0.13329184333796007,-0.058482321168365076,0.1451105801179124,-0.06400964505086852,0.017308245732918764,-0.0233657314497502,-0.005762893776444492,-0.0811548716331969,-0.08960142882944563,-0.10136972362460642,-0.0017034378083726001,0.013589892867847923,0.10701792920290382,0.11629115905544204,0.07812174516316892,-0.0635569409220197,-0.014950901104633218,-0.019998446819526696,-0.11993583144442695,-0.14761158783233097,-0.01600744106367441,0.0029913910302897598,0.018184308181661196,0.040221335365909563,-0.11611197554646413,0.0441077559771145,-0.14736967025628378,0.07007913871797808,-0.10344851521642182
27.394149780273438,1.010000228881836,-0.12194754588014192,-0.25575583358587095,0.40248650783344775,0.005297783260769337,0.07015948832393058,-0.22534404510120531,-0.07566496650382047,0.11957495459231507,0.20632016260296643,-0.25893045236439194,0.12780895968980208,-0.130096550270508,0.02543106699966101,-0.04705500294788163,0.05541689445665128,-0.40014626660299857,0.2653641005637511,-0.6529725706797134,-0.22763740759926898,-0.08887615031465276,-0.07457826106000523,0.06551083837489753,-0.25825177221590234,-0.02013956175489857,-0.08295661215497929,0.3597237610723013,-0.04394438422585201,-0.032433751706608775,0.6986687912859043,-0.0620861457474976,-0.16438601635496009,0.08403787034186329,0.14917987397522647,-0.030256499275419572,0.3022153914741284,0.027425771313635994,-0.2661740415943294,-0.7246035883581823,0.1882564139963408,-0.5356684282483261,-0.2508799535945148,-0.22645990975751207,0.3413823116612089,0.03139310437980275,2.1699309094633663,0.1986396098729883,-0.3171055396089752,1.2804659186438059,0.07076530603533959,-0.3553741682112332,0.020816469420632866,0.14621420801117424,-0.18989429288300913,0.02181523046728857,0.00490687858448112,0.00023007410493061653,-0.05771497437441018,0.03250995548092404,0.009954078108237658,-0.016655638195502434,0.013593134166759502,-0.10880542387294194,-0.184919158074594,-0.0656156137659863,-0.0575091154444191,-0.16028690820480604,-0.03695327333278248,0.08954592764091199,0.022486999892713844,-0.02651588827375597,0.029273994258301517,0.013898553070039718,-0.14400966437820534,-0.01790738650183951,0.028790828697059043,0.04310080652037323,-0.008214302580527497,-0.01061048745730325,0.07476854007570524,-0.03492067453964635,-0.01962655112912188,0.12384679007817934,0.16692678263508892,-0.02261949354178598,0.03601663241887556,0.033384927745446866,0.015542496071847692,0.06644896126362176,0.009291614153496996,-0.025267450459113612,-0.10771147339976966,-0.02507012629791034,-0.08532576795899806,0.05764744250630309,0.04031720272161537,-0.08579073814275241,-0.08437972364253392,-0.11893687696491065,-0.2596445573121107,-0.03937981008803737
28.404150009155273,2.0692005157470703,0.09670022007930235,0.24778041812299664,-0.22923454829648038,-0.043819812226919955,0.3691291456259703,-0.06983956671600619,0.7020302299609655,-0.125708787646496,-0.160325909323262,-0.059259158073661056,-0.006578279724599184,-0.013999320819620936,0.17690648119246544,-0.18485371129991712,-0.1340822795895257,0.509789317161845,0.2423565886326487,-0.040574993249849825,-0.012020482318876502,0.09093483008686377,-0.8645127148436934,-0.03514841561880919,-0.22827830713798472,-0.18976695337152918,0.21694225212288987,0.08800543324203572,0.15639953251445696,-0.37261102380510436,0.052879274284862166,-0.24240756097060384,-0.24300794520821478,-0.30792728792869445,0.09554818869699913,-0.2552677394701178,-0.6164631365708434,0.06237788998144622,0.23753549794778328,1.0776009660791406,0.384660067990128,-0.2118656447204123,-0.271010266124687,-0.6652236001302145,0.253167194732778,-0.054987737981136785,0.20098759433305716,-0.7548854329553844,0.7920582522155274,-0.6090708040941835,-0.31011936422878855,-0.34682657708797937,0.16326503728424174,0.024594434487674382,-0.28667795294753207,-0.13147667405251348,-0.06456238882879067,-0.09029107133610825,0.020013039489229938,0.007628283617368728,0.0005176223047597701,0.008558554977543858,-0.05967895433935065,-0.06720389908847933,-0.03475576624029518,0.023350971041274943,0.12191244044543596,-0.1442761898383788,-0.276163487111306,-0.01732191305711031,-0.04606640004246526,0.029515463175869165,-0.13433371568917346,0.07336966346500427,-0.04534156811154634,0.09398572936981783,0.023755954257382816,-0.026240202081614553,0.002840568226715301,-0.00043457269522343127,-0.0060587956962127,-0.010737445457057043,0.010014896299173305,0.17440170600095936,-0.03516482407572359,0.05048758693018782,-0.08540423953007824,-0.12764449767223462,0.11349782184896676,0.039181257119816446,-0.0889875968643603,-0.17067087217956795,0.008163954702811869,-0.020386910337239807,0.0071434967880419885,0.12906890351164144,-0.0721286533958783,-0.02590282534376632,-0.016617223282287385,-0.021739176073073404,-0.058460714657486076,-0.07233796945798446
32.533050537109375,1.0004005432128906,-0.0726535150454124,-0.1164410067979616,-0.5812269410160863,-0.0025388319852738817,-0.1895104278963753,-0.027127273251897732,0.1670983881107087,-0.046923043056304264,-0.012740061912692977,0.005802754166408971,-0.19210327629993784,0.39829349846400947,0.12546970017549897,0.004916193936555473,0.022808252650523605,-0.08927041113314407,0.015305351349506197,0.09528847969842145,0.13296732748689255,0.19055742789023883,-0.14424987654305974,-0.17237666474401955,-0.11532922953965222,-0.24108874970617383,0.6611127262290645,-0.009083466853191668,-0.050592225811536884,-0.09806647498139497,-0.1376663256918788,-0.14590403088165305,-0.079213965124179,0.4820138953283461,-0.06064056183476206,0.26024755080040385,0.012258671767832727,0.05652541264035162,-0.04529280878388665,0.7766551249394937,-0.3246797967586608,-0.6753009420162122,1.2319262284286552,0.3231387506969076,0.7351062720141327,0.2477005376002307,-0.7206675159671156,-1.1942045446251073,-0.02359076673292814,0.7172267862547721,0.4471686630972795,-0.44971810122284656,-0.6568559496329135,0.6169697199696691,-0.09637708112659266,-0.1662613112069794,0.019632685815664967,-0.2879293626384287,0.04346700750763867,0.20502664176435983,-0.03823330244557244,-0.12411889728052083,0.009963193406865242,-0.051504379095233,0.05665422760245213,-0.12675976809675737,0.09638696280213158,0.149893380590214,-0.0656656624487619,0.017387305749988632,0.1024743641120935,-0.043200466606276244,0.019140984473395583,0.009920272779995463,-0.014662562076492714,0.10555209622615293,-0.0060833920298353815,0.0023968621381261026,-0.023630105271151555,0.019303344036745745,-0.03433310993651106,0.015194221412176015,0.08957898592324735,0.05978377707665106,-0.050176532988954234,-0.05116331148308198,-0.03224254744173487,-0.0049257888388847945,0.10861877270778145,0.003005101496672319,0.10642266967005842,-0.04571041028769326,0.04433666127447547,-0.01873701343916151,0.018005938813855583,0.009259700862161324,0.06583418543796794,0.0908475756180779,0.07413348139024095,-0.2209017746721314,-0.07802472216162133,-0.050208829771516125
33.533451080322266,1.029998779296875,0.08393788505133787,0.5513811173972665,-0.1633989550537534,0.7285048921044075,-0.09559683071286583,-0.23311578846781442,-0.10133341972277791,-0.19822117835663114,0.0004787341959646939,0.2215418333675592,0.019453757194705767,0.06673386916178732,0.12879758062644536,0.05105878343643884,0.26977351186197013,-0.1349359001108883,-0.06549163812291546,0.07818965106001366,-0.041270864778518074,-0.17505394829612822,-0.281628715065651,-0.20649319179940467,0.11615407816799762,0.11231810923813121,-0.13039163650453403,0.12929738570156582,0.27473361804406043,0.2997150355783057,-0.10207667467605068,-0.15258592268282975,0.0666443981623407,0.3160279507407543,0.1774019624061766,-0.24656779334736265,-0.11042142986568008,-0.1453197945132012,0.11064084263974087,0.07944045514941346,-0.35833295615582433,0.7703737375558907,-0.399588594695625,-0.21955772275731814,0.3475031492513826,-0.28285839742192265,0.09570606447783414,1.0251698398777311,0.04424919009229428,-0.840835594462046,0.8547595981055067,0.04894395308869641,0.1710773949838113,0.601795997507037,-0.008240051999605785,-0.21582587999864528,-0.11978378100098641,-0.0003512743776491964,-0.010105791502771312,-0.007824160109445043,0.13825660747108723,-0.016489530245146912,0.02009723770433488,0.0818487881761128,-0.1364886064582625,-0.03642126157840268,0.05615829081874052,0.21842273324534023,0.05873298400057195,-0.052102122267772645,-0.05724574697666511,-0.013145573691563679,0.19211630217223227,-0.04400833467565016,-0.04691641200636805,-0.087381558286104,-0.08388745679133694,0.04463620254297762,0.001225507367647714,-0.006187178288016517,-0.06475002169158282,-0.1095782227612036,0.008286662271732175,-0.033094630028521185,0.015860062725360946,0.020147293294952018,0.030434724387562145,-0.005140531228647669,-0.028750613852385257,-0.05523799860403497,-0.06856383594512735,0.26018795574875003,-0.005799703415941396,0.0921659214337981,0.01803980233655658,-0.03974642588036489,-0.05366123423295962,0.13973419646279095,-0.07713414227728065,-0.09344843473430445,-0.1504497151848042,0.013536764623562986
38.74235153198242,1.0102996826171875,0.0602682984615079,0.45881151040923995,-0.24935828776078633,-0.034480784954121706,0.904038837261727,0.13434939598452242,0.21950642109493473,0.1524732258691456,0.08344538525729948,0.014115030998242371,0.0515666500638092,-0.009466415521176316,-0.09313276150213735,0.006966795653630989,0.11907004922080647,-0.03133980453462188,-0.1351878740625341,0.038560098351079625,0.007077174508664588,-0.04526740658764025,0.2904659779284571,0.017541570768825274,0.24862080634776393,0.5607347051394929,0.5690513588657544,0.47339478010944097,-0.011978285956559226,0.4145078768246322,0.14971352735886775,0.2378487873819744,0.028484175592401434,0.015760019480980464,-0.07946323879973921,-0.32620816640194744,0.40629884611420675,0.0583610531060126,0.19683256825452417,-0.5818566203327009,-0.261029102416829,0.10946140680861542,0.6153480651385337,0.22925370526806177,0.2070953797729238,0.6232674161592905,0.4882668294701065,0.2728237768115931,0.02757842108469777,-0.39469192887166976,0.26596599191661635,0.13786278650642106,-0.5766282991061943,0.23402734576291248,0.13588307441749792,0.08713835366122562,0.0635790576536944,-0.011001776627507037,-0.047268963808444864,-0.051243472692301534,-0.07508256155676571,-0.03151489218211117,-0.03925214857866667,0.0010542617878701826,0.11196394484554295,-0.11734951559726736,-0.16817862887009144,-0.17114388062437239,0.03867514457543231,0.13385919458196635,-0.05978888628108509,-0.0048782302679177495,-0.05812938915635513,0.0008161546878842754,-0.02062105260686914,-0.06802664719624683,-0.08652129114628934,-0.047087139468121625,-0.09898365195754538,0.05404983461774135,-0.03165968962693551,0.09014714119654445,-0.051564217865412286,0.01229395152186133,0.08456463318578995,-0.1272968665588629,-0.05435479103382074,0.05632042197297116,0.00298977225370005,0.00123272885399068,-0.0016457854016751967,0.058099246401740676,-0.06388291425041037,0.1455460820115649,0.05374285334101852,-0.0027897973380269746,0.03798205367140484,-0.05483002000232238,-0.0726210420746654,-0.0462085463305513,-0.03866610790195002,-0.12781620303256677
39.75265121459961,0.9998970031738281,-0.1239580594002824,-0.09364741642934722,-0.12531659075561769,-0.38768922429580926,-0.30501573438176105,0.055850026003839676,-0.061799123516903164,-0.19603186605434064,-0.12774021273282496,-0.19231203089503793,-0.15620739832661185,0.3115609310515708,-0.1724607832797967,-0.2883077643169003,0.013500215742455851,0.0845208179663746,-0.1618522842203747,0.35581348751131575,0.30856368091053415,-0.13092541082164363,0.087866341868509,-0.05562388909772073,0.12667431449274233,0.3035627373667198,-0.13196131396439267,0.1964484423049978,0.19437943759763945,-0.021842691329110042,-0.5639445248288324,-0.18905233477561337,-0.012542004892093329,0.051884403548423746,0.06848973645982206,0.20936378075365575,0.10517891698038294,0.6163655975367659,0.35507487674552873,-0.6040606214736904,-0.7292059683886318,0.23196203280747224,0.2521934632001815,-0.8045977920637224,-0.5970423742700457,1.0832614777299667,-0.05154639086903215,-0.5057969548780358,1.5096374902158498,-0.004253608544110788,0.41835598287613646,-0.24130902562370743,1.175935446281276,0.8423928505875655,0.08651976638260969,0.21662323280161613,-0.27732740771353337,-0.16405417061138738,-0.044125607237801436,0.014714671716736053,0.03335488510650527,-0.019991731963726923,-0.039734650763996356,-0.08192158725031279,0.030960152425297247,0.07324829647665229,-0.07086422750705244,-0.0015030910328332064,0.09281652188418807,-0.1922269912832297,-0.018651514468815498,0.056591724083531095,0.056475921708173775,-0.03281121802441541,-0.010430170982241062,0.1783475669157166,0.04439740025309052,-0.09196596813480022,-0.02815327822502896,0.1127983795137022,0.020202502949983842,0.005017493397164464,0.02605383959498984,-0.022594858048734845,0.05046644117676636,-0.07524375752993993,0.034825925702848426,0.04760781280381721,0.011349466584908444,0.0511933124930364,0.05457595616837483,0.03200198803085279,-0.09033136463655525,0.008221695224977572,-0.0934461408085818,0.0013216230953957053,0.05030404608480098,-0.08570274424195347,-0.18402172882177986,-0.10436891857395636,-0.06924074448360613,-0.08821083650432013
40.75254821777344,1.9296035766601562,-0.2260647198072424,0.3617979317835255,0.18379466626256036,-0.16109879109403705,-0.1079338853498882,-0.5121261667203383,-0.2009082679183659,-0.14461010000928093,-0.17820041002068734,0.011229639854454607,-0.14376345389661802,-0.04113220049933322,0.0036751256777613622,-0.07885154873385077,0.04642299016598077,-0.10072318615511681,-0.28195304775568897,-0.44277720693629247,-0.5118704517350106,-0.029750925635749194,0.05608850596658692,-0.004547634846034,-0.05640727733872809,-0.016559169860138487,-0.08518368548629394,-0.010001918913060367,0.19942873189179444,0.09739737999607181,0.24654152846373006,0.2564540138772616,-0.19575589292643067,-0.10031442471226479,0.21986532922965263,-0.18051231452993027,-0.055273034618622006,-0.02404623855275348,-0.24870729787946474,-0.08749920363429237,-0.6718729753122337,0.0792210236275527,0.7444536772682093,0.2584424351497026,-0.3821171822785367,0.6476705710784861,-0.6834568199653843,0.03399199459085609,-0.013415235239509965,1.266805721311354,0.19672075115811466,-0.03504707179177741,0.2744643990103255,0.3851867955499133,-0.0693882622058846,0.05154037164265356,0.06951851345966037,-0.08487413973476317,-0.04097736760469842,-0.14087924626327242,-0.038855771571823954,-0.012913476367697099,-0.004389935094570516,-0.03727379883817312,0.006806491215609934,-0.037197177155173344,-0.005656176800464742,0.1192622581249924,-0.15941533288473722,-0.026221707265533536,0.021997042786786568,0.12241911246005002,0.2735072784528747,-0.13703191165662473,-0.005379201954830057,0.05805483944522597,0.036038581736472106,0.04297611231562745,0.005427264917985914,-0.0355650275008126,0.12602904923154895,0.029657373379580094,-0.08734909588617235,-0.0756952401014255,0.019465091290671064,0.00302943391425435,-0.05186725922148325,-0.04468543673912258,-0.01250750677621627,0.06826888955125944,-0.08945310605267967,-0.08360955991682142,-0.12713334520696568,-0.13588778182331065,-0.013731503153417311,0.02947335488520775,0.026319816301748775,-0.03057482210081259,0.034484339294778704,0.0252240981075898,0.02407099310608596,-0.1111757959338911
44.75185012817383,1.0097999572753906,0.29313082258577977,0.2403046089837502,-0.14238243295403347,-0.01594661319986756,0.016941014262207857,0.4504536752647519,0.3205869189607342,0.003982145818444666,0.06166354330618695,0.2677327713755894,-0.15102890270499128,-0.04639929397495751,0.26048579679832407,-0.014985621566777123,-0.0026088912121475976,0.1727609292804639,-0.027043963808362798,0.15710292400397835,1.3230879461347826,0.011628176791427799,0.31872408823039144,0.03667386810383286,-0.007139949770814404,-0.23056747177466025,-0.3671889697805787,-0.827953076627,0.6513024518862427,0.12483998176635265,-0.3904401872533091,0.14135030358520367,0.015843385823380837,0.2186789830687863,-0.11246880159401569,0.6933479844502999,0.24942098271807392,1.0164462762666036,-0.17464172688798477,0.5389481272531158,0.16176473352749615,-0.9986613851625112,0.11394748137786531,0.10832907478881543,-0.4597496401492812,-0.6063389433296301,-0.8049795592412959,0.012785349549553848,0.9592137278015972,0.14836390201846306,1.8323748565100266,0.11746209789635109,-0.4118506943533354,0.3709357357694549,0.5633645862130882,-0.36172712758809183,-0.23618953291729466,-0.0954036242699414,-0.007184821383776167,-0.02066501265222983,0.06730532056361754,-0.08125755273921806,-0.011615867043680565,-0.046622889481377786,0.11239763347033987,-0.12246117050878386,0.08904425455903713,0.38671112563869037,-0.02629958643433762,0.10085383180666502,0.030059757165410705,0.044040061389632665,0.10452745018666333,0.01617994010703098,0.06491919319899839,-0.0026318378060545453,-0.048699029659953104,-0.06548142429439587,0.010146606972559886,-0.013450246550029027,-0.03748546985003034,0.013494272867613373,-0.11988851694166053,-0.05169123622764467,0.0021796283898037425,0.11927762064336472,-0.04886024392082773,-0.02249404851643504,0.07482019580227452,0.052725028209323545,-0.056562593763744604,0.06080043059493231,-0.0028727312550287324,0.009617565765430061,-0.03473117021555845,0.0006428132333349754,0.055094620432267975,0.11068688121446217,0.1091166920875931,0.03142812253682131,-0.2566572741409013,0.04604942706647164
45.76165008544922,1.0298995971679688,-0.08025952676882298,0.03136121830342249,-0.08550782294384983,-0.05280758584167684,-0.20693915587060646,0.020128331669072873,-0.011569980563718142,0.11870092316397256,-0.011572390519412858,-0.09475007615462593,0.3342394312873208,-0.11621090841679184,-0.1011604009425172,0.0022084392062080823,0.03016262390941679,-0.06317805863097511,0.09050944802400257,0.17029294890448085,0.3069660543528422,-0.3748653773256033,0.18101620117710124,-0.14962156784668612,0.050818913384660915,-0.13976014093802708,-0.3973807925057106,0.19222100961818184,-0.418749740851441,0.0024491830431848036,0.05591349062711096,-0.034180824627396626,0.21081622146636284,-0.12742289298360046,0.06769952205673756,0.04926668934529433,-0.18786096017851583,-0.07548549596815118,0.36199760895249167,-0.15075796787288198,0.13656189564938467,0.3365939358092048,-0.27582219326709456,-1.2317272839551061,-0.6392701697624565,-0.18086993429432635,0.720267326801092,0.8486047227415856,-0.0638233662331808,-0.709122270102951,-0.6406531481894865,0.825700185169345,-0.06657926611879877,0.6098776706151952,0.45854618028562666,0.3264994360598119,0.04312568474985062,0.05907094200051951,0.025622260333141664,-0.1749499050576852,-0.0002244550113532414,0.032588124570864935,-0.014322370278826574,0.020145487722408567,0.0005643688457962464,-0.008997730255168,-0.17433335407321146,0.04984952467021441,0.0416493511297092,-0.0890200003152416,-0.017881012538800322,-0.02281844923650302,-0.057223238552084096,0.035162148788747766,-0.03920809272693256,0.00327720575390489,-0.01002168547308082,0.001916233910779594,-0.056325385099239525,0.04643370931417333,0.019720409842133767,-0.013706927033349262,0.07447037436771833,0.038222964193077615,0.035861662030746644,0.003752344660680246,0.016801895350617504,-0.018797119810240025,-0.007785717249525141,-0.014071115563612223,-0.11258110399900381,-0.03868746770612544,-0.033678759125952,-0.03408022691350242,0.06941282801703459,-0.027617046975708562,-0.03080225410456581,0.039424209187592305,-0.048287375797850994,0.07315095117647494,0.07806457960685809,0.06779417568975822
46.79154968261719,0.9799995422363281,0.050809867609716924,0.11995447882278405,0.18677247767970945,-0.0748511154324181,-0.2356847016224847,-0.2920925111589983,0.033125558796384603,0.025595566758239676,0.0894948919556027,1.2219258287393868,-0.04860157736675188,-0.1574970267122937,0.12029588648126824,-0.006425508249273607,-0.0217818240016927,0.05574545694663791,0.6178361842232472,-0.054962719733082234,-0.21585480047444744,-0.3199635121120738,-0.10449195033324717,-0.03150725816685725,0.2577423767454532,0.0742260093355701,0.05027868050386529,-0.6715857913845099,-0.1242445308236936,-0.24487787928921484,0.1295751903028905,-0.21150439809504845,-0.020882575444463834,-0.15280187813049106,0.3571518467452981,0.060171227532972604,-0.04878276648517766,0.06609247604200319,-0.023988966453057814,-0.20830480780665325,-0.19529680641490066,0.4529456140316251,-0.04984296252699391,-0.2712406767939277,0.18791723553341874,0.8812143089104811,0.6813902543187715,0.4635952410195202,-0.14644887575232501,-0.22315411856243456,-0.7379745804293166,-0.19004410292325558,0.038517663023148935,-0.15190917441989527,0.16292260646901252,-0.06786492542631817,-0.01109487039968834,0.23202142936024467,-0.021192756278645784,0.016841916648722616,-0.005209819812608335,0.004594229480884907,-0.05462536652365864,-0.010190353671826054,0.0156674164799864,0.1401277034539063,-0.033121160799818423,-0.10989905216159318,-0.014852632793902365,-0.06777047290199467,0.017159800261604664,-0.018796223187618658,-0.12086332243007186,0.015164556136848577,-0.030402571933277764,-0.1141898586345059,-0.004641596752147276,-0.04685725578578091,0.048654502513536355,-0.032119293204989366,0.05388113255918789,0.12865015467687665,-0.016932547681144345,-0.10499850721842242,-0.02615603037416824,-0.14337225377937213,0.046325918050923995,0.003649076886941314,0.0033576450519781087,-0.011030373039788583,-0.07362751547820373,-0.10480499184505815,0.03331451244927075,-0.016704016087149793,-0.04295824188766764,-0.06543057604112805,0.13792212969541445,0.051612130972116775,0.03860590847543238,0.03391213451168128,-0.5960978764600755,-0.20547052223412526
51.82085037231445,1.029998779296875,0.19354361539815193,0.3932732761704436,0.027023727474427054,-0.3934355197054257,-0.18938285603717323,0.2056909841724504,-0.07506604921102039,0.2579842972168526,0.04531866385982917,0.009098638113985534,-0.04353366090323273,-0.03072757825161468,0.02169009040914544,-0.040476403913599475,0.03415575092826166,0.05819885454046034,-0.07485307503525818,0.12005589397983435,-0.01660995324655285,-0.08631799830795343,0.0400191844617036,-0.005870793995800511,-0.008327948904235136,0.010830507412566352,-0.09328003243434033,0.1616873154486707,-0.010435732490885957,0.30935902286144334,-0.1770391202086,0.11168960183613016,-0.18690683514106243,-0.030433113838136346,0.07228662743219322,0.3894293429191128,-0.23654182774273422,0.3381520596704774,-0.022447939023461542,-0.5079359348904352,-0.20699152293681616,-0.13011348583046717,0.15241650595726053,-0.20010366643622818,-1.066054316911088,0.12353765618721316,0.20933749333867582,0.4941787387991434,0.9619305589960713,-0.13255271317889983,1.4033010473170142,0.1899940420439175,-1.4784504134679304,-0.3752434150202769,-0.32002424508041416,0.030950561908271775,-0.1726012067550847,-0.09808336966174605,-0.014005756599651234,-0.04388075797412032,-0.0022098792339525584,0.0038192336171575135,-0.08234468255124747,0.031129359530112446,-0.14803578296899125,-0.04902777473972225,0.09739449550127675,-0.1678019711352813,-0.04843673223266713,0.0044702933561402034,0.002993455201503792,-0.029254709654983915,0.11811344390380729,0.09246554602805916,-0.10402667200779749,-0.07579529923198071,-0.05461045261043523,-0.0759892543221429,0.02347933407854854,-0.06764905122121813,-0.022507030193987067,0.041003283484212796,0.08361132257303706,-0.03417303955791325,-0.049637688890522856,0.08675654319126216,-0.034344418452085926,-0.0076656849299069066,-0.027925151626330545,-0.04900174153979776,-0.028080486712270265,0.06286562448341804,0.04923611764590875,-0.17932301875444304,-0.045034062824570356,-0.007807040325630977,0.0032376101303565074,-0.1399565710708499,-0.1439098810162297,0.16257300474642916,-0.13084757510191833,0.020214495645959264
52.85084915161133,1.0198020935058594,-0.12613235863657635,0.05427114153849261,-0.06380629199094466,-0.1694791358667047,-0.3468165215529314,0.017490515497529127,0.08781106643828136,-0.2379949516939048,-0.033249447913805935,-0.15274353020950268,-0.24310575520440625,0.10165436610559692,-0.04430471789221033,-0.04044116537931229,-0.014606482599072775,-0.08031649262771688,0.2925307098921188,0.5529440873432144,0.2641232052718002,-0.07586863553126608,-0.050465188798070264,-0.22574254445503075,-0.11773321874955552,0.09344935437026806,-0.1885206384425251,-0.20516163641101173,0.09475494753649974,0.07227085033208339,-0.09821308228975414,0.16763591286069546,-0.24897636365346465,0.16478333512242405,-0.33031917379373255,-0.12155518257417441,0.5357249790492338,-0.16067229957188844,0.20121836581647193,-0.4698621339717026,0.22039432605885007,-0.49151044514653386,0.13831274237301372,0.056697913093959135,0.32917065742644186,-0.2635178085100531,0.10598174555602517,-0.5739585193348553,-0.17016909888837317,-0.11809353675936331,0.054486663384209266,0.2804664960330056,-1.0041502387046473,0.4427057031373188,-0.1603237293313956,0.12675603372452443,-0.03587501933369529,0.06780249783961473,-0.04595157760399105,0.07595357089746593,0.07452819676747,0.028924746296103348,-0.03530654430743877,-0.0031317799455925226,0.002727161721046865,0.13221921806933576,-0.02417130165034429,0.0749451218477897,0.3785161109218723,0.11588710253744015,-0.02425759632512548,-0.005113514334727481,-0.002814398412745682,-0.01934012063262598,-0.05009994776531885,0.051800559291230834,-0.029286011226213864,0.0394063740446083,-0.014870988528938513,0.05007389276496931,0.12119689560343071,0.005528583155803485,0.058999420314121837,0.09212931033198911,-0.08875149138655108,-0.10846967303842066,0.028156963148623145,0.03247971667307585,0.011524335142938295,0.007438147652052848,-0.029205521869738977,-0.028090417679808213,0.05546817802546672,-0.04310878478925106,-0.12223760441824785,-0.1530709567100246,0.1266610046976936,0.12063815633055584,-0.049400201006155456,-0.030767304835712467,-0.29929234350991873,-0.03341504598000772
53.87065124511719,1.96929931640625,-0.03007541140867459,0.5435363489421201,-0.19446605823839822,0.009820283204938995,-0.2064646432052104,-0.06812941492032627,-0.009249453369470209,0.024339493522759662,0.12673473199026447,-0.14715127939465902,0.029468990121661504,-0.08211696101740326,-0.025075181777876997,-0.001993816315546729,-0.12380737419002696,0.10114933214309779,-0.04980313813159104,-0.42011294874439836,-0.021516638194399793,-0.013822381072192951,-0.15710690116394,0.014786664987570888,-0.024686919365508958,-0.18135331334581684,-0.12421877807753215,-0.05444723298464991,0.48995523542082065,-0.029344833511324594,0.1461959171117522,0.01227076535698345,0.12824576577113797,0.07429716793698801,0.048005250243362135,-0.16925025518261788,0.13923032900533935,0.18093711230271758,-0.055431025764242844,0.3630152639815782,-0.007564904905435148,0.23787277341420882,-0.06449507475670113,0.1454700980172953,0.4492447918581006,0.5667052690967678,-0.6300607858478555,-0.6225895444399394,0.0924591382499385,-0.9156864582903036,-0.6945045558106334,0.01081835209949343,-0.39687671931611596,0.13405233097284686,-0.22260399697026273,0.03007576420491132,-0.14970787515497144,0.004140195409598341,0.13097034708630784,-0.09335220581201505,-0.0032528774202606053,0.02374618643295833,-0.028983231776407194,-0.021453463367769897,-0.03210923477062669,-0.13371332758626936,0.1939133950025482,0.03302823948700403,0.0442060821988573,0.030710015295216976,-0.03739995369342024,-0.038899333835268654,0.18367997668990255,-0.045821805202811386,-0.03060476376416894,0.0646113579560623,-0.008965877582606587,-0.15009846468565827,0.009759285311104494,-0.04377901095600781,-0.015151062710055103,0.054617549659436174,-0.019285462727129943,0.0073032786841965725,0.05413489315702915,-0.09528184318450729,0.041932980409409834,-0.004995248574060689,-0.0481867922870909,-0.06146242260435357,-0.12081722634292293,0.0037068639123657684,0.03834959270597646,0.06320514125973167,-0.10136020416853297,0.05787267635197333,0.24486120308603068,0.03029085465362566,-0.049228888727574444,0.22361879249929345,0.06580133397368028,-0.027787469539916176
57.95964813232422,1.0302009582519531,0.6687407471414213,-0.042260320669781914,-0.21320566772495544,0.13814631004008515,0.28207631554948587,-0.31577166440947946,0.1182545695764036,0.07281698904517245,-0.13673772958218633,-0.03467450073631785,-0.008059155374407448,0.05777260344101925,0.02438631724424381,-0.09840165946603101,0.04014296074737272,0.10173552944795154,0.03972997329347688,0.9417485488259956,0.19651730334314194,-0.02393814469710565,0.202675325730652,0.2074357420381019,-0.0017137233582873567,-0.2462688524898549,0.18276710196216953,-0.16659881315730393,0.21950051725616032,0.19192881406265727,0.13567460608515733,0.20059796576504452,-0.029192976881506034,0.5087910048938297,-0.04269434764023117,0.03313346432882523,0.48255365391220295,-0.058711828683360216,0.013151533837305367,-0.2421075125668215,-0.1965360946700241,0.5518356361976345,-0.6727066734915923,0.2982791956589657,0.22851856819129676,-0.30846421088185694,-0.9592474763705567,0.5872336361125973,-0.28493895624326326,0.16011309534821794,-0.2358932433902219,-0.2251682379293492,-0.4614488473845931,-0.24364058176855566,0.03011116136305937,-0.4384619472718541,-0.051381394257256414,0.17148269641225683,0.0323165221625923,0.03934837879463396,-0.08074507588887801,0.004951319568264145,-0.019929012216333492,0.004010811271270788,0.007469346486754228,-0.19544147893242508,0.08965354984746766,0.2078096247887032,0.01934286491138655,0.06862651460381174,0.04357057966976784,-0.009912616212445716,0.03803838059339635,0.08545427484570706,-0.012116075489051375,-0.02792078212833332,-0.021023382940077825,0.05655831352954405,0.11000500412571367,0.025624761743077186,-0.036305394855501466,-0.05832083616821756,0.052988566261261666,-0.029786265524599606,0.09643202185609143,-0.10971756484721396,-0.1061009895764119,-0.05861150669280109,0.1227481143272538,0.03749859963401597,0.007928089094371467,-0.0488365237291015,0.039977699552531526,-0.0549336689918206,0.06174296313323335,0.04849910283483964,0.010664486882867455,-0.09450552337285466,-0.05956198880919509,-0.10383347900725123,-0.005207306217665408,0.3499214524719145
58.98984909057617,1.0097007751464844,0.22434675375112903,0.04265943618169791,0.40788693267152215,0.2988973077858322,-0.24968942638616037,0.03919314099121459,0.10039970599290436,-0.1679733498308181,0.15442046658340008,0.1128774499184403,0.25864772274888886,0.030988549831897624,0.12630664372579323,0.09294701455983868,0.04133820290361842,-0.09286747783463822,-0.16390213651244095,-0.12226591910344362,0.24425717231692892,-0.34983397880516076,0.021625144987778604,0.07427522758660979,-0.027768490272556803,-0.017063156030132413,-0.22021376635040357,-0.03631270161470647,-0.060332469804146215,0.10212210260681866,0.14790515236320698,-0.20966371781854246,0.17077258934196227,-0.09141710358389249,-0.28012932699321025,-0.016439645362688438,0.0007979046874991257,-0.23367742150958368,0.06537373795533861,-0.7212533558334984,-0.6323774083263445,-0.2596007464983434,0.41041757154561503,0.07850367003323602,-0.6892441944164669,-0.22664055053944177,0.18679421854219763,-0.3793696493589499,-1.1963747544260055,0.26131303012866647,0.26169014538611074,0.03371641117646352,0.7088305618114866,0.06569995875806094,-0.6503220330627827,0.6957991447424249,-0.14000282121519553,0.05420722967678117,-0.1486234931226712,-0.10565244041123399,0.048627856070159146,0.04510273101602986,0.0869957495848417,-0.0071915020653832455,0.09372380862089455,0.01810330115290542,-0.053113345200556716,-0.0844891932767412,-0.11076613299682009,-0.10625962569823023,0.016697037358800487,0.0637800697804835,0.03212375378126974,0.07422179541658422,-0.029254272208712268,0.138131693564456,0.10726460529066303,-0.10993954966203094,0.11637019115428701,0.08246334409205693,0.054995745196596474,-0.0494170830358931,-0.11056916369438942,0.025262763854544026,0.043055669508883586,-0.11313493598943551,0.0023555339833014584,-0.006507943123044778,-0.04842615683369474,-0.016170925682679325,0.013685166639369233,-0.05891837885228222,0.1760701328056282,0.14428383343083034,0.03656562558020294,-0.003560366943726986,-0.013038028475635986,0.14694861131572068,-0.07389570265770315,-0.05264935223463574,-0.026736118647788694,-0.21496124092699753
59.999549865722656,1.0396003723144531,-0.21414924948627986,-0.16675190310151244,-0.24908054266087307,-0.4188657175333812,-0.29175595119447023,-0.26556390519251954,-0.06575310749494684,-0.11658169907590533,-0.037321379097543364,0.03930050823081937,-0.03287706274431228,-0.01347916653618793,0.09232147230544835,-0.14969659368276797,0.14809738120801316,-0.20918897070372428,-0.03141895355260141,0.7586399632997621,0.07706126648858928,-0.08918830929137814,0.10871631244889413,-0.3317272354174363,-0.1591128204427835,0.22141221053330007,-0.06645345639994839,-0.40481690315431207,0.2615275466758061,0.18639108849390515,0.1415768313896701,0.0906435153273939,-0.211089188922348,-0.08431570933808105,0.09709886584351594,-0.09981785563359702,-0.01766315582182175,-0.13443953893978877,-0.22348618607025275,-0.15241406065128835,0.5142479380598846,0.13597325448225792,-0.15495419445182268,-0.20947529933576234,0.38842097377906315,0.1647100005304541,0.4082552668094172,-0.6574613004084953,0.2832128721010589,0.1505019662353762,0.15435946350285543,-0.33078528777836647,-0.07207700590534358,-0.5702116948442877,-0.11499774160624511,0.1280191521698361,0.18551984822063697,0.17870998850381256,-0.016191526719289213,0.08625699317455307,-0.0006829004868158669,0.03361196072026595,-0.021459567336668477,-0.004814309443914399,0.11959226941617813,-0.050367211898992195,-0.17752207193984298,0.08493113396946587,0.13636050985139353,0.10956757030013121,-0.05472111425172964,-0.055948010815859095,-0.019612873105305732,-0.062282915868908245,-0.02050073246661567,0.047707653008143815,-0.10449363545645167,0.04679692182072586,-0.006357642643793557,0.061966717407105985,-0.018305114651166667,0.00293804870401699,0.07584696666995934,0.11658352103861004,-0.0724289469323806,-0.004062179787198852,-0.0007845354369462113,0.05709425513292901,0.027116407307712205,0.030046307287818916,-0.07760063142477659,-0.008983177875631156,0.025681629792176655,0.0821037072853705,0.021822071198471578,0.015476460481444193,-0.000984694056273216,-0.1126390406812359,-0.12272930211933665,0.035908763971520374,-0.02777106986529158,-0.009901112211904872
64.26885223388672,1.0401992797851562,-0.23535735996910057,-0.010632343193030969,-0.16976618577484753,-0.10110634613371204,-0.392764378831449,0.14858322973533947,0.3846690612642513,-0.01348030360137032,0.03915414153934839,-0.20756975301973213,-0.17797760218340825,0.1941584096675965,-0.040250349038485386,0.1235926028503057,0.06871884704062303,-0.0050617088354514336,-0.3854936277089965,-0.127916027303204,-0.25054950197811854,0.1665062701917819,-0.45278876252459577,-0.13619419689624396,-0.22318185308278282,-0.0350093945105042,-0.3350241244078011,0.25419561437860005,0.23553720837632042,-0.10561946159665828,-0.07086267993217088,-0.01232409821844555,0.08922972710911918,0.16873596000900867,0.1247725925919662,-0.05235829942700765,-0.006429181632890468,-0.0795498204515825,0.5388094852682546,0.3122095805931176,-0.11611766021027448,-0.31781563683121883,-0.7928141741341788,-0.42277901784470423,-0.24935930369300163,-0.5526255253168345,-0.117375046272201,-0.9342276019321814,0.9828631861725021,0.4194304688881822,-0.7119389253475717,-1.1688097828444117,0.03194745801653434,0.2756746128498786,-0.2514721156902198,0.0888492535287869,0.003687668697883669,-0.1904178458001928,-0.028463844733418606,0.143639521874824,-0.030889911648953657,-0.045394750429934155,0.011281513038519037,-0.04867804497344923,0.008753176140510317,0.06917338093130909,0.1338519385076279,0.004598311345831541,0.21024255305327272,-0.09360128005166728,-0.074642979685909,-0.044798144890619784,-0.05597597272659404,0.01272692068614408,0.23031555087515782,-0.0017075533996229685,0.0640618951326953,-0.023298099601300193,-0.07577970648775492,-0.039761806406782986,-0.013992101468194632,-0.023638317138295364,0.003290275220301906,-0.059234122368307635,-0.05557679206214272,-0.039939831879491794,-0.02877478417163207,-0.036205631504427654,0.09520707036913027,-0.012600340252959885,0.18498329252612838,-0.03683954175050518,0.006583831202433477,0.04573211061197591,0.04927483156480972,-0.07301051082389093,0.005622150691797622,0.09442592154483184,0.11044011301295874,0.02249643719316805,0.10057833652266389,-0.05419041158746969
65.30905151367188,1.0597991943359375,-0.060211998654208745,0.4029361306603617,0.3159698733097511,-0.008315041608233112,0.3504974728852085,0.05796276268051135,-0.055700137939097706,-0.11330056911987585,0.006989398727523267,-0.0326616982912544,-0.006736140313948759,0.158346618050784,0.11134115453916708,-0.02918940138311811,-0.09714299882352703,-0.00664502101548381,-0.07571409675288066,0.08066353646650476,0.09983964806678966,-0.098281079403188,0.22308860506688988,-0.01932899918522133,-0.056639499572411316,-0.05317840784553196,-0.13277484487097327,0.058820704750697644,0.10260363208233665,-0.12250224243404918,0.4069782933174411,-0.1739559255372462,0.1268133035954555,0.24263931441494424,0.09914514533273394,-0.44343948708075037,0.3116086782088312,0.45682311389730157,-0.06488548861775394,-0.6748393028857596,-0.1602353747760917,-0.19396952327624276,0.718701717452548,-0.29568011669957595,0.748493742592891,0.1961863872881386,0.10706047806717449,-0.290745082229885,0.402482496239162,0.7143782956011111,0.26068101466741755,-0.14084574761822594,-0.3503760540859958,-0.2127893407605792,-0.26603094292537544,0.24934796300007595,-0.07171445954923318,0.06027073464690756,0.04656338021485967,-0.022545202187252606,-0.10534190487772467,-0.017270052355088918,0.008546731261931315,0.04622368442875915,0.021970440602629763,-0.0853735771259279,-0.17472363496964155,0.11681580678904796,0.0944430100996787,-0.14164118902088507,-0.20224367058962567,-0.015523844744961601,-0.019221090502645945,0.016631872547949712,0.015835600212137885,-0.034976376520104574,-0.0015380526589872752,0.07273068007792328,0.07282577188203937,-0.040659650654895185,-0.06754063465788625,0.09525869719564176,0.10941686722252339,0.042502462767635515,0.11196427145984209,0.11372389609173997,-0.03029605612331484,0.02335009360484698,-0.12387373285489778,0.007441623665784148,-0.014912129937750113,-0.016258808253939577,-0.054854973301374,0.10677915376966342,-0.07418564140494747,-0.03546940076084659,0.021682616335244265,0.10204900201348979,-0.14437506144061585,0.04876376613189063,0.009887786744814686,0.2682652941368897
66.36885070800781,1.0298004150390625,0.4178444376263057,0.12257498203923917,0.09225296553989082,0.3004576991159268,0.10188711050089719,-0.6049606276760562,-0.40567849196440536,-0.017054616762999006,0.048432065947469974,0.16910094679162752,-0.10322589277449769,-0.06736512503087493,-0.03588283309987128,-0.08688462723063954,-0.2429111204076131,-0.013034706237702774,0.27086094985625675,0.023927477959249842,-0.14754457520235725,0.04449665418687622,-0.3050230135296176,-0.2711843468279762,-0.11650291176596064,0.015021761095188865,-0.1479064943325518,-0.05476299889362948,-0.2017969717107051,-0.06983888291074594,0.274852693775022,-0.01790014138734442,-0.1090873718606544,0.30228228608397395,-0.02415610991565259,0.2506775297324207,-0.45819703807452267,-0.04465747948779569,-0.13506576855318747,-0.39874698419772137,-0.0978948857703413,-0.10434628592163614,-0.32765370009552425,-0.0491916507603421,0.7558871170008907,-0.1712498421443144,0.5454875944613865,0.5836058097293108,-0.6517331601508367,0.05938724554725304,-0.27350667823622904,-0.1301197870593454,0.3398201054132732,0.6041878477602326,0.029450058295899355,-0.08551374551922716,0.04855869449822578,0.05746415680452128,0.02253563374962939,0.02114440229430401,-0.0032469927657216985,0.0009159108243779799,0.0005303009662134294,0.055242697387110136,0.0013463849541773256,0.0540161035349964,0.1369683247875311,0.026933379015637998,-0.0013661729164524976,0.15531249793395357,0.07708645981876885,-0.004214617669581637,0.10270010168296086,0.03481598081912714,-0.044627624100883105,0.015717172872725893,-0.10761392324631636,-0.03366830129927237,-0.11519025785743676,-0.1028874798191894,-0.02727804355192809,0.017952013503350437,-0.14792035049126429,-0.07800994570843653,-0.031813939851186745,-0.03556149098925288,-0.004495187059912618,-0.0030079673640461446,0.11149360072916821,0.013919769912283568,-0.0193823573183957,0.012477975330668353,-0.05207911241642378,-0.06549563108254092,-0.05388693422530873,-0.10058974839066834,0.03209990573149562,0.15232802030848874,-0.08221243308589428,0.06924810171181968,-0.021026354437705674,0.19328294676528607
70.68824768066406,1.0499038696289062,0.12713031293523636,-0.33896908851172014,-0.1647566497764343,-0.051094428245654175,0.1381739956253413,-0.030774020293913743,-0.05693895907454034,-0.03675043075535905,-0.0673975751859104,0.3237461650312735,-0.036879606037210765,-0.05721108054796413,0.20487633898873106,0.2389088594650796,0.051014963011612416,0.14946230593462123,-0.20970833404842693,-0.1529407124361883,-0.010289178826710293,0.05660368813490438,0.5551672879110467,0.22626748900540955,-0.047354613882386015,-0.5206528962016419,0.1156114252826837,0.2830942282079661,-0.3079482797174717,0.14123736007258425,-0.05799408499672657,-0.01273827668995128,-0.10897271285652237,-0.047597690666524105,-0.1441978414846497,-0.18603472095238097,-0.30442354899569296,0.12191100322393353,0.03426597153501763,0.21697083144857723,0.1828532792033649,0.060268645262783055,-0.873646781865648,-0.7864834307425151,-0.15417718387611595,0.7351076006296422,-0.015416859645299562,0.13889671487240512,-0.3918903870543204,-0.24009513305001212,0.2329659194199456,-0.6369090957634774,-0.6338089634827843,0.02404750806576804,-0.2120764124995523,-0.5886794211486122,-0.12532011104711413,-0.06381388819046974,-0.05627606820456891,-0.02106051482592159,0.005200736351068501,-0.021091869122962827,-0.022061240569301872,-0.10884186160729137,-0.1345807471702856,-0.12255740894075635,0.09097065932752064,0.13276198914543275,-0.14666988278118062,0.12721202246801275,-0.06104924201631432,-0.051157937805186404,0.0559342882534777,-0.0312014173697563,-0.009480041412334805,0.0808418672625256,-0.0678273961729882,-0.13943573001007287,0.019783967081117376,0.08329355009309614,-0.014241551101006602,0.0038092947782779885,0.09169047597203517,-0.01914864223361839,-0.11789024417274899,-0.03375171294991407,-0.06115955910098546,-0.03082139537579658,-0.025816627397948735,-0.023038812160511173,-0.12026786149120006,0.08004374822523501,-0.045652695471503774,0.030933577804826598,-0.02411952513603266,0.07982596064805762,-0.06459769257101985,-0.031066486499688087,-0.07383970101341034,-0.033892644025275545,-0.10267216838751236,0.0808959685857254
71.73815155029297,1.0597991943359375,0.0854644725376295,-0.013705489521675544,0.0001753476865019865,-0.42687087532907037,-0.35937904894940925,-0.3991774749225567,-0.2439509205426115,0.07340599996220819,0.019019864958332994,0.06101114711634978,0.0014705707236720295,-0.13104262608584144,-0.036187755105255646,0.16335807931476967,0.0037052871858869263,-0.004672758510791276,0.22631961710630843,-0.1567278725571155,-0.13925650056047242,-0.04515402154759086,-0.0650356302870478,0.046979813635589916,0.07201962145470164,0.014665700625345664,-0.3177058394962474,-0.027135139727689394,0.02486120168181434,-0.5058798318354337,-0.28642224039199193,-0.41338066376427063,0.03904857242965239,0.1097379384559902,0.8645139639806199,0.04307507387812293,-0.180389273231639,0.4546528945488344,-0.4451709584556781,0.5416585684557638,-0.5567129119336935,-0.005097206924574493,0.405908566166896,-0.2590321851332256,0.06058936287208788,0.11478226027089872,-0.2002077070970479,-0.21733385240943093,0.6239079208853177,0.12396077248145844,-0.12037757564379327,-0.343935292888655,0.8598131348119235,0.26341850595532773,-0.5347292930508523,-0.08279046477744124,0.18728173165538314,0.0735025902124045,0.07229251650462176,0.005954814921150513,-0.010244248237462599,0.01954380630413347,-0.02111254867856814,0.07861790585897133,0.005273906684209528,-0.035273587093802745,0.20160628742384296,-0.04298009155483558,-0.16517364641794133,-0.10057820269256855,-0.05315466811523365,-0.11664049956286726,0.04083484029304675,8.553307254638236e-05,-0.020988767443644973,0.04622153383658877,-0.05277559740538479,-0.02687442306305517,0.026506534685694298,-0.04295379224566539,0.02343448775799565,-0.0889803310561877,0.02447557314065013,0.03561304486722464,-0.09254412705519478,-0.06926410382582367,-0.0419390870979289,-0.02249647688133689,-0.029134342152275075,-0.06346874032674263,-0.022859199674308807,0.03815576417468769,-0.052058031701127286,0.0533650829089157,0.07551228670528017,0.044005195974398496,0.04603588257878877,0.04452641410779058,0.027098024822784478,0.0011793397465111365,-0.009004202974727149,0.19536767336803615
72.7979507446289,1.0694961547851562,0.1926745742693675,0.11039948979616429,-0.15478809091059023,0.2520715715400334,0.010868166804579263,-0.05817044206314996,-0.17826707493106164,-0.04510837725717022,0.1155139645277103,-0.12415878992573832,0.11243105577768196,0.019847263642118997,0.02632541488851811,0.004047983481041864,0.05738658820568874,-0.00822773004544341,0.05838957842025391,0.13227585701943284,-0.04300321351259564,-0.3979462250796462,0.11046300663349717,0.21418701535329446,0.011950998654032988,0.09817633270552711,-0.018517700285996964,0.42217575325090406,-0.24089945594109483,-0.5114068024074367,-0.09009208218858888,-0.4951158910471501,-0.05468261870753138,0.02250101210098291,0.06717401877255993,-0.2465676952975487,0.3768364630763231,-0.007956267361636342,-0.3788421600656829,0.5964947354341397,-0.16890599464742256,-0.6111485961319162,0.1652002467833472,0.018087261570763263,-0.3657365117019629,-0.18242697011719594,-0.5039405329754573,-0.19955079775237897,-0.09609551435831175,-0.5662801636707768,-0.281049053977949,0.655263533150111,0.05610974310654432,-0.07073533032011799,-0.043878425781684875,-0.3385142023524188,0.13239539247568868,0.09664155203376387,-0.05367490189023613,-0.034820939710919936,0.007811629401325528,-0.0037261717787151344,0.07386398066650582,0.02069527727441542,0.4385953085591832,0.06122854743448197,-7.939265880883752e-05,0.07767867324089274,-0.05130948501360631,-0.024852108622241385,-0.05417727079332116,0.10077820826375335,-0.0030567914749013627,-0.014755593436161053,0.032554168729715324,0.08683760706585952,-0.1484216890748995,-0.15416433352356965,-0.15287953523350076,-0.026320563194375226,0.08140421493371168,0.09439281379198171,-0.05147215090306067,-0.08609755668892445,-0.14066015512257887,-0.0013435391496634322,-0.01778092917527624,-0.14039204885119289,-0.07879108432159679,0.007387443606815699,0.013455159825098081,-0.056522917595186184,0.044162605684618605,-0.044306839918471994,0.0026473670941958294,0.08700568119939865,0.022564014857386648,-0.008692197442836553,-0.09765344131628029,-0.06564794011491074,0.05946547466990381,0.1802736056881564
77.06735229492188,1.0497970581054688,-0.24806133650521622,-0.09252404702708632,-0.24748825962582627,0.1095244801459751,0.8963488691267117,0.03646432735404073,0.10260830291422184,-0.08553380269869192,0.08522948397658918,0.006051878568979666,0.03919350767716437,-0.05188254733171284,-0.01137983711994835,-0.028657608414110084,0.03142633001115379,0.1871805194749207,-0.23829326199266032,-0.2065727202249666,0.185562945119553,-0.029068250040079777,0.10827951715534641,-0.11441316352273462,-0.14495240756588929,0.0014908382850626761,0.010032804698603673,-0.11090104373217843,-0.0615760791724832,-0.20257828225114605,-0.4675678680727574,0.1580536816549004,0.17311169136285964,-0.15647122729637022,0.10447355106404599,-0.31380442662569513,0.5082125902386996,0.22860309183306385,-0.24350838117591106,-0.23083165225293312,0.37356495746962765,0.44532448160880755,-0.9441673470442229,-0.594305820511907,-0.1400939545955712,-0.16420445712629583,0.4105822522823703,0.21112313106486855,-0.11417644353542965,-0.4433098809871915,0.21439105482981416,-0.41611689041218347,0.2620918983412419,-0.7355465670905336,-0.1552186319027773,-0.09278505949387808,0.1692446281804841,0.0841716527635316,0.004712271896617682,0.01954652701743829,-0.010556412839217053,0.053560100755496796,0.008566437967239332,0.0171514445037907,-0.07128535851615672,-0.07406666525393094,0.06643454072358367,-0.04582229399869432,0.02647384428941336,-0.013471157234883287,0.013818784593126743,-0.060346007005009174,-0.039075926052277596,0.031228284717213763,0.08993136511995799,0.07473158485701173,0.01703435352155134,0.08125158567679774,0.08912725238102703,0.06086354956359024,-0.06593372913432075,0.18949244312992636,-0.09138906826662346,-0.07340445554746057,0.05818308995668949,-0.06814158515049176,0.04998563776946076,0.10299234270480132,-0.024934048082362797,0.043308945610870314,0.03739088427475928,0.03929812721917853,-0.054131062078948064,0.014466758377551181,0.13311225412607947,0.08213213611555023,-0.024455290390922323,-0.004516219312291734,0.001984805203097516,-0.1363047294915564,-0.018078242128625875,-0.08621404535417365
78.11714935302734,1.05999755859375,-0.08839452016969265,0.4219639138667288,0.1456621164897989,0.2253435430693029,-0.12597779849210827,0.22555263382550148,-0.1197879196912586,-0.17127664881977023,0.12025001535274765,0.239786670193748,0.0783706218990677,-0.03257674287667229,-0.05524047315011983,-0.005903711387801906,-0.009921561842721664,-0.06037161884513491,-0.05368107313831891,0.0771155282820255,-0.08979744878866586,-0.05461598880658409,0.3366665819963668,0.04282876270726044,0.257445991752728,-0.018022086274085043,-0.19811689333004504,-0.016999712931884226,-0.2218555713563306,-0.1464836579912596,-0.05733043543777648,-0.5534688554511972,0.16565965669810756,0.07058371295776063,0.10878798183522605,-0.14864858904861308,0.30802224695423064,-0.344707877700942,-0.41402404224514366,1.1110342197809406,0.26007467517111144,-0.8212598078815808,-1.215511422706858,0.19735123159633344,-0.43654386951141133,-0.49524612966295795,0.2634431704126011,-1.1252952599481025,-1.120184497585201,0.8511125549050593,0.5327874360022666,0.15035124196831923,1.1562870246790078,1.2236497704750011,-0.32775194856034795,0.17789331403015357,-0.0644949537580996,-0.2972380911124476,-0.06803049911396382,-0.043512799964896515,-0.020460964562717062,0.025016446906904213,-0.003005236448552271,0.0016106066544457277,0.02152415935766994,0.01745395225116325,-0.20469298587446216,-0.15268729904989528,0.24732256300043723,0.09840921357970094,-0.027114466290632647,0.024188562239595805,-0.021510680619770475,-0.05092683037895122,-0.049659281610157854,0.09051869183523749,-0.035550517469581475,0.036463547725565024,-0.045266644208474885,0.016188818144277438,0.03634014805650807,-0.0029296268074014836,-0.07802919084917477,-0.07281644787461988,-0.09957620234678338,-0.012887942348333454,-0.02383160561443442,0.02985335556468213,-0.020509098451336527,-0.0050902949638946485,0.0009718360136591748,0.014214830627616776,-0.1462493741992039,0.2028454677866954,0.0012381791447114363,0.03755435733328214,0.01971772866772245,-0.01719864625592704,-0.025454088097408095,0.18915488691304264,0.056056511151623495,0.10613842450424013
79.1771469116211,1.019805908203125,0.25079574958079764,0.1448580062390144,0.06884155937286804,-0.394893894972529,-0.1221581691076061,0.3476915420760387,-0.011665027944445329,-0.15419592371701438,0.06760136257132372,-0.07750600475478017,-0.13842578881063589,0.017513025736785936,-0.0527811662719163,-0.0027370962946523425,-0.14604634495477803,0.3690547336862335,-0.35416777868378857,-0.525960916122835,0.08619564438782545,-0.3600831921758259,-0.07129044580790059,-0.04246921713143863,0.22895142732146873,-0.46152415568590227,-0.15160855360661454,0.442734469915171,-0.210820969884195,0.12018920445910815,-0.04216002409867747,-0.004384030468224027,-0.05893108628008861,0.029821635472618374,-0.051879644993945526,0.3251295160166368,0.24557780625403408,0.09856620296097242,0.4322575031111926,0.026923293214038205,-0.2586645200060411,-0.9916916919696284,-0.8540664491731749,-0.1991267734131255,-0.6523967659684815,-0.012372710734009196,0.26869204711933803,-0.9126239413023136,-0.7514369501137831,-1.18459557868989,-0.11988386701223469,0.2885207856711014,-0.44575233961656074,-0.360328906649912,0.006909959301992712,-0.5045794411706006,-0.06951442697384748,0.015958099503703832,0.0044644366723250615,-0.06422004297080632,0.05225012311717978,-0.09167680305960516,0.000561480695312024,0.03921463636584377,-0.08419273466675638,-0.0633784497177687,-0.021545954041106583,0.026648601391104,0.004901534682860318,0.03026091479262282,-0.017005987283643092,-0.05692160892102759,0.042605809312615754,-0.17112521832581454,0.040162327600218914,-0.05622209902661341,0.06592344480631185,0.17797163481567482,0.07696099196668683,0.07652253868697094,-0.02099652603828414,0.05002541892779805,-0.04639793963908168,-0.131549127713407,-0.0423933188057861,-0.053386976360072266,-0.07827010281412357,-0.11207992422507201,0.09248975481826102,-0.02079620384559706,0.01779729407503181,-0.02610392443800981,-0.09953754446105909,0.006379127340352317,-0.010463093657993291,-0.027346112457720874,0.09868766857428538,0.019307900735978434,0.09487978759269927,-0.011897074455486115,0.30326570624605587,0.0888000617128413
83.4365463256836,1.039306640625,-0.1438818912219547,0.030226225573942448,0.32461225195762067,0.3107076305705119,-0.01364369529908932,-0.39461673012558546,-0.1940714196939155,0.0625365401016104,-0.005340739200835179,0.045178300015692646,-0.06311416684128868,-0.07096588538965667,-0.1247319950090526,-0.03695031956749007,0.16396085860741233,0.12765824518796784,0.06852224619248672,-0.3140419553751898,0.009898962086155094,-0.16171924871838353,-0.34282424070053663,-0.10023348920156035,-0.06816933982910796,0.16439095188229694,-0.03928418669050903,0.08858988161658653,0.14930912858222442,-0.16853613727894987,0.019234386214537526,-0.30403687182786815,0.4255086015366077,0.4752180586860807,-0.05978904441861364,0.2531790675404649,0.3404923266718676,-0.25757194601364936,-0.010966460154379838,0.21165531074467475,0.0325320223875735,0.11585369215565554,-1.062923129064239,-0.8280917087673006,1.6798717192451589,0.6255523187690591,0.719708620835508,-0.05081170807605148,-0.44153725963475265,-0.39934720845365784,0.5811093153112974,-0.6163132220098604,0.9799297030649038,0.13149062126741168,-0.31275008795853654,-0.22102486968899362,-0.06370669902586312,-0.0233803022725792,-0.11102359845916018,-0.005523543602194675,0.02766568802176539,-0.030157447767236886,0.0054867605106884935,-0.014854701262394944,-0.019556000197993084,0.018265512116952425,0.016792475876977127,0.15999564170157066,-0.09731296472628137,-0.23622510046588338,-0.2296598338330068,-0.07049830214130068,0.0012769044349494425,-0.053150058240954326,-0.06779422906327535,0.023203926532894055,0.0809168883102952,0.09335336919165285,0.06920502731722233,0.0509904036402773,-0.0870058697407794,-0.03075442741477226,0.04287828764495944,0.12385635083940628,0.05584302407338102,0.05594893014401857,0.1445756859989258,-0.016878243413908256,-0.016901705582177864,0.03512098934588524,0.0273425392759675,-0.017868191713696666,0.03856043266975098,-0.04241835161077249,-0.01585777131439602,-0.012554457120593773,-0.06815856449986202,0.026859875844186545,-0.11104246662274042,-0.01863903527337079,-0.15716922959876747,-0.002782333848160623
84.4758529663086,1.0501937866210938,-0.13377249656919837,-0.16649884659694345,-0.3122473648035984,0.07149383746237153,0.11296875356603306,0.0023553190581013933,0.07302485864027933,0.08722130903061835,-0.06806504934708728,-0.04955741977865252,-0.00900568901554245,-0.20622821491978893,-0.13195663909409666,-0.03254976540904931,-0.0026010725443492873,0.3304174593788859,0.8536238425534727,0.22531673790449838,0.003240987859843952,-0.09138205864300197,0.17518371763304735,-0.0517823225293971,-0.018197742699113298,-0.059435023815016114,0.21532330541585373,0.026401333846837398,-0.34505396696245577,-0.13254049321988703,0.04973813717565527,-0.10350296638493545,0.17435915536456126,0.35712213651846036,0.017404621146388438,-0.29951149947927985,0.1742959421717891,-0.10557339634336199,0.4973933230318874,-0.005332252434699494,-0.48759513972664914,-0.26403149061468245,0.23912257606908283,0.035959879467994865,-0.4321852837945201,0.9342255202563042,-0.387533867223854,-0.03974801385103445,0.07089281165999228,0.3001984476199724,-0.3829915865697631,-0.7445548869447745,0.8828620416898695,-1.0072495011834508,-0.23250073689640793,-0.22201063872364288,0.012465377481436092,0.0030995662605275555,-0.04547442073418949,0.0010236738041865814,-0.014289167372847208,-0.08597266494829131,0.004514189492897637,-0.03103464471958793,0.017786514050194054,0.09022978113779637,-0.07748700365719692,-0.02171955464123217,0.07061949084010723,-0.009890143370954646,-0.01312715357384604,-0.0822948285315369,-0.016960364076196065,0.012059543007785292,0.06320765101676842,0.0192264035042249,-0.012448178516875033,0.028918235245899454,0.1443075411169429,0.021899796646312062,-0.09275756748627365,0.0024663344691956295,0.021746176442583687,-0.046838754207125036,-0.03860769644210533,-0.08021292485149008,0.001737607501356612,-0.002261497012529888,0.09365424445007019,-0.0287851789769394,-0.017201392170645577,0.07761213781464374,-0.12296836263701073,0.07650483785713352,0.054515960286612694,0.012745228766203655,0.21115125088229308,-0.022871177957456326,0.014556282161613464,-0.02970807225828433,-0.13006893234367603,-0.013713495849669015
85.52604675292969,1.0395050048828125,-0.15441283565443742,-0.1543397053236232,-0.17759850276396194,0.35727705819221334,0.1700693392066745,-0.06844954733757357,-0.15934214482365586,0.08035221620666202,0.13283361435909152,-0.13038856469549495,0.11446682512018119,-0.03996268993008935,-0.06973448131754725,0.09101146428270504,0.06324862104220726,0.03736613088398415,0.01853046515887387,0.31748460369674897,0.10380962640349577,-0.0676525267212002,0.1917134632786806,-0.0314138164659738,-0.08013890534548995,0.06807017487815581,0.007368067926597971,-0.032473249355958925,-0.025228172961084733,-0.026872543661951312,0.17404605420414038,-0.07300591958690604,-0.37434655548658285,-0.03886152827605322,-0.271503703890389,-0.19427801066187467,0.5401157877344123,0.12898357283550924,0.07266388638680314,0.7881816204450441,0.9556425406029935,-0.7166584984242477,0.4585331997804712,-0.6854387957155001,-1.1618174578831297,0.6702310458481489,0.0316358840497469,-0.17084712159800886,-0.8756185296630777,-0.7505537932157238,2.1863691223910027,0.7726588452745637,-0.5148221765638815,-0.12313969076287636,-0.6693678335137935,-0.25056695821653857,0.08077185936890897,0.20970477591339234,-0.15491034196360126,0.022041693529477692,-0.01829494255783682,-0.03143305232936309,-0.0011664001907166774,-0.00574607749678322,-0.10586249910434005,0.03567130370347529,-0.07888341796259254,0.11748587013581309,0.1020681191593541,-0.13315031219347007,-0.2541189455791442,-0.11729130815246287,-0.0798392070404629,-0.09994848741605547,-0.1241957117565189,0.0029558684661859964,0.03790040361608097,-0.08761823272741404,-0.001236488145008147,-0.03587202574168244,0.07258482140490757,-0.11069243789562502,-0.027646757100386304,0.016714511019580616,-0.05547310614221121,-0.08545710873204922,-0.02548460667894998,0.09289237154471855,0.00035171891454200603,4.221049243551621e-05,-0.005055818648192241,-0.17479201837660294,-0.07452459967543554,0.045890554228547126,-0.04941364902867046,0.12433376803118885,-0.10855433427315232,-0.1894172466067668,0.10340455930733944,0.525766617434927,-0.22763461335633814,-0.1277920593445569
89.7553482055664,1.02960205078125,0.06036773935261021,-0.13977364882745952,0.3382176059795379,-0.1217805961557224,0.13118560187059555,-0.04859548095074679,-0.043598241768076224,0.018156981355298064,0.0952847626757575,-0.027999606366881983,0.20149396742925707,-0.045075293458854415,-0.05699420217680224,-0.10912228592180973,0.18733407150595566,0.06495573266139765,-0.1704755146657158,-0.06973336956374614,-0.25526967413238816,0.039778499062048625,0.3074450075715718,0.09132383566948472,0.2569352016574402,0.10389721484510894,-0.10475895550556981,-0.1855277771663413,-0.2624986921700292,0.17533930307699067,0.40405616074861683,-0.07021866764128608,0.11548904832566151,0.40931125231592613,-0.4280227869069358,-0.33769957332083844,0.02775781614285866,0.5998701219881568,0.3478532666612646,0.07924271204293147,1.2866422529203845,-0.41520010818153075,-0.2539425912978404,0.38300369341867774,0.009947190233798864,-0.9956390475533428,-0.29798191564588883,-0.7933153752849573,0.09136513340267283,0.07311049363944341,1.6848777736970095,0.2816905869210038,-0.5413049112153526,0.004940186196080395,-0.5250392413136133,0.20233377010853623,0.06154342603561716,0.01427606386768477,-0.13100683483842795,0.09907675378815596,-0.008311247263118037,0.11640471063087679,-8.578171910510603e-05,0.0025766205817373293,-0.05434557875415471,-0.037351674938765254,0.07639360839502866,0.036623435165369055,-0.05935003036760812,-0.11756157200201386,-0.027568958626335616,-0.008809790980638664,0.08813441330311993,0.13811347422524237,-0.02080105172224382,-0.09794899079996448,-0.05566971889747317,0.09959142545071285,-0.010886736394653797,-0.07240016771222153,0.07136403224494607,-0.07233754693782998,-0.04479396608770738,0.009220571133439607,-0.09142083748119484,0.08304076285412122,0.0029067267999849516,-0.027485473680724685,-0.001831587618844866,-0.04699649883720774,-0.0069103810159767375,0.0028904554323161496,0.07800875915948191,0.029022705182514364,-0.09353960142490611,-0.0926971775885563,-0.0730951509201154,-0.2399936197982081,-0.004768931733354936,0.10162938340497182,-0.12450871774975322,-0.26369997697032105
90.78495025634766,1.060302734375,-0.4098890350475934,-0.14891900292460733,0.26582442593195427,-0.05204173814500731,0.12090692216427094,0.04329947649511882,-0.2096260167434376,0.045297238621763325,0.016022641750797602,0.004623127925597877,0.11256393517297386,-0.01350484475378472,0.0023632253395292468,-0.00812123044055943,0.3704390431565821,0.021329753274642642,0.08855800457646278,0.41869719498843333,-0.36706576515219685,0.06930358542294868,-0.2851413823644494,0.6789621482982472,-0.08602745714260784,-0.08869324726201583,0.24497906413309173,-0.019653732596549307,-0.07013316202124092,0.121072903382432,0.053956229824198135,-0.09314143751188214,-0.04515564525367243,0.1163655588520605,0.2786550761200217,-0.2620211055980856,0.3517538023142318,-0.1561888452486497,-0.015624017311660188,0.1199060565284115,-0.20701728314363102,0.3306162974078876,0.01441712416789323,0.13809947051216132,-0.09890237170837954,-0.5714152525573042,0.4075280759041751,-0.9183232133043436,-0.4258896267168618,-0.3611976357887567,-0.22547749487635782,-0.3084828294092327,0.2080879861801364,-0.3309791640038435,0.07017864351568798,-0.23874552522323678,0.07520199598136351,-0.05759899057174396,0.08843407569549114,-0.02999085501724581,0.08037630979125725,-0.03180959634686097,-0.008670555749271391,-0.007922648306058459,0.008860534800454132,-0.1618835363750577,-0.09009386724047924,0.0821860646397889,0.0039405118297832775,-0.12105574026260423,-0.11705808174327481,0.042052673741295135,-0.07148593168097062,-0.10259280273290323,-0.13514640982367943,-0.05378586851408228,0.055720128454946165,0.016249427995876097,-0.06507886500895232,-0.058576550605630315,-0.06686398177462331,0.0005052973070406453,-0.04956104382468703,0.08043781536611166,0.02295804696143361,-0.022115665701403314,0.014505491411140884,0.023615395895923083,-0.11817905205423827,0.015117957230812402,0.07950765802878977,0.07487255239407799,-0.06165425807830247,-0.0900831849707596,0.01037103325608976,-0.059143803181239296,-0.08738353064155335,0.04145851674720336,-0.05054804947186013,0.04560797356175374,0.33513840833752745,0.010041527629475605
91.84525299072266,1.039398193359375,0.013187269328132495,-0.14191044408945067,0.051507582594775884,-0.02930935665047222,0.07448727430230008,-0.12699039344815288,-0.00995786967110246,0.0035393791820882703,-0.042027370269797484,-0.20218940768367522,0.014165390182227405,-0.035761390221878145,0.0071628550641179055,0.06252079922885045,0.06964790371112012,-0.07214359445134522,-0.06065899070679921,0.35848260567858964,-0.18323013124583648,-0.01010651475197415,-0.023023545382487305,0.1026089583017041,-0.08413761001532277,-0.25870622497170753,0.08989813217601982,0.5252619723662532,0.11567025636462214,0.49119449183789454,0.07466128573620438,0.07605066817620491,-0.3351678369817975,-0.2316087133220649,0.09714402613263548,0.2110129936025106,0.060980377118762676,0.4477370483385527,-0.05159396021162822,0.1635498137353683,-0.22254348677977193,-0.42002633732708405,-0.20216286992326962,0.2140159496594593,0.3199876745063776,-0.26361696828687414,0.005064816140662094,0.11812779023025821,-0.4067754361465713,-1.1187894966047016,0.7311739408387952,-0.5998246401308309,0.4456144427705981,-0.1113584987685506,0.03281157125319828,0.08022609309751237,0.11094156714184927,0.1610597278092013,-0.015649958703884796,-0.07525165769541306,-0.036817541135326926,-0.008229401315180292,0.028702849754067908,0.015214877929401545,-0.034250429063907864,-0.10548155373545551,-0.13887543052212173,-0.09620044339950798,0.03371733949831642,0.013745797431766947,-0.020025160876046603,-0.005733227771667709,0.02031119816288883,-0.05414413783546042,-0.14446589988456693,-0.09338226149692458,-0.06550238431501651,0.028380843469570257,-0.07490634934948577,-0.07605955107791229,-0.04512641128116086,-0.02430178309948062,0.1104816918729833,0.031449749855652805,0.02479756628834336,0.007019010968411726,0.08807460891134093,0.011644873687705518,0.03040029461240667,0.056179580566807455,-0.07415729077932345,-0.11062314458114712,-0.07125975221397281,0.09155182200525926,0.07612116177721197,-0.12266401952652654,0.02648723364389682,-0.1220942998086092,-0.09142824884722986,-0.08720189462644658,-0.04315977942668474,-0.2624431780928276
96.16474914550781,1.0496978759765625,0.07916305023399263,-0.13083390802457828,0.1365635397390917,-0.21621245477585077,-0.39659620962632686,0.35333589516142927,0.3079169056535929,-0.001706389114763892,0.008378396733146004,-0.06705925778593622,0.3327540380188762,-0.04830373346270637,-0.024601218170605604,-0.04532551604605683,0.05701105283240684,0.10088579950965566,0.46603267853675184,1.2817104450312662,0.1910610935945105,0.017722899813198828,-0.13350903124659197,-0.12719375945284409,0.0163278297934365,-0.027157240247076646,0.012511501352182208,-0.10962589600295501,-0.07702282154704404,0.08765382986205689,0.29518963693568134,0.4025277416021616,0.022568319164177602,-0.474627641798388,-0.310463977165947,-0.2116104146979468,-0.3832721179927691,0.5059541706296273,0.1999953950412926,0.05228112984865768,-0.16694809738592553,-0.29578621283178125,-0.2765034883656212,-0.19601850927933678,0.2750620642558349,-0.9420293230711749,0.2700886398078754,0.03253607057652241,0.2084715964814395,0.5328587720392246,1.055847155157683,-0.4010825746159875,-0.5115615211071388,-0.02350385513669448,0.19419757809631846,-0.20318381528791232,-0.01943547820064841,0.14904080102207692,-0.015161516314134099,0.015289177439158932,-0.07797622459971723,-0.07241554431374779,0.06237824018066052,-0.0057102806954577425,0.09240521483801102,0.13524447299007367,-0.1528636188045415,0.04104372325191923,-0.03506616230379712,-0.02358586685607922,0.0058758737591492315,0.05676174731078264,0.012441839239702778,0.005987480511346746,-0.00976181445896726,0.050068448380106705,0.021790600179974348,-0.09149356912952936,-5.9303022849174726e-05,-0.017531958644066648,0.014210723781439215,-0.024327517775416904,-0.0560518977473095,0.01088438860726003,-0.04613245505549506,-0.0031158970068707625,0.11621723822793975,0.022862788473369748,0.002583384674892178,0.13331100458358805,0.013006338847428123,0.11661507418230632,0.10299259591960243,-0.05586393152323977,0.09624230054219401,-0.04895544872075227,-0.05822378485593246,-0.06784960477138247,0.001672244531472328,0.16024779652637058,-0.15416844140583627,-0.12679513503223636
97.21444702148438,1.0499038696289062,-0.1247728691008908,0.09072356408523854,-0.01609256008911804,-0.0760212195143989,-0.17111821116263015,-0.39409962465953313,-0.17442724934209164,0.02092384270315206,0.4228729287485651,-0.09609307265079566,-0.08733714463914431,-0.01000518674183426,-0.1126962024069828,0.05244378297949828,0.07693540070122129,-0.0231272101469292,-0.4102263029968183,0.2106163412501313,0.16915641748688548,0.07508577938441557,-0.24069354185662883,0.0433688785247049,-0.003845212754881658,-0.013900192889102242,-0.18366756628724795,0.46196849293735665,-0.27822743044598347,-0.16018711531891042,-0.4310972927963263,-0.283092426915919,0.010290966633128942,0.13414347916544345,0.24955941229900813,0.07258112945673491,0.015408220157085515,0.3707972969883342,-0.3549787185500631,-0.054324430929611034,-0.4112894975614846,-0.29883447856357603,0.5270970487844869,-0.38862708873643154,0.08422917444123898,0.12040241481754133,-0.49384493211170255,-0.7636449437730457,0.0018669510082037766,0.06177091757091022,0.8169051443426752,0.09040005935087658,-0.17802276713693008,0.1925383702082496,-0.3420032063673161,-0.15511314475694307,0.018788453273785012,0.35362468078291853,-0.11352982509910796,-0.06106717161520474,0.007598866899472003,0.004865246696052046,0.05819048594101702,0.06910590356576096,-0.10311045663416703,0.12408747469482884,0.05512669470883795,-0.1287407131906202,-0.14451517782013343,0.14560047330044104,0.01896989419032659,0.0447434574860934,0.030784922137877695,-0.00025635841330128506,-0.24499023397055728,-0.09036908089322046,0.07269215111371592,0.09650198303310512,0.05428234998584626,0.015644331755953114,0.014077411562630137,-0.040255286675770136,-0.11488675559068216,-0.11592242490097932,0.1359107606919329,0.08058338826650725,-0.009383719527996673,0.06642004305222708,-0.06265803151381828,-0.039209387585696705,-0.10977105525399648,0.04211518681860019,0.3246398411605831,0.05602928344380001,-0.048959737342805565,0.0375714373691692,-0.06973089430613683,-0.09642540688707502,0.09081906832203823,0.4595575984410904,-0.04956014581514804,-0.04855782125314251
98.26435089111328,1.0298004150390625,-0.19355401728575578,-0.34892749006463203,-0.35600942595739105,0.34296589100803365,0.21728017269686098,0.13457652132448858,0.49012133906579003,-0.004742710026480548,-0.04845620430544639,0.019694912069628395,0.10427044886085005,-0.03547186066049176,0.31538582882820043,0.015500908402612087,0.0703549835441095,-0.010350022836889747,0.2241894534501366,-0.18271323002046236,-0.21742228199719627,0.44565033687049815,-0.10864758015745453,-0.06256236728251019,-0.02413247601215457,0.022149959361104577,0.2450111141445158,-0.05192059275397123,-0.03283244189525074,0.24647207175242897,0.0898656202376124,-0.07376769987705324,-0.13122355807804315,-0.3011982644955299,0.3317579083658144,0.1532561761835284,-0.3590329535599885,-0.10377232311260302,0.3744417830303981,0.2915645813690054,0.5051165101318754,0.36890345202316527,-0.11887037798712202,0.33158288650090245,-0.013158833327584885,0.2821309683181965,0.6462171011013468,0.2748030335382668,1.9759731160471483,0.8244521342335674,0.4605583108032939,0.27290944978592424,-0.17491040753496923,-0.13523545327783082,0.05186876210176343,0.41975555269239506,-0.21774298305016332,-0.09322314995289523,-0.08673037755242702,0.08995573373355767,0.009560168914842595,-0.012010545458961075,0.015407568797325868,0.053315044877570904,-0.038281938389183645,-0.10793652985908177,0.1216977115332418,0.08538293050349846,0.009165554117056107,-0.1593641409051864,-0.04161123813702265,-0.16096369374666866,0.015566478768323134,0.05036945050164226,0.10768628910637461,0.12412703786738902,-0.023278422769098635,0.13149178850304524,0.037000717110355456,0.02229748195451395,-0.010598268444743444,0.04536195474453325,-0.1082241154001802,-0.08463205505539177,-0.10706850354235159,-0.029740793975418303,0.00027605726654497356,-0.0991880740590452,-0.014874347295571105,-0.07996094800599866,0.07345887219087859,0.025986260481243757,0.038228694578904515,-0.06350094032752471,-0.03153980391452003,-0.022695970440321924,0.026674948732373076,-0.009585308994112751,0.0022277385505286434,0.044886033578214024,0.12392242535682096,-0.022961914734299094
102.65345001220703,1.050201416015625,-0.2672042914523398,-0.21394455012076566,-0.11471765219306007,-0.1300565551578123,-0.06693467694018757,0.006370514449973816,0.015661031145916916,0.01173061909587224,0.05783620257493319,-0.02655132176041044,-0.01752350325121094,-0.02989357617467024,-0.007957886696779758,0.0010409047982419019,0.14358460812929436,0.1818687102800678,0.3260873683772299,-0.08718140060814239,0.020224104057551442,0.12519541204935053,-0.24702134958129005,-0.17255628355590547,0.02124496600932368,-0.1435509840775972,0.3836470839774764,-0.1432937541372396,-0.40120836919417924,0.1042010225954768,-0.059132293494395693,-0.10366142978024724,0.16042178661123857,-0.16739318162564237,0.02735863778567721,0.06256419651100044,0.1583623413250737,0.16078403600728297,-0.17802237120334558,-0.09164725637501737,0.16815796528881016,0.11933867802548666,-0.320659628192217,0.2953346275344291,1.1961034532087773,1.5198109165992086,-0.33482919536433214,-0.4400069059719664,-0.1666604645692993,0.4628902388874921,-0.2718110033624752,-0.43819392162447524,0.4462219065004454,0.11372659892324756,-0.0833024682325893,0.07430698815291459,0.1715123615563446,0.05425315704512702,-0.05656541890370315,0.023833166279309835,-0.030934494447566737,0.014452369830610197,-0.01158122615166994,0.024704634552515835,-0.09470619624858657,0.14245019193205338,-0.16279696869258928,-0.15485630020335356,0.04101863694353371,0.026555536671328126,-0.11836080628302113,-0.05121350685033574,-0.0004454495710542253,-0.06418471772607222,-0.04725754629800061,0.09352176384331103,0.12356415212785123,-0.0003050970195689763,-0.013889015156194777,-0.08416968540984691,0.06343051802894009,0.03960013628460955,0.002622185876491516,0.003619541115499147,0.03341357151673267,0.035881597888862235,-0.06878796747100577,0.07573976963572551,-0.06286712499022436,0.042534420587479096,-0.031528711466024595,0.051397905909437526,0.16426330424322494,0.014196985092742712,0.02549888380474452,0.06528827983494381,-0.04869633785705442,-0.15004651365773308,0.03201520126649228,-0.036944448188646103,0.014476442645899916,0.008992096036129445
103.70365142822266,1.059295654296875,0.15895064970589964,0.2229822849230686,0.3317625356656181,0.03816126155555735,0.28131523090038696,0.9040633294716033,0.013053226268394776,-0.035079327615398476,-0.039560376301874325,0.04672423853088559,-0.04750789496969039,-0.014387644471744702,0.0905644046543928,-0.11497064878909824,0.1569369680440317,0.11460395694739946,-0.4030183992544417,0.37216054639495305,0.05009001470375975,-0.0977492644144927,0.6001219350435445,0.16151631829068255,0.06461498466346416,0.021238551418713003,-0.07498030424508975,0.18140105805770332,0.001510102855212984,0.42671412042911616,0.23077752311827127,0.07205845565379973,-0.25782761771888374,-0.14618405181040028,-0.7475920792984044,-0.08770329144554208,0.07301768531774984,-0.13334608105783227,0.10941994334981311,-0.6142793284481044,-0.3726969890409047,0.4308265896659554,-0.0977059861297651,-0.49441563738401123,0.01734400919637282,-0.284185714927167,0.36183421752761524,-0.44577551006875177,0.3598156267409446,0.9786771664392487,1.046614129993331,0.20856684104226755,-0.31585230783448226,-0.20654442689480054,-0.44515616100102334,0.013960272533550176,0.08438169409995727,-0.0441176942100234,0.07546273073819953,-0.050468669133941345,-0.03917484468137514,-0.011308410262825693,-0.0061154634111216955,-0.0069905007632984385,0.0014968812493930737,0.16222873515594396,0.1301121158544241,-0.1760041075357712,-0.21201976365922318,-0.01054484304912644,-0.0602725559776853,0.05256215418526193,-0.01754003328707908,0.00773359858391949,0.02037647485159104,-0.03478690175190542,-0.11279959487308604,0.04269453659782754,-0.08623537741305662,0.01639207478728392,0.0141851896023595,0.06272664435195754,0.03387470728573844,0.12335041288194837,-0.10121144274838878,-0.07267621822770344,-0.10799215627880326,-0.021911477915509597,0.005410314260561944,0.017844088622938188,0.03402401552081752,-0.07854692196407334,-0.0205052471815792,0.013854667613271476,0.08522206687538114,-0.09150184163779677,-0.0735367682364099,-0.029779096194341242,-0.056704455674965834,-0.020378833497283595,-0.1087565243625194,-0.10518588525777786
104.76294708251953,1.019805908203125,-0.10460949319316984,-0.059517517402691955,0.4504399817689105,0.10785809274502846,-0.07574870100702781,-0.05121852646811565,-0.07032365016539134,-0.06490021740798084,0.01839179621916212,-0.11558425648016325,0.13101319440254988,-0.1445951111219822,0.026584335696215048,-0.016786855187925276,0.045721801134501625,-0.08537687086164605,-0.5396375310703887,-0.3994171080844985,-0.024125665641496822,0.06369204940291384,-0.2458463783558834,0.07651363841487319,0.12191731439606766,0.163664787591478,0.1727723419332082,-0.5283559737892285,-0.21692710275701926,-0.4221265370505229,-0.14468090261866812,0.17913573597204313,-0.08377318620729304,0.08388213265398822,0.16967636483936985,-0.015348374164987143,-0.2607216748154494,-0.09019622534509446,0.529993719840138,-0.0876688304199189,-0.0930607093609613,-0.6456368909552761,0.10130308461670415,0.060677492357954596,-0.4645051610824918,-0.6326236872747903,-0.0882466079257014,0.6821945676994697,0.15751968737317007,-0.44424762095733933,0.47413318596628823,0.18760813847863914,0.6653149250747508,-0.07706324811697192,-0.638204795965805,-0.036420407614293465,0.07716755260698445,0.508379029927559,-0.2186591766187479,-0.2446982959337485,0.0010343932487595318,0.010714238393505366,-0.019643938931012822,0.04834816531417019,-0.10274774337810165,0.03918292752713573,-0.12053289114580135,-0.13209214805088143,-0.0659605178403848,-0.014909240142717016,-0.042368773626531006,0.11419257049867916,-0.005163724939682425,0.041444704384905884,-0.08345893711534758,0.07077657202503859,-0.05238879626832836,-0.08281719457357113,-0.1506957454409839,-0.07107189172115524,-0.024196096839514958,-0.008683675402252185,-0.32811507149149527,-0.08504437467057967,-0.0017810425413859682,-0.016965561827459175,-0.03922746298335046,-0.0587896680105068,0.014833511933191268,-0.16192535628995944,0.05045759869878356,-0.02680502584016685,-0.08023118788452656,-0.07543529679085646,-0.029620776453083503,-0.09892580321818854,0.0613110948419521,-0.015681680445183255,-0.00887026934707967,-0.11654885799172349,-0.06857504258768557,0.10043240150848748
109.06285095214844,1.009796142578125,-0.15741141322531899,-0.0396830944079723,-0.03469543699209626,-0.15032506454265576,0.12687873150865692,0.26990797877529293,0.10521739682617623,0.09707671624650416,0.08564169879918751,-0.02198260300594836,0.047770255134909054,0.01875807279204731,-0.043131334903285586,-0.14244014408692507,0.1228664959857795,-0.15940679741840746,0.1027887119908907,-0.3541217522810553,-0.11439515319515403,0.25345014584622816,0.40486264605176725,0.11116427600537741,-0.2290337283579936,0.05273715408802338,-0.40845531900563703,-0.1486032137965198,0.19114531111796748,-0.5445752909324302,-0.058760152013503784,0.31395394814109007,0.3945436760000492,-0.1469048207459722,0.44702561623636294,0.10935324044874818,-0.06003239006849638,-0.23686860142508004,0.30379942143764904,0.17646191294004987,-0.4295506460690231,-0.6235803221264711,-0.19301989470641678,0.26288292692676407,0.6287068903971125,-0.2653326473486176,0.30172842977887043,0.8657761458566433,-0.04499161872040747,-0.2239716110484803,-0.42239728130483256,-0.2195405875948818,-0.39756028753566913,-0.018759067980739147,0.15127922757196208,0.09304270206897561,0.1806319306159361,-0.10077303037774021,0.0320839800781898,-0.04817280945032982,-0.02971974601745473,-0.022414068170810594,0.004661354526543732,0.0008190028647582404,-0.004684166857657574,0.19476178727293542,0.011902625509689388,-0.07729630053943995,0.06945051517703876,-0.016502866477765103,-0.08309193720050703,0.14862557236661705,0.029132697635503777,-0.05655008792069441,-0.18004787843757383,-0.02596946852857746,0.08760395952456813,-0.0049612850108090465,-0.10229154848011104,-0.0368250944875194,-0.052009333297855675,-0.020005444693529426,-0.14219866690920896,-0.07102499957618308,0.02240273110097773,-0.006078937574889084,0.01279290947384022,-0.0017829828655053933,0.010762793001069254,0.01493748551580325,0.03370551870937424,0.009644746407879656,-0.005509968327751538,-0.042739606646938266,-0.003322494014456445,-0.04120953132206561,0.08811919200061641,0.04951809798368977,0.001079043231943605,-0.029939674096150004,-0.16817158299350443,-0.6210411665634308
110.07264709472656,1.0095062255859375,-0.4873768951361547,-0.01339209898564784,0.05494800193973404,-0.04279125742914797,-0.12251346656200626,0.0027126886921848836,0.11595127696397249,-0.07670622856821666,-0.030569621974768035,-0.2446830806698512,0.07257097995656747,0.012681959531164227,0.05085202688667661,0.06163465863272383,0.00482828560421578,-0.02985174736594971,0.056685953395864505,-0.3357030398039077,-0.08536854622547052,-0.31752552202364726,-0.4701180341600339,0.17674599139090771,-0.033402241565347664,0.04859698759910243,0.046753704024819195,0.3866330102470036,0.1434295684080013,0.47630720446003383,-0.0433533286228627,-0.24907506965212853,-0.04623092988916419,-0.1516116596667377,0.6089518579690998,0.17587952589845912,0.36901517723446103,0.04991841439305244,-0.6360314932196081,0.08073568272184733,-0.291943877626653,-0.7194689425997,-0.31515229031438186,-0.8800791767749652,0.5503604153021268,1.057430052174422,0.5920501125089965,-0.19969828989527666,0.23024259402441524,-1.2297282742803641,-0.3608629622291514,0.3595224733554063,-1.4636027202850128,-0.564056320023064,-0.1576349836274664,0.24557504995770948,-0.36862184315475405,0.04099601592684433,0.06152920046133066,0.012620160785518305,0.007052465353548479,0.0018474586224320935,0.03239632037190729,0.027093917665726927,0.05586284441874677,-0.2290014616093826,-0.1182393476446224,-0.02074026349398081,-0.18834124820127976,0.17966182225525698,-0.009510976909613124,-0.06736550095567702,-0.10086833543983545,-0.050276324656369324,-0.036911882278022716,-0.01667440217366236,0.015627975261713792,-0.11678765758629626,-0.1385775929400725,0.038399142170881785,-0.02546791250141716,-0.11102884280093822,-0.10947015324914713,0.027665516782259692,-0.02500207175598845,-0.09814390774466472,0.01067009305932452,-0.09862105929842127,0.024691869706017763,-0.07718371347659266,-0.07288491541489872,0.2319791752623529,0.023797988650512622,-0.05292044757810016,-0.06977661395753758,-0.12595944334467765,-0.05732379691769087,0.07238505053047332,0.02012206406211868,-0.1435980155961709,-0.11538274839737353,0.14653729514704716
111.0821533203125,1.0100936889648438,0.2939081139043213,-0.3959694456784932,-0.37637452827080337,0.09247678963156654,0.2331693353480915,0.3052665545231093,0.04165121776880506,-0.16520407505991672,0.029858185383249525,-0.07204568451526736,-0.0991402243251012,0.07874244935149063,-0.13497658684452826,-0.10608007955409567,0.14099812442390036,-0.05920884460962396,-0.31767430066849367,-0.44288519934568465,-0.19036232120844376,-0.03610616172085154,0.03527451541933549,0.10206444300451807,0.11346433304052506,-0.1896236979655097,0.21662917665510725,-0.02920489479690966,-0.022810869030308656,-0.6461499736413696,-0.11546859160734163,0.006093885605166587,-0.04279043742580729,0.3781492048556868,-0.517128654445971,-0.10739633404509019,-0.8665410666420896,0.11281834991041895,0.48104670894980595,0.09447598590189338,-0.07896326909441843,1.0385581050476913,0.5249252597887804,-0.05052518959925715,-0.05897373892131905,-0.1699302233655702,0.10368935659415357,0.6688157032333617,1.70174979881959,-0.14306686760360685,-0.07437994113118006,0.34200451269627447,0.15737768071016311,-0.03567304370634133,-0.047511134359198265,0.002080145471392097,-0.0425175308069145,0.08868163724248367,0.008983477261764908,-0.06368804597506,-0.010056087519145874,-0.012666418448165106,0.08322414317455089,0.18359818663704947,-0.018779625926475002,-0.06651152413292939,0.029602949217795146,-0.01183239626850233,0.05919648474027026,-0.005078042966246621,-0.139265383736513,-0.10159462540317195,0.11009387235514277,0.06008786439501516,0.05449279602088,0.011816801758079715,0.027339881909212764,0.017017128829464503,0.05655075766980274,-0.060314579242790024,0.049756966451494744,0.11795452109215304,-0.003902515609404935,-0.01541816240753005,-0.03359376936400637,-0.18855824385843267,-0.1894491675507774,-0.01064769857690626,0.06943705968740253,0.08693953571799087,0.03125282293931779,-0.13656355499215264,-0.4644337044276195,0.11889351826723399,0.017686852542866064,-0.0302809294435839,-0.028541120716707006,0.47891044339113614,0.4090722381020019,0.3132476941058225,0.05917476152596783,-0.16858738377153495
115.34194946289062,0.9897994995117188,0.5219858028986306,0.03215593003618697,-0.2675401543885389,-0.47403889928878046,-0.21151395174033238,0.17211765616229396,-0.05286368767394113,-0.389382928954325,-0.3187381859622106,-0.10778255320231536,0.024815809916864134,0.019582623329674854,-0.03800251760538529,0.2353965282072822,-0.03053514553461257,0.9293478727785878,-0.054849374680810255,0.34594940033447613,0.29082347358853944,-0.37413719659332717,-0.10933080522430522,-0.062460681883375,0.14606588284256306,0.032640372258977396,-0.17687352317021782,0.0011403803262378526,-0.0646628497525178,-0.1495933787576857,-0.31477433773296615,-0.21691069513678546,-0.2856710305350197,0.5369071572328105,-0.0033468594507310573,-1.124504694634066,0.17633004512617412,-0.5439237158908217,0.5580897189405913,-0.1885481367621425,-0.47854492049229946,-0.31016065715665125,1.5586721184976287,0.019685551951449443,1.5922747563194803,0.44065878188445423,0.842993267387186,-0.08444857333480124,-0.43350775592019064,-0.04548341925000687,-0.6455108152445785,0.4380515008606893,-0.2508359541285122,0.060952694888185194,0.25774717374800815,-0.052484225111845126,-0.05844410029776642,0.04163947783828713,-0.006546630322608299,0.003836939289913417,0.0033542043117569037,-0.03634493782215176,0.06380012153213065,0.1528090013649061,-0.06708091056306834,0.010143741316743782,0.0801762508280586,-0.3007867417690423,-0.15597946198725848,0.06591720935815783,-0.1781685771001498,-0.16491630331131338,0.2473878512474416,-0.004705552910537134,-0.25714714601599215,-0.11505679783522119,0.024043014603173506,0.0029313888014026583,0.010617940168723786,0.010770204941847937,-0.14620185671589933,0.03776811518552655,-0.02685981413247477,0.06459341884534071,-0.055592676248955156,-0.03131910672778447,0.07919785975377057,-0.01008045929674383,-0.06339964867449144,0.013586187342776307,0.006406327007598973,0.08545066107276045,0.11651860480821848,-0.014522888487863992,0.08362435452145486,-0.00864927598162274,-0.1285735569793786,-0.08149385870956478,-0.09724804420551035,-0.258457102361622,-0.06453323351806653,0.46793572641688036
116.33174896240234,1.0198974609375,0.46250568416901006,-0.36816444402518544,-0.12385091798169968,-0.0967866116153496,-0.17924337370555155,-0.1213703568179149,0.04604340162320347,-0.0934295169861915,0.18243120366784443,0.09589031241828931,-0.23197828279416866,-0.2195556616892366,-0.034748381213418736,0.2427440939096626,0.07615956795560874,0.03538688474777142,-0.07371300539904105,0.10405806135871865,0.17390003953001892,-0.6915819385937987,-0.4577704030328112,-0.02720411027541256,0.19788773592345907,-0.40695519550236336,0.06943323799017714,-0.2042523978861623,0.14050269537117563,-0.016863923108025924,-0.38313851481327044,-0.046959492335980846,0.058243390962363875,0.04328299563683008,0.13849679788065455,0.045640770180310195,0.15625801016370758,0.3530449110041071,-0.09987951134992988,-0.8824867986373858,-1.1652197783926772,-0.688918142701606,-0.07482395251921892,0.10077302195665476,-0.6121822956869486,-1.1217931872882454,-0.29677954060209943,1.2608791663223229,0.14773168175993895,0.32695571847534943,-1.636154885743658,-0.2581744494921945,0.5194976641040703,0.0594131161690825,0.05132142999283381,0.049572274470223755,-0.09399845448878874,0.13008971863922422,0.012384104495485045,0.04393469754296959,-0.027373575883544575,0.020256130755769465,0.04285168353649419,-0.05779080084312758,-0.03466878063690493,-0.22959589554334703,-0.01793848594353807,0.2831231664567337,-0.20238014244458363,-0.11758201808089368,0.02215177691870234,-0.019741593158494195,0.09548935796878823,0.04758122032026509,-0.04634974659402125,-0.024543715320707565,-0.1638057915991652,-0.18340863973259597,0.17112023138498708,0.06524331063295681,0.03870174467422893,0.006835518774585903,0.007846917090759983,0.02408392762938187,-0.023032864775599408,0.025597689737864412,0.04277029893548327,-0.028464165026267016,-0.05309684565344177,0.07293533885159023,-0.07270254550105582,-0.07912430191468699,0.06305466803244239,0.025722707922723832,-0.07755023258988451,-0.04717029612695787,0.12577554235528052,0.2793853475203696,0.1167978790860958,0.07213122373307114,-0.2838527709351106,0.43073607716488993
117.35164642333984,1.0095062255859375,0.29527856942012387,0.36333103804084216,0.15558737607024378,-0.0800503703484926,-0.10947542099178427,-0.11281962867980781,-0.010760536024701138,-0.016187344571293852,0.702751822148176,-0.13438301332200137,0.06229679849366932,0.06971191351314371,0.09580640263348414,-0.09181670102192785,-0.2581929215347638,0.5063513672811029,0.15902579921725232,-0.5542423229459145,-0.045465353099485406,-0.14358434911159335,-0.6403072981891927,-0.022403578735198826,-0.07838995268007992,-0.08750342377121588,-0.23924121369763782,-0.3067651329071984,0.0027750733717679874,-0.1983229946781082,-0.30753731981163784,-0.3475698166809954,0.003456600825092887,-0.22596438040489014,-0.2890958483182987,0.4469986071276512,-0.22185806782282028,-0.4159716224139643,-0.4806486321626784,-0.06550961882627684,0.022790680079943587,0.36832991162275597,0.6973525809556377,-0.165390341531183,-0.4000534045025801,-0.4851402754023517,0.06960469950457161,-0.2647284661940461,-0.5934891449995715,-0.4047755014071347,-0.05572183797761604,2.294651218842949,-0.36866893216515495,-0.18700171132712945,-0.23413497994914922,0.13312984300038322,-0.05621870473723798,0.03803625060766122,-0.03956857449874493,-0.011838573164989201,-0.0009391467727804969,0.003917181528490372,-0.05748616997842762,0.13411978127812232,-0.022939936923957342,-0.010349771258895333,-0.07891949635611163,-0.03541833506970259,0.10264674310793438,0.05829788356072257,0.0905995311855295,0.031871474289304716,-0.12844319786004188,0.140950683048764,0.1875898609692094,0.008622678867204758,-0.05843224763514006,-0.043244745735698885,0.036729785099863986,-0.023576328515390668,-0.023246368637925306,0.14596295692087047,0.025475581703311042,-0.14693320659970968,0.05531951596065941,0.018574871107209668,0.034928787632351264,0.08299886112331988,-0.01622906211393968,-0.02195558783550174,-0.1426561053946178,-0.016000010412439626,0.02819411790293112,0.03835637100948985,-0.04874686747897554,0.06529891475733812,0.07002919955546605,0.13405254716290022,-0.05009702276261421,-0.04560546167001989,-0.201546415014968,0.30576668689739317
121.53085327148438,1.0199966430664062,-0.09984723561905254,0.29557377124091844,0.09585427150659642,-0.4208402102105471,-0.36259997470784383,-0.09607493107870961,0.04513849785837428,0.4998760218027783,-0.002530485688453441,0.02510046925558039,0.01404738887655902,0.04288786727356135,0.009122383830547282,-0.008725137074274542,0.21278957137757165,-0.2614699816431319,-0.0807280812901085,-0.03154989600668773,-0.2714556854141672,-0.024619233603903293,-0.2785426378031743,-0.46973174494294506,-0.022600647453904305,-0.0483598214031374,0.313133792782528,-0.09093537243119276,0.03583376677063665,-0.2521748565553781,0.16626147893167587,0.13045142144778404,-0.34736376067287844,-0.09447169671273865,0.6562563261006679,-0.04346857200431753,-0.7816783470736934,-0.473441025821685,0.10423580738333149,-0.684347256346778,0.18012845768931274,-0.3878205824174134,-0.01548459078683534,0.2532516489442991,1.1808340562207933,0.09024616156399774,-0.8564201596033013,-1.0716124341317719,-0.928449308017782,-0.14145665720651857,-0.8459251380955046,1.3225083854955606,1.309399082964442,-1.0456155483848648,0.17925282345463397,0.1596727584015595,0.09008576583207552,-0.04668374172642112,-0.12482360435934835,-0.002298090211310107,0.047628490358177636,0.09474137508277032,0.04641644095752018,-0.006785914400759248,0.19472377039557318,0.029331930889751022,0.15768295459636827,0.2786318539102157,-0.20179495605805536,-0.15154460522671764,0.03683798667329047,-0.06747619680015958,-0.06858944575325378,-0.03374500215537429,0.0980418444851866,-0.11051289629832754,-0.05992629098705949,0.07800659400425036,0.011204711548937001,0.013536890221007236,0.03360341328289691,-0.0737169665878771,-0.05416032137634908,0.07488776341730885,-0.22697788192758958,-0.2664106670958512,-0.014788398302200703,0.1360298869231906,0.04292473145475631,-0.018311501037523548,-0.11281866806266554,-0.019601525129360167,0.011368865384523918,-0.009491501547819045,0.04488394044125436,-0.021548183103917658,-0.12470318267242247,0.001977700652600334,-0.06287225428319679,-0.009629238844241753,-0.17232977145498232,-0.09036339028022075
122.55084991455078,1.0398025512695312,-0.2302931318019099,-0.4918463739580275,-0.23938797409617688,0.3004048102571555,-0.05480194363531482,0.45281017469902896,0.11930624031929483,-0.02355699277144624,-0.2862875459087703,-0.1154254645086295,0.07034519306785904,0.2101343345224581,0.023353411921300138,-0.09123993155645035,-0.06777268730015759,0.1684787827397472,0.517540411424373,0.16976238979913993,-0.07083437769683262,0.055657206210004195,0.03340332338556727,0.32701381503913524,0.18937193535832936,0.2546905529303643,0.08201750682896192,0.14356838223937243,0.05713912814042087,0.1806545729235568,0.06774330814322635,0.25015379750596173,0.04866539855914202,-0.3284251184921988,0.27007206414163565,-0.24062900281427818,0.2544644958720051,-0.08265842742437057,0.0332489485883808,-0.601070316405955,-0.00032966020025973486,0.42493579167681794,-0.2876880418184192,0.03734546296792873,0.1098091383362984,-0.5557178645093761,-0.3439144853331354,2.795113790390601,0.003234392548615725,-0.13815950904552432,-1.2767579335585715,-0.15622535305986568,0.3295573033108677,0.1152594733923651,0.06065380112588453,0.10118628520075035,0.04027372107556214,-0.11284336499545913,-0.10925006797547542,-0.024675243959676837,0.058810937627943184,0.0029541159475430182,0.030883705005331864,0.18120715109589353,-0.3589198767187871,-0.27254249055482865,0.15556402482162207,-0.05368690184623082,-0.0642545671387527,0.030458391685387297,-0.052819409936186446,-0.002316540408440276,-0.12306596600657893,0.037551988122064076,0.17692139989119174,-0.05464357999322144,0.030133490461554408,-0.0696844247879548,-0.005230893313894022,-0.14618850273928716,-0.02646116546699612,-0.004359189029915478,-0.05521062034855778,-0.023396441420164133,0.007566738010137866,0.004983916669942107,-0.01911454029537194,-0.01037825760160247,-0.08647346999953766,0.027691752156534473,-0.0921423009211379,-0.13215013991186927,0.09042337326352834,0.0014849387598735682,0.13645473617970263,0.04960238585797729,-0.1275834984817108,0.13537253837591445,0.02972435025131554,0.19103699434853635,0.012714887849489464,0.014820147731663541
123.59065246582031,2.1396942138671875,0.013967180808022742,-0.09429921904934727,0.1836238365231167,-0.24118057790349978,-0.0702166792683816,-0.1859313169995338,-0.006808455220104561,0.05716929012264517,0.33360155839101935,-0.017641936634253855,-0.14371390666817568,-0.09910691317138834,0.22149378621747107,-0.005214490997638603,0.009121847872827174,-0.15581191961537058,-0.074235281967854,-0.17388810237330882,0.2566562379330818,-0.5066527390604837,-0.12392334148749068,0.2321729507879336,-0.059648636048096074,-0.11831766867453351,0.16336093449633393,-0.3647993893147792,-0.4411439087491983,0.08697130633073784,0.4210508426639467,0.4519775671567917,0.3352479644937725,0.20310806110424434,0.02142875262632623,0.19403179492211076,-0.06290592242603887,0.1118379719156325,-0.6934296611773362,0.06969476285357692,0.10478422938738535,-0.20067494036202002,-0.4659838296940061,1.1253442767480792,0.26189358044358874,0.3953406678289208,-0.2807710407742162,-0.18719025817773927,0.6735927291018279,-0.5508939087467998,1.2132302984098515,0.11597170792500786,-0.057987057290823825,0.2787204224000992,0.09926433008043836,-0.1206381536977564,-0.1938022155744751,-0.07521496575863797,0.037651388397164545,-0.01889744965551958,0.017413925974537545,-0.021091723749848974,-0.03833353874860236,-0.1017777037637154,0.0790059356811427,0.13832966206943736,0.10108338137685799,-0.02688371473116545,-0.06112607090037931,-0.08441244859881243,0.09147084268494696,-0.053864716648778656,-0.13023187512834264,-0.11242155245168892,-0.045747338402102704,-0.004275107139044186,-0.03633745133934399,-0.009927272580664167,0.08152043253688976,0.03151721133563998,0.12436452127633255,-0.1440472923535445,-0.07211882178975781,-0.044341091403680886,0.1812327208253503,-0.06563153775531784,-0.06595533442999278,0.06225663928076344,0.046914894782820106,0.1192657671303442,0.08660684782731225,0.2865116374120324,-0.2471375219528728,-0.27186187170012127,0.08292401256627187,0.1950135376028777,0.008614280172205856,-0.06864320416613802,-0.17061358507911475,0.1947735962093963,-0.13475384666951817,-0.042121896408752274
127.79025268554688,1.00970458984375,-0.15618499983620954,-0.2507683000533342,-0.05467317519054419,0.053088038049007476,-0.16685144973417929,0.008101658100570997,0.16663943611274024,-0.0853653026004731,-0.01845530004027447,-0.059539726632312204,0.0819543945157158,0.08408062677784303,-0.029437098129613936,-0.10000957329161078,0.11367479324770188,0.062481697688619414,0.010930631106761903,0.26956230302726214,-0.6877012678217713,-0.5468814507525241,-0.7382241225951979,-0.03419014028838417,-0.06773414804105084,0.08105877828300859,0.14930104447439613,-0.011352227498476915,0.31018168773048976,0.12392669760683654,0.19648875257479093,-0.15291597998759343,0.013977251211826922,0.07205544775181086,-0.5305079525186764,0.20462760257385407,-0.1293472379569351,0.5468466956740052,0.46239937829364375,-0.484046506819574,0.21810689499670902,-0.40562987678894075,0.2766646885422369,-0.36682824277755016,0.4327650177844845,0.7511295012195224,0.8966309637662848,-0.056486691351157026,0.31269421708000317,-0.34740119858647794,-0.21396447495854864,-0.33080874861255116,-0.20590927555089036,-0.30683625083979843,-0.49668074545260127,0.15934800602700222,0.051531874064385814,-0.0335465370960215,-0.0701260824595181,0.0026390522770155045,0.03509940743755454,-0.023617713684573823,0.03229527274503262,-0.03237866366075773,0.08210448728092327,0.026041527934235916,0.09578357303151011,0.158146069415658,-0.08514235370048265,0.027884888295457808,0.018237831732338082,0.01959479866207746,-0.041012062354652906,-0.015827466787552785,0.04275958210282558,-0.015444945281886086,-0.08014078740134109,0.08247378653601727,0.12006373395579657,0.0568815184315677,-0.0638187257903033,-0.030644075391367334,0.013026287089036932,-0.0006514635832403776,-0.0226601583046237,-0.0005539575718522977,0.004888368568668335,0.04002050475854214,0.013972080766523617,-0.061870409305649327,-0.03618923898814351,0.023073517319709018,-0.053977962942474325,0.08848189026235707,-0.04693873176678355,0.036981880045370785,0.044363462837721426,0.030748820093293834,-0.126321835649397,-0.18575709733934676,-0.07587868822204787,-0.06042475132055619
128.79995727539062,1.0295867919921875,-0.06208190867510188,0.2324663261435271,-0.09801173514642048,-0.4389068793986682,-0.32987937449649835,-0.4531661892758668,0.017442323247561953,0.03495599294097518,-0.01030779886669906,0.08398440582356735,-0.09655284850359268,-0.08730343511500238,0.07573776574389875,0.03600255297265233,-0.005283555852672161,-0.003895247400629933,0.1441980171623207,-0.3870014511708561,0.027907754121783836,-0.043777513006063765,-0.23596307874918,0.2399424333595093,-0.12720274426876285,-0.08862523125011508,-0.17567750160903803,0.0033454593781756387,-0.47937176096242223,-0.2618220892677763,0.07254864404814876,-0.16284696654750053,0.1759447444958658,-0.10760521828927457,0.10745235988211675,-0.31153284874774206,0.7275777757925632,0.05273320809870487,-0.33214990326259075,0.39757717575094487,-0.14622153247789982,0.2730845385780669,0.32406410206047953,-0.6465614034404166,-0.5325284731557711,-0.27695367814966,1.0497316760176527,-0.3180256086203256,-0.5810460564990919,0.43125520475603774,-0.28800498811492226,0.3092442142065465,-0.44116797316207906,-0.1996567022164273,0.033967430802227735,-0.25666730632735246,-0.09622769194100525,0.01901469562033839,-0.021850779268439993,0.07151265981123221,0.07185476179370015,0.003080535516858721,0.05227358532072364,-0.06384658374888956,0.06958299532863457,0.3537808230198199,0.10456126663278344,-0.038557845029486414,0.02932070647698109,-0.08701083615001202,-0.04122131062362254,0.037359034257970866,-0.014372252406281861,0.03044274679470403,0.052822746700351565,-0.012492935196841934,-0.11112108419663136,0.06754025611193858,0.05931028303241839,0.03905321744385566,0.011891256672041812,0.06288523527184998,-0.07795031466345889,0.007376728283057431,0.008899054802847124,-0.0742625132471314,-0.046239794083211945,-0.038298248881306916,-0.08046571987511739,-0.005090546353013284,-0.014947426805306125,-0.06191534029835746,0.12325511530845415,0.07229177462250462,0.031041909355348035,-0.11012752493225059,-0.0976274980908774,-0.11372098589423296,-0.03868988863789255,-0.05984723501841205,0.13739073454517367,0.06588323226209764
