start,duration,0,1,2,3,4,5,6,7,8,9,10,11,12,13,14,15,16,17,18,19,20,21,22,23,24,25,26,27,28,29,30,31,32,33,34,35,36,37,38,39,40,41,42,43,44,45,46,47,48,49,50,51,52,53,54,55,56,57,58,59,60,61,62,63,64,65,66,67,68,69,70,71,72,73,74,75,76,77,78,79,80,81,82,83,84,85,86,87,88,89,90,91,92,93,94,95,96,97,98,99
9.072600364685059,1.3793001174926758,-0.10232973255018502,0.06282814598129394,0.03901716372769969,0.15221628053939226,0.11059439789401694,0.24753608818452089,0.026125232895675688,-0.09927395224615905,-0.005363916486355189,0.055393795867167625,-0.004065075703865248,-0.09652358330155965,-0.04099120412262498,0.17344346526254903,0.437947253116561,-0.12606441795341833,-0.09361596208840506,-0.15637866603572576,0.35914318618944635,0.11256552420094741,-0.029050553933705626,0.04814029918792908,-0.015652690218158082,-0.22028427746240403,0.16788685985835478,0.12408043203714307,0.18863442106971756,-0.00262413692117664,-0.07141136561703902,0.11430061261035088,-0.03729390976877326,-0.08529381406714061,-0.02538887751705832,0.01044173546523457,0.06320526260747095,-0.06069521044377094,0.06601187584558955,-0.06589604479526623,0.02289935245741226,-0.014007734474514949,0.0687965632613695,-0.016688799962339896,-0.03393119362697582,-0.03926931121797593,-0.01565591930321914,0.0030547937146870006,-0.012265984375099022,0.030343923580000935,0.01474782920110392,-0.08525789264705878,0.0020236555775951562,0.01401597097203225,0.023014854427562154,-0.013823943967296484,0.025214489032526363,0.001069766680140501,0.0008662853981839416,-0.026095982563501575,0.03059877510095768,0.1124491332504656,0.005528842332206546,-0.01750014660326428,-0.03313912580518109,0.06387519793744242,-0.028619973109897785,-0.06092249060809325,0.06944161484730937,0.0056800367108009115,-0.012915836154125261,-0.02589924595747909,-0.039530374254811464,0.036225695458103904,-0.03907006898514866,-0.06004085605546505,-0.024124599447605206,0.009340505686241281,0.04659546186934114,-0.06057382841664699,-0.05336104984358851,0.03378844711025623,0.04064677806226833,-0.07787466831793861,-0.015280088520464308,0.03366647858673453,0.004183737091834065,-0.050699254908037276,-0.0007699593362043767,0.04014043935102578,0.04309992431442458,-0.09571234658796096,0.04027439862913084,-0.2634672420629292,-0.5456605949593631,-0.038544568553768345,-0.06634718614732896,0.01018079049593201,0.003263483622654509,-0.10430735515176703,-0.04629211890769723,0.1250953125452249
10.451900482177734,1.3485994338989258,0.11702111826097668,-0.012743874254401441,0.09687338294423728,0.028161650948086696,0.12932705047110138,-0.06539841562010268,0.1177669725954408,0.08210699879768939,0.038612105488853854,-0.05125184471592918,0.0011280476898020645,0.0004800491343771548,0.034038190758682224,-0.047810940647325266,-0.0021853202571623064,0.004183003915383066,0.002310755036496468,-0.006070313221856399,-0.06576607872622155,0.08316221169760032,0.006866486988260145,-0.020174522282224695,-0.039732990683655954,-0.02283945804777747,0.05525246666650862,0.029482998787919202,0.008717195071651015,0.004114110618607747,-0.024041083978110514,-0.029015015288432037,-0.009074863384822182,-0.004159004868764364,0.00932593104309033,0.016697177902176247,0.039558062761613284,-0.002639005921033805,-0.10290238857511273,0.003969021417409286,0.03504998440474445,-0.057977230753838475,-0.008717314376536452,-0.008103534608242424,-0.029236999237785576,-0.012663135113218663,-0.00930074055022595,-0.10586092443031159,-0.030964166512512534,-0.1012981554149769,0.03442452783307132,0.0691394177521898,-0.026053479616551186,-0.08644692223942933,0.04389151365698886,-0.10798387554495907,-0.05699729261688656,0.031368360982596565,0.05204790407836182,-0.07496786255551047,0.05576974732589492,-0.032456580947747206,0.09444328837703289,0.006764131247028689,-0.04752159442680672,-0.019660659159502908,0.04246445408173553,-0.005092459970634011,0.05824362317644501,0.00017957010723808212,-0.11136824282591753,0.0754921205299245,0.05808717349215805,0.08112563438300789,-0.06642768225877377,-0.022731986289724337,0.01530126291802207,0.017466653948182587,0.05605604890648905,-0.018740815771515724,0.036910994318963906,0.034503374543752394,-0.033067112623442446,0.06890349934599758,-0.06164487198777618,0.057350632919911514,0.015978705088446492,0.03868900387822835,-0.011765145462659672,-0.018137328022280852,-0.11948225176281593,-0.05530536224698717,-0.04178075195043935,0.03696248852151941,-0.30610684839545405,0.04738591960969897,-0.28353808073203945,0.023805636128839812,-0.2019114841225257,0.1807384300636914,0.37375358482316234,0.6761128871023138
11.80049991607666,1.3594999313354492,0.6819966794996088,0.29454894522680913,0.0029426844015838227,0.15989283206946972,0.14476865574422054,-0.12961935206006606,-0.35819850566795003,0.11093342316248568,-0.1078864081669409,-0.04565092942764502,0.03637622234075886,0.10618192142356218,0.05504861167322032,-0.056540364485999355,-0.015374527415821217,0.007193933183527781,-0.0021909075350932767,0.01871744169924831,0.07456006201186488,0.008842267586741703,0.0017297911668036738,-0.001673274801578189,0.02441717579210824,0.023116354718617324,-0.050241661863400844,0.038602285014961754,-0.0605013407832937,0.009103219015425724,0.003437727600935942,0.04651237136246056,0.009541689690544983,-0.027192647944801276,0.009123508821821091,0.006476902566611792,-0.018246568697169573,-0.018114448451594902,0.0898561940691874,-0.022154814335849395,-0.0737184398572393,-0.02001348584951595,-0.04689785932297046,-0.026129368785338704,0.05119735057070033,0.04059367340278548,0.05195568380155946,-0.01426010163879982,0.00467731630995266,-0.02184496074482216,-0.04012810467503383,-0.023724726412593454,-0.03193568789928815,-0.004931552751142819,0.00482200687651955,0.004521855441512244,0.01525609386210433,-2.3578982302741762e-05,0.09201814357892737,-0.07927000246325977,-0.022800920055275255,-0.00201957105577077,0.049335549144893555,0.006911435379875609,0.03491766406965559,-0.04795853601102701,0.021612595484041132,0.05630731759092722,-0.026035009246200877,-0.000969236532223125,-0.014601991565013892,-0.0528566670078923,0.03623387036865206,0.001910767791989285,0.028159931670255448,-0.000191030791403618,-0.007456547364242741,-0.051027337836843524,0.057385949900185675,-0.0021513491607679284,-0.004916904610589329,0.001059757826476524,0.001985358562043807,-0.039068502865274204,-0.08730832577071553,0.04259814304040938,-0.017162127103764073,-0.004479048234860413,-0.10276827221023942,0.053859951735288236,-0.030182107605158222,0.10956274102631482,0.10707054396134619,0.16294633352045781,-0.03723132175510528,-0.12174869449866335,0.3744239998711625,0.13602712592104005,-0.08994382147079177,-0.4955362223706703,0.11994230186460916,0.4580728151358637
13.15999984741211,1.3891000747680664,0.31454026705519944,0.048692242369408334,-0.0785759156930553,0.1278393905459601,0.07471145960555847,0.013881244249454805,-0.10958941794696604,-0.13053559553895405,-0.06663589066017088,0.01641415991166917,-0.01801211720651226,0.04488247484360565,0.002617210404098414,0.007337143385213453,-0.07329733568332138,0.009334803410035356,-0.07493720674045552,0.008193691044797544,-0.015155074192525753,-0.0010857709603181872,-0.0012826523804613994,-0.011693757615610378,-0.034388346561823734,0.012559776351891587,0.00959777411722467,-0.008445606018722912,0.043629057294213416,-0.02416011612649216,0.013847894849267765,-0.0024029380794982286,0.0002920085294758995,0.006175558634914721,0.004318198658746067,0.013660734065104449,-0.0052144617038031695,0.09695083526464607,0.000704361333215206,-0.0015061936205099428,-0.05967152980508153,0.013800475955974806,0.01695751378428592,0.012485738660725172,-0.011982457626770554,-0.036083994720703894,0.005834136634039017,0.057742147168938544,0.06501533631959919,0.006995791257271615,-0.0445322598802155,0.00011295301472159813,-0.02804905907240639,0.0437555492107273,0.015301482364853566,-0.025457579375826943,-0.025204228167748793,-0.0074479397715696135,0.004982608522191845,0.02897181487478431,-0.011621314158577922,-0.06589012644408102,-0.03746567407471736,-0.023491385617587686,0.006573203675867445,-0.03947267010086315,-0.02106107061011779,0.018401329175307346,-0.011117663484029702,-0.005555834524803491,-0.006650018556187558,0.02675556300322601,-0.002925100616395751,-0.01368488948495963,-0.06352420865710502,-0.011496798892058006,-0.01367841312263639,-0.04965133833970718,0.11109353075566572,-0.05222058039942512,-0.012448832674784858,0.061751800875708404,0.036287221424034365,0.00773358477775808,-0.054935790682698785,0.06039906350419626,0.021302292357043433,0.00800372630315866,0.0011057627217041595,0.032542173524770436,-0.05372878669226111,-0.00015794769156967856,-0.008162915781848384,0.07942279394285832,-0.04624708051597237,-0.01728536499849982,-0.0236406681179066,0.004079009987403294,0.03777821685792446,0.14807670461950592,0.5354946372101845,-0.15368066405014472
14.549099922180176,1.3592004776000977,-0.1535383011487047,0.20488986354390992,0.019014962956743375,0.19331477412347525,-0.1349246789965611,-0.05941523657222478,-0.10033838179754581,-0.17568299366999654,-0.0483734034166416,-0.10713383536474708,0.05788057167917606,-0.48398131814602546,-0.026589395678077537,-0.14774328759576494,0.05702298279274956,0.056504462811618826,0.06264259476588614,-0.08235417689940167,0.1939686107578317,-0.010010213559954524,0.031736151620165735,0.0031940777268058104,-0.028964137000494997,-0.04926905196113341,-0.10470011728470054,0.06835348116944065,-0.03487752180805476,-0.05732687187518329,-0.032041968536561494,-0.003895380510663941,-0.01239002069991076,-0.03700811920163351,0.006213172288866305,0.004619001840459956,0.037020190799156735,-0.007246628880552871,-0.016188315955758707,-0.024377454074304056,0.04861704340324848,0.00234665090717287,-0.04445357549889282,-0.01865063315585781,-0.058229065135209805,0.026675270741581984,-0.02950129575334506,0.033209483372011156,-0.057673563130746494,-0.0372316673238832,0.060926124716075745,-0.03774475026812993,0.003026953494354227,0.033717318692707,0.029929029131179,-0.06361642849284596,-0.006420462163401103,-0.014908588347966057,-0.015541227411070176,0.04066277297789572,0.0004779345004280258,-0.05221075841870637,-0.0069938593074677985,-0.06843181209090707,0.025027528853599885,0.0752248202454304,-0.02422639970258413,-0.0067172180289108655,-0.024645155854832478,0.00023524591440415854,0.04206997209232214,0.023513400326803255,0.04541845165458076,0.011279556359570937,-0.008831388824726569,0.0006618355695301179,-0.013348256305063162,0.08040142473573486,-0.04179375691904611,0.03778715298232393,0.07239105483192707,0.023443689097412436,0.08960773316865028,-0.006140084364187065,-0.05977813693058955,0.03416173848167274,-0.03039705665735489,0.11519943373683082,0.017976712831453846,0.010384054563042595,-0.009081561466288095,0.020579229058254635,0.14080451595666593,-0.12765905832468286,-0.2429429504682104,-0.3306501384313465,0.0698896172177505,-0.08161598309946878,-0.35071737893603544,-0.14803181569141516,0.44068741246811083,-0.06070412812108489
15.908300399780273,1.2887001037597656,0.03939037362134312,-0.5154465335621711,-0.3468162620631924,-0.008953805764438546,0.019161203461317153,0.12615946508047962,-0.15380703865344145,-0.1544365540679379,0.02115909772023005,0.046439267509198,0.05587477419222195,-0.017580437808223996,-0.012041170221983616,-0.08334924863799931,-0.06331799415610266,-0.020043867030490846,0.004807126285320811,0.024508983335098985,-0.08787926233066179,0.0005351048368315782,-0.10127814525334973,0.043210010295751236,0.03203026960560649,-0.02228533622942707,0.07930871162646116,-0.07577017778411003,-0.038275923339188486,-0.04701798095361873,-0.07682499485234032,0.00243588849113074,0.01630198388157568,-0.048085699414215206,-0.031178009787017485,0.0026604566219649993,-0.008215004486659697,0.08289892814612651,0.06466193912936735,0.0020197912488561873,-0.04869583872652723,-0.003511621027052916,0.016538332574018502,0.0015052023494289278,-0.0008037045835655203,0.014852691959084122,-0.04530207854930959,0.008904173118097387,0.003004861112919678,0.00859018586773238,-0.00031435321486284005,-0.06714918241662184,-0.0030897181918104906,0.09221535931849388,-0.018630177567839464,0.05316172869796944,-0.0031153426321697047,0.001555714148028067,0.0015004930245792788,-0.06625861521742221,0.050128779087181045,0.022678556716114757,0.0047300282240941545,-0.0030970257674994483,-0.021716945325885403,0.024726040702131743,0.045174791292955235,0.047461853160755796,0.036788468762961275,0.012847078506182863,-0.05429391652273492,0.016558031326347478,-0.005633201947835346,0.04363985494116805,-0.048240685612216186,0.0257350749546902,0.05684258962556494,0.0973506844991212,0.023920737732426915,0.032601569849700876,-0.04359798380259467,-0.043143560318401,-0.0511763036134496,-0.024752011066547255,-0.035107896257589304,0.05042410566156228,0.048160924478525144,-0.03680109206385396,0.007785095602791316,0.031841056885627286,-0.08657869421581481,-0.0005961713193163953,0.29245031169704466,0.06009916663232376,-0.13805470134688697,-0.06298471014850111,0.08660990606336201,0.15433379524443144,-0.03814144885798078,-0.03857325015614453,-0.1714712857749955,-0.42609457163263625
21.324600219726562,1.4090003967285156,-0.044483836592947065,0.11760569228974461,-0.019294450397255244,-0.06295917449583749,-0.04414515952439893,0.14120325089182617,0.05973046506954012,0.06096549863421529,0.020335276511298288,0.04530446473401957,-0.02610955125497813,0.013438147457186448,0.0058793750891252446,-0.01014934445181653,-0.012729870402093928,-0.045232751350425524,0.026734199039785318,0.04950498695299931,-0.004980118802786022,-0.005954125483203315,0.0013845750934724122,0.01620904888939652,-0.0022564954082784547,0.03667459297172129,-0.0681296094911645,-0.06343813654324927,0.0031892966603847186,0.006593024667300855,-0.06295296873943224,-0.004167458884627944,-0.021202251009037356,-0.003158561959265604,0.09529720277264636,-0.03790636436570952,-0.006973385731772523,0.030048985398229852,0.05591225634135366,0.010985654772360898,0.01748034058766561,-0.02038318114481824,0.056463460836300924,0.04122553820978105,0.02649590862214167,-0.07522022344743924,-0.02497098465783519,0.031440389865067066,-0.009171483216289357,-0.07384034012907094,0.05711696766798968,0.003286557533378212,0.040861942165609344,0.017620176319673834,-0.024018320016088716,-0.010567431905719472,-0.016147391996363548,0.05611828837049854,0.055152669061480364,0.03777001383338383,-0.05994565611109892,0.04640361608414666,0.006779968690207206,-0.03705251780898092,0.010893610755581241,0.006419132072710887,-0.032737830194730415,-0.028505077142411378,0.03370802788821968,-0.023292341331459084,-0.05681137533376159,0.02964697744973206,0.0071271674729491835,0.027552684397640963,0.08087601350233725,0.03615130702587108,0.06902430276389188,-0.02465916979160563,0.060637311943333924,0.005746946453878357,-0.05146042327715945,0.019570913967238215,-0.04150338639873141,-0.010399324540449537,-0.017538500428365238,0.030309110304695935,0.09022474961934648,-0.06465391327697075,0.005509099624637113,-0.06860067165313596,0.01917853981154663,0.1580984777966543,0.555224900880553,0.10388636146679153,0.010531808338854174,-0.09473001625035987,-0.14687639891702137,0.14481439492426879,-0.20913245763530616,0.1157662029719744,0.18467261709565627,-0.01897337607627471
22.733600616455078,1.5387001037597656,-0.031936360128572955,-0.09517843564962163,0.05471886544508128,-0.06129876464694996,-0.006321510025119327,0.0020142242239725838,-0.026357594267997695,-0.03339438369333049,0.08504093618244964,-0.003717850948584671,0.0851912081090596,0.005015844929450741,-0.0022943849872079,0.000598836401220741,-0.005386002522931525,0.003637066520580634,0.07858799293347063,-0.03087258220034721,-0.03047238436344116,0.0033525669714181694,-0.013841899273445216,-0.003745894454513332,-0.007490605697359536,0.00011331946323391408,0.045887057550119764,-0.006364918855121168,-0.05199884733095175,-0.010407231021346636,-0.0066926146267560814,-0.017648408642290555,0.00804507800707527,-0.011855293315895597,-0.0850507654620409,-0.04942314634818355,-0.013320340919419115,0.009685911394160486,0.017195790798658184,0.06494473225152843,0.028233878406305896,0.04265082519536914,-0.011218021657958276,0.004979788361499328,0.023142595963274625,-0.08840322171162193,-0.047279561981158846,-0.039812276675523,0.007989449958291893,0.05267270354463374,-0.08081916570809437,0.045856847146004145,0.08035100880023467,0.05403503054248902,-0.002460011786054687,0.02512953964285456,0.03933296091345735,-0.010433897029853742,-0.03105320396860495,-0.018965587523013146,0.022082586273556644,-0.06483698212346134,-0.06805050080038366,-0.0653959932981422,0.031959193205685306,0.07274171054020735,0.05034292511820638,0.025779885761113123,0.10002227250674281,0.04117735307248458,-0.025330887384375382,0.0345749297209624,-0.006692800584247573,0.1258620160529494,-0.030138336668476574,-0.01228678814835446,0.0439580128111143,0.055902868922550704,0.010448188734503892,0.06885206307771179,-0.03664534445577945,-0.07588878385854751,0.07859726501189129,0.05461322770208647,0.04170053147956364,0.1059596694893758,0.04496829458889498,0.02324591962704467,0.08734599416276359,-0.01085430937195799,-0.04710657239454216,0.039765187784278365,-0.020088190132268702,-0.4364136700015364,-0.14377193934098104,0.13417294738337154,-0.15254914379379675,0.1354465982758049,0.23661129202823594,0.2766359992955338,-0.10029388632056752,-0.1718158484011347
24.272300720214844,1.2796993255615234,-0.1673759518520006,-0.10320608753666277,0.07850956161009331,-0.11460952719936542,0.0871489272527111,0.0461987638236119,-0.03844914601071639,0.09865764940219447,-0.03353282144401701,0.029047310063524318,0.11646538864715886,0.00037166391824185706,0.024792075113116402,0.03025469689147424,-0.03386283492231966,0.03393167238118627,-0.026851657556633636,-0.011598718403876034,-0.05665498094206109,-0.055339794293548336,0.05235855619904242,0.02577425735429155,0.00658846845657085,-0.0064697902769880015,0.0015468528194009295,-0.0404217116983178,-0.06583635528736533,-0.006710081284507634,0.053143150030214706,-0.006068563379768018,-0.05629790406197261,0.028281279446175395,-0.0015353273683681129,-0.003125019035786412,-0.03205261282497113,-0.0023429703560342388,0.0032647403095794974,0.005205022391985545,0.0023483339014608996,-0.006820320931470101,-0.025998608024707354,0.030447021459432462,-0.01076123284651899,0.019435387676852222,0.034750780094623776,0.009177588314633764,-0.05858192846909543,0.06565879296483533,0.050448941715443264,0.013273061643691124,0.05785023352569053,-0.040884223672873726,-0.00948983374821701,-0.03412173430461837,-0.10654135456276988,0.0016920055033150102,-0.000296617291574549,0.006434739473881121,0.02182542485076747,-0.007259650794512315,-0.003256180090099043,0.025615994727441437,-0.03501925161779448,-0.005487260431033969,-0.005327858868277878,0.03781749908774867,0.02666270800341871,0.04044881946852662,0.01967363086136836,-0.027116346872551277,-0.015468777699657911,0.010025227709117835,0.032031680415807354,-0.010041864270199796,-0.02774553706994447,-0.016241486131176947,0.03529340767524122,0.042189675608113174,-0.07918763346808222,-0.031403494667927245,-0.055898953184194605,0.020143169376143064,0.01980710118646376,-0.001532722307813341,0.0842012567328683,0.11059615087236814,0.016795317008916594,-0.15232427463761164,0.012900601698735222,0.09891145558489062,-0.02552289893619389,0.41270809143666937,-0.1964120597556291,-0.12415784685306568,-0.041980613186357006,-0.0388153565988782,0.42524286340055184,-0.2240091472820191,0.06735832142501866,-0.05306482023806899
25.552000045776367,1.3087005615234375,-0.04428556889252058,0.03769919128467417,-0.03924380222891516,-0.10424066027215707,-0.016233834050170298,-0.11377312979067924,0.041124600493534766,-0.2313840449453356,-0.31970987103855114,0.043807026374857054,0.2672143642730966,0.0020946365632122654,0.046147657994642405,0.36662805336116727,-0.03205251175761431,-0.3404437793886187,-0.04688639206918424,0.05877029122964525,-0.05041653283702328,0.10623752328982682,-0.05062058750919138,0.002210167030685324,-0.05331579181643456,-0.03695324058916745,-0.023390314383380614,-0.060570190634100886,0.014397979132589271,0.06826483794274144,-0.07269013571703517,0.050383595421845895,-0.01102762139488215,0.016701795471778805,0.01066700189811184,-0.0010347898381815367,-0.015526643189691366,0.022522451847168962,0.043872734665057964,-0.0074351721235814405,0.053471655051985215,-0.05499461210295505,-0.03267851907576108,-0.00957600477932374,0.005262103763876806,-0.04033917187856574,-0.06691034059527429,-0.05907862115990651,0.020369203398192242,-0.04905184799966052,-0.05595091706260977,0.046725282569818574,-0.055328480490994925,-0.034762740312453376,-0.06567241976065959,-0.01601159853545055,0.018456319662073728,0.04206720107663871,0.039106710740339036,-0.001991678917848328,-0.011744940451720587,0.031637092937290355,0.0479469579595381,0.017593541311212886,0.011491942526818694,-0.06960028898833732,0.0700677903750784,-0.03749242758698404,-0.04277344931771755,-0.0459334874370159,-0.008521857420157673,-0.03122105855441469,-0.0263663561605568,-0.01368283128799445,0.04766501431720162,0.0995838547298111,-0.01606448431999903,0.04327609813160747,-0.062498682243071195,-0.04948863586385002,-0.02139523320570063,0.023392564731107134,0.019028872658827575,0.02628317104810445,0.013049813153122185,0.011325693797508828,0.043820673130256595,0.005938587732800215,-0.010811633121100627,0.03972993716078574,-0.042251534860676995,0.09170435913315392,-0.09259229168153327,-0.21539454090396215,0.20536503424538138,-0.24763120210305575,-0.4058325460060831,-0.2052503801455726,-0.044417728427125554,-0.387838750617028,-0.28709536797878477,0.09884452574283766
26.860700607299805,1.3195991516113281,0.09669378727127971,-0.06502280111276106,-0.11390137335453497,0.3416254709631269,0.3301649213092225,-0.06127327413816382,-0.2659391905372381,-0.3143446774342992,0.04511011454748812,0.12644155337276558,0.05637031978018804,-0.02421044818026874,0.004906195165675672,-0.022077125607273672,-0.06519969549217902,0.009212494203467852,-0.004137123261581297,-0.053387755781146996,-0.008923193706045857,0.05789618753414124,0.023477853062777842,0.03029715418892376,0.00812380531510343,0.08455605548209698,-0.029605078986434084,-0.02205489270043711,0.006645891175449452,0.0008255910420005471,0.0002920090747544485,0.004621836506873496,-0.09120005563271383,-0.01178017241212381,0.060325245891904494,0.05090626439371811,-0.06757534338973158,0.0017738298491642005,0.036225595308156194,-0.09453742949078525,-0.04213807695659815,-0.0752175820444124,0.004654546621746329,-0.042509960807059564,-0.02623494366055057,0.0992709050054012,0.10910107151513371,0.026999803086746724,0.06658121553284697,-0.02920830285704403,0.08095300727075674,0.036141253656051815,0.030758011299288172,0.10449971465506361,0.022358916128176823,-0.012151385965087087,0.01026057269060435,-0.005396478453843295,0.05874659627209032,0.05220632167712687,9.24048106290265e-05,0.003410094589052818,0.10264892998411937,-0.02890069942750055,0.01900840855606101,-0.026885681303578556,-0.002312722001741524,-0.04451799529981178,-0.04661936498880653,0.06213806068502017,0.06323622632415057,-0.06650813827248728,0.0007012459925141296,0.062487108613097475,-0.01321930769341986,0.02181387823547329,-0.033428765155698245,-0.021490596255436978,-0.033233658637212275,0.016809049616642868,0.044807183823219056,0.04958521359789853,0.007392733272670515,0.04177744696537372,0.005479767472624741,0.00900360822928806,-0.2378510586142106,-0.004474362101490962,-0.02585577440930964,-0.019612648175136374,-0.005083477694850687,0.30909413607850017,0.468170756656426,0.33940373342343305,-0.1499594646123781,-0.2685055837866967,0.10253520189617585,0.06816798103540869,0.06089705863451923,0.1425239975789338,-0.44053438075518825,0.23203200353438963
28.180299758911133,1.2989997863769531,0.2425823935967689,-0.012542253000148954,-0.29651269943801084,0.42526971244154316,0.07386151791198547,0.06851398773811235,0.07041883263842777,-0.08947460037864698,0.15368446224546295,0.04036956137258712,-0.035499142360155195,0.025815931416149723,-0.03830820450508144,-0.006059001096522937,-0.019302810712301135,0.021232781971454687,-0.0008796499569630471,0.07471078256826126,0.03866824846161402,0.08062086362004715,-0.051814918546991974,-0.02402961202050706,0.004707273269828337,-0.0003870533178120944,-0.01699721889075844,0.005263472573145842,-0.02747708328576083,-0.03678177169886132,-0.024283915145059346,-0.0225515179895268,-0.013206907505624026,0.038105195926885195,-0.02741628112677584,0.013069754713454696,-0.03913560085601793,0.01950064827810912,-0.04662437930503523,-0.009449047595237096,-0.025835313561401237,0.002032237098185531,-0.006367646785588533,-0.00930144972434829,-0.009829806025707306,-0.10344464976079087,-0.047412053857095786,-0.03126290700625559,0.07715638500295788,0.014111259080765017,-0.009026572399865545,-0.13013580834230576,-0.08275820118294211,0.09496765655094762,-0.02622162009710537,-0.022577955223565028,0.019511131596694625,0.042808629656560994,0.008122051874416688,-0.007920652043549492,-0.009252531183772204,-0.025241831785637197,0.027178073525606142,0.06902186947627263,-0.00024512672336675666,0.04057567436784402,0.10360699632849805,0.08746321382545824,-0.0019789081554405057,0.015101656604361236,0.03675763766494567,0.0062157892880114855,-0.055903083880665415,0.04229082405396859,0.06403960238276543,0.009018193026737457,0.03036629304253556,-0.05220010196542067,-0.08837592010173247,0.03419371563253753,0.021423254140842105,0.005845227005922651,-0.013932539638932472,-0.054929153085562336,0.029224710672042794,-0.04329209692016447,0.12456709484976582,0.008608248150992572,-0.038921800457282024,0.016557270040509782,-0.1182061685403475,0.07899751843179736,-0.30381564610322703,-0.030367114986495775,-0.11661799428269536,0.14293254594117974,0.2467312568329921,0.32785247374830967,-0.010347820023144761,0.21754581572324497,-0.04355238296833032,-0.12726289750072242
29.479299545288086,2.378499984741211,-0.2525700215541273,-0.027761921072443314,0.03955346777645056,0.0025647945680229434,-0.057009782226289205,0.07335473410207377,0.13125319648490646,0.17263964699245116,0.032843692537241446,-0.053491228853862316,-0.01473457596164432,0.08201774281931026,1.8963279342134372e-05,-0.03124607162361767,0.00025160647291230695,-0.014795797813446934,-0.02018050289772736,-0.09865186097928155,-0.051839227275985014,0.054758336299400606,0.022906913632673317,-0.009801959760290559,0.00865692822876316,0.003180552029558546,-0.06172089515862547,0.03832100053544003,0.009089385274866356,-0.0594340241426106,-0.005209128413263042,-0.003992532876814843,-0.02439342710915181,0.005778845131481958,-0.0041333608412405754,-0.009688125389798203,-0.033816559281037786,-0.002625289467065736,0.0014205543916852722,-0.06973334326311331,-0.0004111533690785009,0.041716261208128894,-0.0035409218065165383,0.09208970929629436,0.06506354251857092,-0.03642680384998542,-0.011000521944976856,-0.011377046805215285,0.021233351470066185,0.09357373186040555,0.05361598960049284,-0.01015120310089722,-0.09730065653623945,-0.01589703081167758,-0.0020459450921665057,0.0027027371864102798,-0.034942111819871224,-0.006378762147877497,-0.05578484803176205,0.044175747680964224,0.011365442290030392,-0.0041450303064719425,-0.06542240153695804,-0.044831655191807464,-0.12423109915365142,0.057405743941948306,0.02893904043358265,0.034643926992112425,0.044546521571456665,0.013985344098572279,0.02053228214959589,0.029376093928943955,0.04821893620088422,-0.0024580423507585695,0.07854912949680114,0.05297262813536684,0.03363611206583131,-0.00017815575785884788,0.037543536585819486,0.04650213465918002,-0.04590707500220269,-0.04788166932916066,0.028533836662125812,-0.08319202063138692,0.043726132089041955,-0.05430105447135361,0.07274418807682981,-0.033414204226729874,-0.03287193248691185,0.0189800101890354,-0.020924344437337802,-0.2065947290521557,-0.5185074091376493,-0.2212188205431269,-0.15674236618854573,0.26022453559834,0.052928717906943284,-0.03879409741583377,0.05104601744775493,-0.08068338452777006,0.08299545045753777,-0.03836984852506964
34.465999603271484,1.3489990234375,-0.01853366578146423,0.1297296867554026,0.20203667908730139,-0.07145255328872713,-0.2069231123042771,0.051163886922747114,0.0930911115475837,-0.014174971132631395,0.10972833450321925,0.03357680593741452,0.001550972642484924,-0.019823265905218983,-0.020770208666301533,0.031833953500802564,-0.017642102548704373,-0.006595482148699351,-0.031245724670280528,-0.03443765031565779,0.03654008562319533,0.00391177303414029,0.007269084691409598,0.02020756857821052,0.1992956958925998,0.18035180903381728,0.09547541688993724,-0.02725240006424162,0.024376854578509837,-0.03527299067815662,0.03485749028924337,0.05944219669401037,0.06640107515582394,-0.01734496654642033,0.10682981787419278,-0.040847562677294925,0.011920159425152923,0.06903906540738998,0.04563697905855689,-0.02408655975225811,0.030982387882604802,0.030194008704562455,0.12393558895799235,-0.007067580537977319,-0.048007251588575536,-0.0651479534413709,-0.04502583017955601,0.0032789595059244015,0.0016000080958128284,0.008953983209707111,0.02724952384162454,0.048172434261555326,0.05139966364718983,0.018276659312134937,0.043269515762523976,-0.04219149912677081,-0.006250594480720617,-0.004806606795038065,-0.04753196685915906,-0.08637342387758554,0.02121433269159451,-0.0008099922054004124,0.028073834576150952,-0.008758176587983443,0.056784824528612214,-0.018380412304607217,-0.004780103552890986,0.049264029121759506,-0.05575303164889121,0.08598646777141358,0.018318950224740317,0.07591711773621512,0.009712341112840892,0.008375037554846462,-0.003496139391822346,0.05856442632142579,-0.011746389511263292,-0.057310816468695056,0.023833427939274503,-0.01761073793684248,0.012139375797714123,-0.04367440599992149,-0.11940880346179233,0.0858515946924214,0.024925994023378605,-0.05871398555858264,-0.052079691682400286,0.038658266957240464,-0.016329686527544095,0.02142983990359782,-0.21675657283848898,-0.16438053667815994,0.0011127591436597972,-0.03270670774520118,0.3339661733952819,0.15727369954833828,-0.1314396028445226,-0.12398002135585816,-0.01403485695551765,-0.04845846496741564,0.004764941014070153,0.11955350873749987
35.814998626708984,1.3089027404785156,-0.1512343646359593,0.040491030653642346,0.14730763957095952,-0.059734329617518914,-0.1640124687180522,-0.05815540342002708,0.15217544698173208,0.21969068000669598,0.08060876089738156,-0.11785133917712844,0.04603994967896573,0.012258114060202432,-0.0729676579046624,-0.03442286099905184,0.011896191766365041,-0.0828721541919999,-0.10950595152199752,0.02316836188404421,-0.04654969804290213,-0.043471398173793384,-0.009977301259326332,0.02460618935866879,0.022834370139117377,0.04672355088028495,0.07201853978123554,-0.09794591591872713,-0.014755400908287718,0.03444673858420325,0.0005370077652938084,-0.003542628055469431,0.006097260455778461,0.015379470842988033,0.003914579416664496,-0.0005339290874131625,-0.05010777047625858,-0.04070673196725103,-0.05229766394088287,-0.06627620019643228,-0.06829377357538562,-0.048310231041392815,0.009702329587432425,-0.04046265717585056,0.0634914704579654,-0.02746620187450623,0.039794314544398246,-0.054337580929633936,-0.0439140942756084,-0.025217043537527333,0.08753346618111012,0.09280164045494936,-0.04827508639923124,0.013819168080575706,0.04791293131896755,-0.019024756074346668,-0.0477190726100172,0.0063728323635206165,0.029941364656307843,0.042583237295302834,0.003979402938896221,0.09280053033201081,-0.002142531242441336,0.001470325334584614,0.0058154374633350246,-0.00958356311791847,-0.08114561718202563,-0.02220439187083775,0.011018407081189707,-0.0154565392828875,0.03946040705064735,0.08989439335057184,-0.009485898413010445,-0.013329772436443059,-0.007316902763905134,-0.06822862806561536,-0.027051745179662932,-0.06952713437911107,0.00019203869150851913,-0.022238897668164247,0.03514791284895559,0.0272985900094252,-0.04612076032027697,-0.004473994715197008,-0.08827888300958037,0.1108046019664958,0.07512666343296337,0.09489815598195367,-0.021446872474210715,-0.0658210441518832,-0.1838111078315242,0.024258366513535877,0.19892075522622008,-0.08197753359585566,-0.6472548781598608,-0.5415142873340023,0.05418398043510965,-0.028226270719578863,0.23109381689900005,-0.011469862858221106,0.18516056888858098,-0.039019262433370866
37.1239013671875,1.2589988708496094,-0.02699637468954222,0.00799264648421038,-0.07117691017712824,0.049415543024535394,0.07006443162678226,-0.034052959086589216,0.1911629855956404,-0.04703353731837931,-0.05761973596952258,-0.011453865353063638,0.004557695921690743,0.016927303604891922,0.02666423997020245,0.060556527094715915,0.04021455155842403,0.051481477815035384,0.03086404583010094,0.010797110016048097,-0.0028636022335630632,0.05668596547745599,0.047259259396772675,-0.025264523585965745,-0.013423614887471222,0.09353646507674229,0.0034327472313035864,-0.008298687124031734,0.036123851515160094,0.0050836452269665275,0.002704009601306446,0.00459667432950427,0.01052330100599571,-0.006450941286945861,-0.0019317578555844567,-0.0027629124785056823,-0.044874112330409735,-0.08831128341864841,-0.0033594653455703083,0.010174542267442348,0.03470799209328776,0.0765926049777919,0.07148813140202114,0.006669228378317826,-0.01238934118426042,-0.06931753911333068,-0.09270481311066568,0.048720969327167976,-0.013898407402861572,-0.05192780778124027,0.1169092123951515,0.09585797930783203,-0.02614391873027705,-0.006275598438885541,-0.04280836753693151,0.018900502708377197,0.00010957405824264929,0.11238224150995224,0.016265852103371687,0.025064182632988142,-0.002850540964069845,-0.05987472768028944,0.0023208726044597044,0.00810399484443933,0.015737976214200453,0.005035005168018179,-0.00195579290794969,-0.001771017334273808,-0.004552321646095835,-0.049764441133614626,-0.06283133877475075,0.13287431760421134,0.0102474095713622,-0.009904851574811666,-0.016862207815072403,0.062071432080691255,-0.01124136668216062,-0.014365525503511088,-0.027157766103281474,-0.10908416939392347,-0.049211117847823255,-0.043665743736760854,-0.08643108553506433,-0.022491185403310507,-0.00035476677199255957,-0.11602272950704363,-0.035429063576738626,0.06917687442782204,0.0015579186492842103,-0.048077409736212044,-0.05706108018151562,0.46793155916905793,-0.014230081491087454,-0.057119501339229,0.3846589343346355,0.24087939283662468,0.002385915474470741,0.3150927126887286,-0.1800244467809632,-0.058626610413454606,0.22808626102572183,-0.11649666541182042
38.38290023803711,1.3191986083984375,-0.11655814300639333,-0.0567110694082047,-0.003190573044917676,-0.06286333839824443,-0.07224092746844966,0.04329805245480711,0.04799718426468982,0.007892601556486085,0.02273090099203826,0.04050454534023576,0.06569448339079867,0.008855564343517799,-0.02290342249227905,-0.005819563378438577,0.03673052533458555,-0.022264699726871562,0.005435812505873916,-0.037461064279321075,-0.031182879279775214,-0.03333246045413271,0.03767895877252366,0.013582421951309922,-0.0038431807176944107,-0.021489655748758912,-0.014771546378619445,0.03977903117521253,-0.02708029200227271,-0.010016719219057127,-0.002027260622112825,-0.06395240487765202,-0.033153047718616956,-0.1361714342750053,-0.009981460132955866,-0.06742567980060685,-0.02023385167585959,-0.03385150726635476,-0.020477317324566986,0.010982966006849467,0.00396979417374448,0.048821759058163314,0.01115460733178455,0.014386771842954544,0.0159397614760498,0.08918702759356431,0.17634978227277373,-0.04643719246662591,-0.05683290617082755,-0.0013273592778542292,0.030053761446538273,-0.02170499321749188,-0.02188765840985569,-0.11733861089814263,-0.037295136090713575,-0.011326103704894914,0.1084166982529016,0.01551364846367249,0.004699307889372349,-0.01155796645133935,-0.04426089854446827,0.0034150252161067743,0.0018722379730174016,-0.00660575057256289,-0.05358087092033238,-0.0060624755129582075,0.017577268150840354,-0.01290643106399005,0.004154725723528693,-0.0026167232982099156,-0.03837191467226334,0.03581048815750362,-0.035387249666069764,0.05060913204610305,0.058168259037671075,-0.0588500581985212,-0.024310407496627738,0.008146166118501361,-0.10715170073089011,-0.05628948344921531,-0.037582238042939246,0.008342336054001864,-0.0068583064212146124,0.012460657137657902,0.05500267722884716,0.06325413303939753,-0.10118209908121333,0.04012200400601313,0.008837705213494682,-0.009644000502488065,-0.15891244724447026,-0.1003912231382892,-0.007612004123167147,0.41009162802235966,0.2425346516931092,0.004551227044511608,-0.06924456229784648,0.12067346640536916,-0.28553182008261935,0.09766666665778836,0.1395269862445315,0.04297258000609597
39.70209884643555,1.349700927734375,0.04993744380893063,-0.06969742256478521,-0.01718108289246264,-0.027460285188471708,0.026256366390205482,0.01852831189996383,-0.04446949957904246,0.05950799052371028,0.019471337039379068,-0.04704667658386995,0.03850957957846741,0.07889274050309636,0.011010136699135722,0.03626342706145921,0.09388267661688024,-0.028123316570310034,0.020375707902606788,0.0038805724420075682,0.015645088398278505,0.04129245002623295,0.027484104490580752,0.034455559110178016,-0.005653495306270284,0.0621361575379746,0.0669659414237044,0.023267524850785315,0.015737234585496196,0.025479223394946827,0.042391355136752275,0.09428035152154379,0.002493643690412807,0.012801572823481766,0.0030918655903389553,-0.003753959875432075,0.06358159480238706,0.019006272964185535,0.0022523762571171496,0.10516943064623574,0.00043861687759037566,0.09143108212309645,-0.02876730154293977,0.02844706879004186,-0.02354027422070578,-0.030495419255387367,-0.03070268717682653,-0.10485111015262491,0.008100027057006439,0.026311155121058603,0.009058439257844607,0.02269226175702072,0.06813171226352219,-0.027159835814016223,-0.02813145989946829,-0.0068955326707372255,0.08832236750362236,0.011453036590602308,0.01651764200941359,-0.0038768491292460144,-0.05430561986902229,0.007446435171543599,-0.0011508560775062258,0.00038767249527300423,-0.05624009428317538,-0.05064525740699023,-0.05825487064287746,0.009940324159543136,-0.004913587256944865,-0.0697862496363286,0.07506881257234535,0.06409410906507264,0.0071104020818559075,0.014500142690364117,0.02429456363313636,0.0013919033969194486,-0.050698969889986505,0.02708827815322071,-0.00662252378031946,-0.02029811913752348,-0.01668519618273602,-0.020017665461611038,-0.033100465698697325,0.055950236558482934,0.004755454914986886,0.08678489244934319,0.04172273453494127,-0.014265580955277633,0.053422814609031054,-0.03343651766275999,-0.011957276542814511,0.3538403238875534,-0.22414968740121002,-0.1866270209435037,-0.5645394834129451,0.12605411396621058,0.37035643738557433,-0.19742444977564477,-0.14576253027186986,0.06722488233576547,-0.12537609240844855,0.04976818016913126
41.05179977416992,1.5587997436523438,0.049949348297598714,-0.08085208665471913,-0.012251119791113142,0.0841557062764478,-0.007217431647048807,-0.08927628134257133,-0.061145001034362004,-0.060419974820707274,-0.023870408569988177,0.058338703057082684,0.0806262132732054,0.03737868805728542,0.013433276437235546,0.028910156689250732,-0.01560746861737982,-0.04063412472672519,-0.002232083357370928,-0.008647836411796797,0.02852625669000067,0.04132654637110352,0.06082693971167807,0.018583707704220215,0.004038128513886073,0.015592779924610216,-0.025639198465854628,0.049372427635028394,0.032767826064175366,-0.044250778193197934,-0.04197351795173024,-0.027404020839438277,0.04852797324217917,0.04881164482789831,0.0038668496886460732,-0.02520175624626341,-0.05142281501982826,-0.004397344247046413,0.003827631247218615,0.03226847634912362,0.009682179916610776,-0.02008381709594456,-0.03672062063588188,0.03735137914989651,-0.012180575386005477,0.07376964137121272,-0.012520781719213395,-0.018333264855935137,-0.07681590878654092,-0.044616793054351137,-0.020458068977067593,0.015798851946119293,0.0015197227373226793,0.006538069284030739,0.07050384751430952,-0.024794191717236257,-0.03836470097675673,-0.027342654034633013,-0.03871998152010614,-0.028913623303598982,-0.013082802038797747,0.026961049341241543,-0.0021405393367728673,0.002314238024738467,-0.0017679107484545205,-0.014478730491672092,-0.032579905672318096,0.018453548764994505,0.011157922880577355,0.06036542129621561,-0.05921076268741127,-0.011983991448577171,-0.061128243679180655,0.005123102996834744,0.11589057876378936,-0.019958657531879347,-0.002896171035509673,0.026777369500555474,0.03976883103903959,0.022221183797350663,-0.03274678211261728,-0.0063995401871592235,-0.005548140731014207,0.02709860374614519,-0.0166326663969263,-0.05911253270732271,0.038884559208107315,0.044632587453739096,0.06274523488531128,0.06515634425048222,0.04415667855628211,-0.05809619086441821,0.4726428537182115,0.15889108456959566,0.2847707680492533,0.021690868243037533,-0.0963374759780301,-0.17082840312958822,0.20207909675077546,0.09004110024465983,-0.17445371679609534,-0.2616009865114365
46.84749984741211,1.319000244140625,-0.024668235864560767,0.002954382757046088,0.04310721680864474,-0.02908423638112945,0.16748529697845288,0.2059921279436047,0.015607030934213062,-0.13873947409643306,-0.024721475762969184,-0.031341127756219764,0.05628034942673355,0.05307249360005758,0.04827692075656698,-0.08033322224978579,0.02202687696912104,0.007592606435899775,0.0660655724458699,0.010922903597507985,0.01889906361380678,-0.03580367764056025,0.0016297720787855426,-0.005925417703894251,0.017785193054037002,0.012112908775646206,0.007633318860443866,-0.00015902562657469288,-0.0008458048227170061,-0.02367860320105566,-0.00990255820075062,0.007540012606436595,0.044384618956367264,-0.028813786719836698,0.0029347211741480774,0.03600029508317967,-0.046919256359695224,-0.04388234966055774,-0.0037090300975888093,0.021179889665493615,-0.01969217204398109,0.03383967345351619,-0.046474468816872186,-0.048129172438905764,0.015701246884228453,-0.005069469890161473,-0.0005421708311773663,0.0793803628691918,-0.00337696835406769,0.04068785512090081,0.008119176862555207,-0.06272786999792251,-0.037250395780809915,-0.0030206082687639266,-0.058823135349518454,0.03560923319485655,0.04054358285812818,-0.0030260171410388574,-0.03095420712143397,0.011523394004392742,-0.010548937110458926,0.022136320989811973,-0.0009533164536467487,-0.055717723527251774,0.0018288453840803512,0.004847405388571983,-0.021832174564320156,-0.00923218040063562,5.187670720894971e-05,0.02610222949121008,0.030268676930614295,-0.009632289340453171,0.0669570353359172,0.038770712652475864,-0.031160212581703817,-0.02349803360436528,-0.0035906066356589713,-0.038218897832582685,0.032079332665021366,0.07272442400714355,0.016601772860745653,0.04683025889461673,-0.01709657604025907,-0.05004079695851889,0.03258837888393244,-0.06671377372851314,0.06994463948120354,0.01669588576110851,0.006882259587748256,0.05235745949172855,0.004852461078951074,0.10417677221928176,0.031006113707871225,0.573720175804052,-0.2586287577119463,-0.1299040542957805,-0.5974645702682807,0.006901451000792758,0.10382554733272309,-0.03911399479641736,0.23489140931504718,0.08659906090737352
48.166500091552734,1.3599014282226562,0.09133932405598566,0.1391572134137893,0.05103981201320548,0.04320686464249969,0.043283916133691216,-0.007133846452366444,0.09481076329620525,0.3019641884758383,-0.00072717441352934,0.015458682716457013,-0.05525626002250719,0.004184593645436956,0.05458424416806469,-0.2575828994033728,0.0022524197680132653,-0.039318008677210484,0.058434761813286204,0.03831364092183501,0.04994343009233546,0.14271155522256174,-0.04962376343587313,0.014937272536892351,0.10702816042168813,0.04699923149029357,-0.050411607124994894,0.05944111513034194,0.10365464877221678,0.05365967119691808,0.015690629857660114,-0.000643459231135727,-0.002529016916979036,0.08566056524295265,0.018878042905407875,0.005445925493519756,0.018372871118498234,0.058802723215381665,0.004685508388707943,0.04767549565514296,-0.019622100202382604,0.023891041466288253,-0.004531695603070741,-0.011589341140836911,-0.008317999171701809,-0.06593402072309637,-0.06258409551887396,0.029970196475043853,0.03877038216713984,0.010239016138524269,-0.012461459507568199,-0.0040927572864934945,0.00619846247772067,-0.055055166032078356,-0.014740028393215174,-0.041530677931003894,0.0036725265815884273,0.02601697182626149,-0.055259435082843485,-0.059894858703390445,0.033164748575709176,0.006426605652351682,-0.033361333232708526,0.04383144386624037,-0.00455974563645516,-0.029936186307058438,-0.012736885747965929,-0.013136050183014643,-0.04677447508348108,-0.0414613028720727,-0.0154932030424533,0.01358333240092939,0.10919948112124077,-0.057007447809407766,0.026427949248530903,0.0718527268324855,-0.020608300544230393,0.026688083731440434,0.05139845669422165,-0.03230331628319029,0.020633246737920885,-0.10275740708264672,-0.047340544825785015,0.016615505365898228,0.09651560041405052,0.032976913649378214,0.022165199318527846,-0.05883153447324137,-0.026814628739078458,0.08006034505894886,0.1242149547074697,-0.07015075676517968,-0.12483250053485485,0.11916774012029048,0.3141937972612701,0.011135363710692237,-0.31368221284305425,-0.43122033020241335,-0.060570198619763066,-0.3647949686851836,-0.3777828567679745,0.136748862384712
49.52640151977539,1.3787994384765625,0.12402816688111096,0.2696692456537296,-0.04969301466960087,0.06299317681509635,0.1842099317726112,0.1301673587279625,-0.007833340046028786,-0.19658477506991487,-0.14541058159881806,-0.06875830459295555,0.08840170911585563,-0.04320968749229117,0.29557705243032606,0.17080244304194028,0.19102394415519486,0.22200233134481465,0.1087971494374109,-0.004575930479735868,-0.07048667880705356,-0.03235101930664459,-0.05076622532135352,0.02135299921650674,-0.1630962388368329,-0.02501885343461828,-0.0779117265834493,0.05371845469931294,-0.062224154309377194,-0.1275809462023503,0.03315676915267002,0.016441790255088955,0.021267126574886178,0.0083815350826879,-0.03134039488588804,-0.09116105852879747,-0.0023641298953382094,-0.042509660488505546,0.0024728156574580847,-0.051579834901276246,-0.10234531952552002,0.006720088565858605,-0.018070959923323027,0.04049149975838075,-0.09563849361945825,0.017807866020412105,0.03598534427115067,0.039411146730390485,0.037345751244092035,0.06647625620365898,0.017662446530951132,-0.026740631084627514,-0.049287034831885596,-0.05225688636440472,0.05887570509958896,0.035186265789531775,0.0010037078558814206,0.0013994809720632587,0.0057764940961770594,-0.001764559309740842,-0.015527663602767479,-0.001857043652587479,-4.9088515706247625e-05,-0.0005645345156578875,0.03113568734959221,0.017893814499539466,0.028240901138039644,-0.04460704053316457,0.07592742606443886,0.061121882555196086,0.02220732693624828,-0.031490796409154,-0.05646235920542255,0.045960755983023086,-0.08430815524626001,0.0013964701420381355,-0.06008273235734338,-0.008036596739098322,0.013937944875175712,0.034195775816904125,0.0013098595829561799,-0.05572055318467641,-0.013608523288194237,-0.05527769163403258,-0.08649271626850184,0.009906051615436048,0.07971862467377538,0.07078932344098711,0.01047157803941512,-0.059525744675888524,0.030909665268476647,0.32635529681926695,0.36577435610550785,0.08321931819030742,0.07772005147571258,-0.09212250168046945,-0.13388231835486816,0.016048485687313287,-0.16743454729124582,0.1813474022638977,-0.2707453714997169,-0.010254534282738925
50.90520095825195,1.3090972900390625,-0.002186189397844901,0.1391124840502683,-0.012293324249546884,0.14767685998255234,0.12431593890481663,-0.012477865762388523,0.03391652201539101,-0.06484535859980659,0.033926990297399484,-0.010191093429151001,0.07160457603990535,0.0224497436992889,0.05908229789578552,0.07563451694341891,-0.011730865547572243,-0.005303850856064294,0.053698897026360944,-0.06345727717630731,0.05213174002308126,-0.062498184079879275,-0.03510341773498621,0.040271689631625265,0.011127639278571399,0.04177550034961554,0.0015625931187583523,-0.01897217377809172,-0.02462322877895965,-0.02289637401511395,0.00646634609213632,0.004396737603369494,-0.03358878623128961,-0.011285602323454559,-0.007413893443028715,0.007637491934007317,0.021907565072124397,0.0003562902357661397,-0.09272870194795635,-0.04494602622849243,-0.03141236755753526,-0.009189345312588052,-0.006471865908585804,-0.0040159235778272915,0.026635475985315966,0.08726863367589863,-0.04805641394775628,0.015743775339091316,-0.025794220033634685,0.09042724890627796,0.040558579971720944,-0.01971364895669194,-0.018490223633233688,0.032007044249812155,-0.12505071575764054,0.01513300420996731,-0.020177200487939886,-0.0023940493875513435,0.02105039470159401,-0.012483302641487042,0.008912912441103212,-0.009877860384379981,-0.020442371615246487,0.03313409775514051,0.005189343620002716,-0.006858756937193922,0.06534409373923222,-0.06232204175777101,-0.009684258571680197,0.015898360614587277,-0.012673360764253409,-0.013755312163701544,0.02220108963224617,-0.015151256871908242,-0.0924615654978538,-0.04458564440723216,-0.03710361381533602,0.0780175377614081,-0.0008374082774163568,-0.033065719025395006,0.06163790261101233,0.09927932007519073,-0.07028422024469143,0.009167136387822773,0.03337637494222497,0.009514830523307562,0.05384579480449191,0.049372567683661,-0.014304954517117236,-0.1497954771300588,-0.0863169187432227,-0.029656825935033243,0.039151941311269964,0.17187903733852544,-0.284837608324504,-0.17836990525608173,0.22931075617426494,-0.3231419735517421,-0.17443380300101993,-0.4401104681541376,-0.17132461388460782,-0.26187295606891725
52.214298248291016,1.3386001586914062,-0.391219606016201,-0.45613529546753706,-0.4177346198526293,0.033039982102171454,0.1446208212426437,-0.17390230520383015,-0.21921958090465168,-0.3279504405264095,0.19954187459819964,-0.10873547990666574,0.17636552084951793,0.23826665708685096,-0.05210843274299298,0.02922582512544311,-0.06116340579810471,0.023676009896191463,-0.021852722943115247,0.01244105715736586,-0.009062365771914764,0.014082891659515439,0.05786988517615028,0.03305837283919914,-0.03754267160626873,-0.023323804890637616,0.10561605553029547,-0.0709722927883534,-0.11838271063014162,-0.007785689561156433,-0.014081497600488687,0.015077857377541373,0.05951199004650988,0.06139778863829637,0.04546557928773364,-0.036832268602519744,-0.10392685900162801,-0.030482527133578595,-0.03284402698735846,0.008850539448438733,-0.025540686170014357,-0.037697196709041765,-0.01307477469804344,0.012727335997069635,-0.011870652377573435,0.028503759959184815,-0.04262397517490209,-0.02885574689324681,-0.0043362661554025555,-0.03285019037722088,0.06293694830626001,-0.11135426687759288,-0.1262014168018274,0.0021512141936793584,-0.04700242041631462,0.030201745754202557,0.001032883946534478,0.04213250985410015,0.051434960894628304,0.0058625675080924535,-0.07255083417275303,-0.012731459571891854,-0.02229724845562928,-0.005961299869056755,-0.05239613967438783,0.004042204136387996,-0.009923906775856202,0.0003699059495268237,-0.045882279132691675,0.06123992107839492,-0.0388161388523633,0.044135204277502456,0.004640221367317115,0.05750946343175593,0.031172953516495377,-0.014354998803695972,0.023299295017853102,-0.04099566299095175,-0.013358633093093188,0.07798670066495879,0.0535623739081627,-0.014299668577494581,0.014357342348376531,-0.05095481112797926,0.001946722929282585,-0.14512038716464326,0.038202139902155076,0.1401354017923282,-0.0993465530696585,0.172648866933013,-0.07369131235356036,-0.6198788514814724,0.22832963873334866,-0.8218691169904356,-0.43442803060362767,0.5037083778767105,-0.08953600413848903,0.06492771037798489,0.294481537189351,-0.0843979095180535,0.062362047246427646,-0.1700337769910124
53.55289840698242,1.3993034362792969,-0.1420136139603776,-0.06646283789188294,-0.021779939148647294,0.06599571247867085,0.05740577942374768,-0.01999543721518357,-0.1409224740798069,-0.0020900780020390846,0.0552288127146594,0.06321191461398865,-0.023955441966989306,-0.03250433238275324,0.0986532168637247,-0.11150342503641515,-0.010281798697222611,-0.0038091732600433023,-0.022412902579699613,-0.00637199706389819,0.046419628449434105,0.06223787092387956,-0.031039292672761516,0.01124079592326237,0.026021083650917223,-0.02681129772689451,-0.09542481192011652,0.0958877239650047,0.03104647508503091,0.012364092738346957,-0.09743417910635256,0.11252982594980462,0.06472393938596607,0.0027571614558329002,-0.01149358507704034,-0.0014778819624991536,0.023592608632164613,0.014446498944839355,0.010644794216102189,-0.02095347269059376,-0.008746384163524176,-0.06054617694089698,-0.011890478441115026,-0.03214385173759475,-0.010726875788979863,0.003060158240447564,0.0344140777482182,-0.016466616697252415,-0.04591457114082076,-0.07770808446000615,0.07792098078889587,0.030854169534347314,-0.01915388882396799,-0.034952142641975326,0.02706319429864443,-0.0027742925154448195,-0.008129751148641102,-0.033049515390732066,0.00604877359787357,0.09144927616795759,-0.02563020762722658,-0.004407155888480466,0.01366104331485396,-0.0049379935815907225,0.08552657525879243,0.06235235693213855,0.09171937572930416,0.07202418635016572,0.019810725149328412,0.013498184415705983,0.023312402913365532,-0.02470387207091543,-0.0789970615948965,-0.002967402388465517,-0.03409268327118347,-0.029116041271372232,0.0001539772947483503,-0.05214976278429658,-0.08068074508631394,0.02770275984838482,0.022816751125209055,0.009734873908895603,-0.027094609275186254,0.024287296642539674,-0.07352061647443213,0.0170706255656367,0.02118700669088252,-0.009649527597324688,-0.041736879380155106,0.04034117588648507,0.05883663196969341,0.05915689694957829,0.05432605203477946,-0.1581284315202891,-0.03364282530903839,-0.136765558703399,0.09551080520209485,-0.018438621392312924,0.03071325943777469,0.11163340562001633,0.02310242466799258,0.08936551953853049
58.68009948730469,1.2887992858886719,0.12027552949179948,0.11136788883515927,-0.3809429891486551,-0.1375247590301222,-0.2599265720836479,0.10066722873391948,-0.04649808038372427,-0.22832530272009438,-0.4288691454245067,-0.24342841486359013,-0.11239086676103195,0.11246583649209382,-0.2582812791159728,-0.121761284655328,-0.007900908557890893,-0.09841948933660408,-0.01576638723788734,0.002187608249450309,-0.000754634150500763,-0.05071799102539874,-0.030892151541011253,0.06204165482735907,-0.015340615272649188,0.024068659866663823,-0.029916649250758737,-0.08092855199944503,0.046085153679401,0.06674492317473249,0.011545400795695791,0.03243649026419012,0.04638026237823532,0.018570242307547925,-0.01941147877778084,0.022434063756659933,0.03107455352265284,0.008988304109128908,-0.0014697347658875872,0.03173700829066668,0.032539121907074676,0.019657841674770415,0.04928981483570037,-0.0795712721598418,0.0007128814371563231,0.02190720164461235,0.052303101059589546,-0.0375439625771207,-0.1626103051615508,-0.01685754759839944,-0.041332365841611,0.06981165172258887,0.017981630530985088,-0.01400879474293845,-0.011221990980004135,-0.014261104110544275,-0.039068537276494626,0.03094906124455399,0.019129888111160225,-0.011691132636225829,-0.02081829628557089,0.05458908348558284,0.0016464373126986068,-0.0038578210016599304,0.06325557793938008,0.02612508990848901,-0.0749786522723638,0.022184808596654962,0.020865007001478426,-0.025329106439802344,-0.015328540212227718,-0.07380055496815802,-0.011964242739095748,0.033318356557861376,0.06105472632336763,-0.05358732556997361,-0.06468138007782176,-0.00492810479700885,-0.030720074755216223,0.07059091985783272,0.027995914850802342,-0.0711862302190922,-0.014880759441926,0.01098091263374032,-0.018713642636049944,-0.04856380858194775,-0.0502641710562338,-0.05083023973750732,0.009845341577467847,-0.011412831130600255,0.041915857034254475,-0.008571979905390284,-0.08786391391169326,-0.07877066566186636,-0.05353189045017865,0.5102388862685446,-0.22716874507742182,-0.05839181115991017,-0.41897252313498856,-0.14305752236882016,0.17196996695838215,-0.3822206479850437
59.96889877319336,1.2595024108886719,-0.5452661534455672,-0.14116978063298466,-0.012560664118844512,0.03916593795139517,0.018860486949319608,0.42304254918552525,0.4329554158144649,-0.2952813960322595,-0.05311774013646914,-0.11238138085260838,0.16331086821944957,0.039712966146298656,0.35727241183472336,0.07116919984994508,-0.05243517680894377,-0.15644977625238957,-0.08522139442178647,0.09671856240163264,0.004884592004242574,-0.06661218742071964,-0.009460458400777211,0.01787038665461339,0.1279235784621137,0.05489317473270572,-0.11056895336911883,-0.06356929743037969,-0.023097684179232997,0.018373566805370688,-0.02632925884847935,-0.01847400236257429,-0.01355934842785427,0.010132204118594076,-0.03829174350373382,-0.09767625066683767,0.012546448573669391,0.06039634943215733,-0.018275541278884394,-0.024007241144052456,-0.010641067870103119,-0.02976850636046815,0.023488985790030757,0.10957087177381022,-0.024265748492124314,0.01614993234626531,-0.02291865988211079,0.06557539115559885,0.016286435869659804,-0.04629263762849521,-0.026193221450414916,-0.04441606142820829,0.062442280839378604,0.011533813785291645,0.003281395973610513,0.05698079593435616,-0.08274127860144688,0.020547606233298744,0.010246866608375276,-0.08265611616014922,0.06788139790812911,-0.02980306965466318,0.08402515331771712,-0.0020128848627728037,-0.06511963908137804,-0.09959738444363589,0.07209111339066805,0.030018562290570646,-0.0092270114940021,0.0758025558707646,0.001510283714647358,-0.07353284220603654,-0.09035747524943061,0.056763584286631946,0.032308649514246626,0.058121133583716796,0.002811535194446434,0.049172220180298876,0.04705205801463151,-0.03985462374619498,-0.08394523509554679,-0.05739784406320248,-0.006811175367020247,-0.07380595769012128,-0.008491751093534686,-0.029939536749624254,-0.019863743466035772,-0.0698241537968363,0.02742310637931118,-0.0337714982432661,0.00872009665853999,0.27306835224485365,0.03799512363506067,1.0469410399154475,0.6362654342374897,-0.0994358444308339,-0.30657987562733174,-0.0816450731341906,-0.5452782573609194,0.18181262005521648,-0.03924145996286944,0.2878466745512437
61.22840118408203,1.2686996459960938,0.30160180379695445,-0.163281445489661,-0.19344124526927595,-0.40701914321930843,0.11547140087514471,-0.1521713652317399,-0.3266170091618929,0.03585825185224319,-0.15887063338331256,-0.052281744595654704,-0.06854032175207009,-0.05653709502034729,0.0092221063470691,-0.009597578684855178,0.016160651470753826,0.06954955748690106,-0.016864712534978652,-0.04567772041274784,0.003778231849828978,0.031317231249847824,-0.037794914049104004,-0.03410681348066141,-0.008309893962075945,-0.02173153766276761,-0.04500740980816012,0.017124123826230898,0.02947956798952245,-0.010178779062368382,0.046214219768119624,0.04770386515587448,-0.024821039779613047,0.0025205650753209264,-0.07975660162530687,-0.039630864364183886,0.0023486241874242702,0.04654331525417024,-0.0005637068057530172,-0.0609588936984989,-0.023732015829162272,0.01812640676229305,-0.0475720747330094,0.005997069150804023,-0.020530371119361193,-0.11889814438383013,0.01194328853094497,-0.07413756120478428,-0.06180849639607025,-0.0601170746166317,0.04298849467695111,0.05404997607124465,0.06961969971370928,-0.0157856574360525,-0.036409161984968325,-0.0895006036486744,0.035700029782177484,-0.038373887894334484,-0.007842254320178134,0.06879896336392036,-0.012181687548770078,-0.04729110680520719,-0.007797971183286563,-0.043931113417055606,0.07178534221546602,-0.005433130935394106,-0.0014190499605313195,-0.01584990355470929,0.02099602212480789,0.01730438476387331,-0.02133346164505707,0.026172727720668976,0.1344835034728984,0.08217925324806702,-0.07362968182551202,-0.02688346108178614,-0.009114495904293071,-0.002951770741895887,-0.0037848886079067607,-0.09808340067303951,-0.1125544059260134,0.017756074283747012,0.006953547693328751,0.016596862050784877,-0.03853260320054542,-0.03172776877732364,0.05471546650539208,-0.042245865348326556,0.020614402158524336,0.06643060982196988,0.017099988621463003,-0.06029908311716753,-0.3739383152662322,0.015767319946711295,-0.6365069305743057,0.3780192055468162,-0.27701132184096894,0.019161113015717837,0.539984584790937,0.04865424223056508,0.19450168839505755,-0.05146124943466701
62.497100830078125,1.2796974182128906,-0.044230381216950755,-0.01912911636636641,-0.028004467797846443,0.03364480809390046,-0.051790070368210345,-0.02783417213547409,0.07054906733268657,0.042828855171311936,0.030699236916484598,0.022161828446489756,0.020000342648703637,-0.0064465487355918165,-0.030117308826143746,0.04916568508656838,-0.002984355355592206,0.029047320360397325,-0.025679134416553184,-0.04949096424569079,-0.011572286523678567,-0.006829176130025899,-0.05466424508494164,-0.055284957876571436,0.0428119334366735,-0.01954503991203902,-0.007920975298713185,-0.0005769178358377652,0.05988674594824178,0.0013277881227636203,-0.05816583058958952,-0.013193093924393726,0.016107467145000758,-0.003072017397519268,0.004724957744302784,-0.043854168635411944,-0.03570814824359936,-0.09012770294838139,-0.009211435616616491,0.0856327136053851,0.009125336214993117,-0.023814068531205497,-0.0659978787341498,0.07333338316657971,0.009833784954723378,-0.0038939165774848645,0.07772609597862952,-0.008290822700322983,0.015711226964300586,0.01647370537123879,-0.03126766434606745,0.017274534108297088,-0.00357791871811209,-0.020812854942620758,-0.0013770613753722257,-0.011132573623720098,-0.04105500144388544,0.0847031236639015,-0.007373461933837269,0.005776344310037667,0.00668021487680529,0.0028194637392377673,0.002524012337275706,0.00548534667656231,-0.0021527210013602234,0.01402165745308672,-0.0031373712165598845,0.04335074192016523,0.032227589194230806,-0.006780059164763118,-0.011091016534013731,0.004803420024851887,0.009599743207021385,0.01971068553815657,0.06694341836721726,0.034486729756664475,-0.00625475989178824,0.0062110981791903275,-0.005107007239240719,-0.013862854297298395,-0.04428854187824633,-0.11511572302101139,-0.03175478636090083,0.05495800059991798,-0.015960200366646457,-0.024373846532399216,-0.02248423311485047,-0.07299489673122313,0.017693825479808994,0.08242521819953089,-0.0039203434114159635,0.13025550616158832,0.031190414999247865,-0.14045548867615398,-0.051143336533195666,0.3926322058892452,-0.03104328544628885,0.06630074633292016,-0.1278601006720233,0.2933415126392743,-0.2597299481135511,0.28686606674698
63.776798248291016,1.5290031433105469,0.2768360658281227,0.028992250174913085,-0.02091228236351548,0.055388433933436496,0.13537060645315627,0.12471357043652555,-0.02004123929966379,-0.0018534129506234984,-0.0038216954538807736,-0.057175589380301095,0.07636178376552628,-0.04945414513625401,-0.010684084270168774,-0.034382753846580835,-0.026017718164282777,0.07541065575369049,-0.023738590142203447,0.0067472939715602,-0.020983087867783544,0.04219138526990983,0.03395794701443543,0.010331172302638443,0.002339965512476317,0.04803821926849444,0.03111668796592394,0.09461796274292636,-0.060096125008236176,0.06467159913850214,0.04083546563203737,-0.05301052273613351,0.014003647753207815,0.04249106485507907,-0.001945236789637084,-0.0024929459373835977,-0.016712651025432408,0.0009787252153357093,-0.004781492867324143,0.01194261118478614,0.011836383531912346,-0.09508598991135248,-0.00032784381540893235,-0.039544200745742546,-0.056492416030022405,-0.01688006634137769,0.01948782188254189,0.061501281028237396,0.07341540501783284,-0.07437842601545766,-0.012562347615372194,-0.007529822021363067,-0.02759452284297685,-0.08043213627178294,-0.03691042601479767,0.011426435714053638,-0.037606967005639175,-0.10793279847464689,0.0021823326022621797,-0.02676927158706521,-0.003171099804207666,0.017373091805014285,-0.00917669845398543,0.0254576962437016,-0.006331195216515727,-0.0303926059130499,0.09665056024346462,0.06297398724190005,-0.00292515893193206,0.05805386482538824,0.06642466083229104,-0.0067722101369289325,-0.04329460200552247,0.039564477291204166,-0.04203130073938939,0.012331315152209898,-0.0008539387551564324,-0.015840466590098305,0.09264785215730954,-0.05333577502748924,-0.13406195046540978,0.03924649949314005,-0.0355336798096788,-0.0498391302705849,-0.10860417714021715,0.04701993041610788,-0.019098689802289584,-0.06776203189281114,-0.09560117399938933,0.027235943615629463,-0.08124197776354913,0.3003704523700131,0.07962780517760018,0.08507650022091866,-0.16152112849378322,-0.2000738576903148,-0.0053740078350083265,-0.027933698773644794,0.08906354399260688,0.06336711602159581,-0.17960841331264293,-0.15222796335893526
67.86389923095703,1.278900146484375,-0.5573711194081805,0.2549050022574174,0.22972864907587287,0.3544223280604348,-0.46641618190445466,-0.0799837996363287,0.24793980876900068,-0.11431960877864647,-0.04994036441388863,-0.17319345232356098,-0.6524468783612477,-0.018766342925061515,0.09577400990215593,-0.11680171625911319,-0.09380020153818847,0.09708852524290555,0.09936760597098832,0.06213131647534819,-0.0653221551201595,-0.05196634345047675,0.10992335473501154,-0.05887326508520467,-0.10073915036148731,-0.0534661159206024,0.061273790687399875,0.03747407148305718,-0.06503413789359491,0.06024363413238176,-0.06559321222399934,0.014138963157471901,0.010421035277922274,-0.009408857177165428,-0.041733713674810186,-0.029249085933566107,-0.05692960076514503,-0.0497425627549364,-0.028562248467155167,0.019683771656017483,-0.007401465740064769,-0.05867632954785222,0.05636434262350772,0.014924908661464982,0.12706021935608458,0.08421993071280487,-0.016666895497317757,-0.029472165573808287,0.035004807285200557,0.044748632047444635,-0.09398510390138841,0.07566033519906605,0.010990096619435417,0.007957655338764231,0.011248295648315493,-0.08273445720782094,-0.0008020439376119285,-0.03367740102506972,-0.014918694485215794,0.03707507516747691,0.0008093278280245387,0.001456286300340684,0.018010757021591627,0.017954421837763992,-0.025788872029703636,-0.0015992324075905819,-0.0014214417505240984,-0.02124392613629126,0.008841624717469052,-0.0301679021482837,-0.03868625221383515,-0.07000199671789009,0.041873640316028124,-0.031116196012758928,-0.0058843435121372425,0.03678605679351507,0.03552920890493571,-0.147797001034855,-0.047268056992938616,0.06911265130877502,0.10412526614620964,0.0022714908039380044,-0.036207772305830076,-0.07143904068822912,0.002777598428424721,-0.035567385961501344,0.03820973771163202,0.09950025185334427,0.08663821857126526,0.008506239532093937,0.006060305460061596,0.001865137789482975,0.19848845398951873,0.14441675123249256,0.4978696734819379,0.2852951225318646,0.2696179378493691,0.019606273192393928,0.19375313681276923,0.005193296136064604,-0.3256202548542632,-0.521180768135145
69.1427993774414,1.3095016479492188,-0.4603468986813395,0.2256146159644376,0.09075068274758319,-0.47431708943640405,0.18774379264114902,0.20931190237947406,-0.22610212353273482,-0.4327135084340569,-0.15774542473888184,-0.1498453947816013,-0.25525015514554894,-0.004247086383156334,0.0026673232755844104,0.3091972291863787,-0.0828914363254984,0.1089451754059626,-0.011300936031698046,0.06169904846678553,-0.034334557770699395,-0.05530718544265101,-0.0065528382824289605,0.06145765456676269,0.004829061798144266,-0.004779812856365681,-0.07130082068436369,0.040019682714594815,-0.026347387799131823,3.266435746970394e-05,0.056682247932320594,-0.031790696055626906,-0.04086662863764948,0.0014042495987048598,-0.029023517443700957,-0.13423448869685756,-0.023681300545316683,0.025287728165095703,-0.0621579868141213,-0.050949753755970974,-0.05563628413976843,-0.03803869974102082,-0.027675187203736306,-0.008682920887925317,0.01884148750068171,0.03756123786527073,-0.038736481843225035,-0.0534200287057999,0.05531408589410581,0.021712883467246633,-0.0295020428526995,-0.03087089356107571,0.09374104200155513,-0.04134199350408615,0.017977369995866778,0.014052060235736552,-0.0007445396651654476,0.028412202706235918,0.010421490574863334,0.06054557717929586,0.0043494904849760456,0.013352045766727877,-0.030091383057534525,-0.02296205535711348,0.03163734109006193,0.031973329400573264,-0.026835447263229305,0.0049991384334148676,0.051899875828331686,0.07078485712903954,-0.04508920704976202,-0.12343905045786313,-0.051765181017048315,-0.03716478452324637,0.036790172123636056,-0.011136357062513789,-0.013153819978939421,-0.0345360540436532,0.039777450732409195,0.02097062613106808,-0.011444983389669691,0.010132044263872445,0.030565098988553335,0.011126094285722594,-0.006758176562188512,-0.0031327411109488327,-0.06367450302884009,-0.020695907881795254,0.06255495640983262,0.024483567542741343,-0.0031646569410011226,-0.04251726985929231,0.1047393743825879,0.8004184619241854,0.12275008381928959,0.6334393363338725,0.6744898059817638,0.20217446632487712,-0.04002074394098743,0.2578113235215823,0.15258805229521605,0.018797417010616657
70.45230102539062,1.3986968994140625,0.1741194633465356,-0.10593419516605376,-0.2838649587107288,-0.3272019556325532,-0.17522016123731435,0.08180709757677626,0.14087616269905764,-0.007603956525967889,0.21956604424563828,0.2684475179567487,-0.2319879911653919,-0.044051403977141745,0.10578058966527706,-0.11823515724073116,-0.15259260682204762,0.0397178215095218,0.04349693885236003,0.006747338161997185,0.04295811892918883,0.005711738802261538,0.008505694547203912,-0.05178477487965388,0.06038980581235356,-0.06525397522239879,-0.07043369225336425,0.004209621628778384,0.06482727542140944,0.011878709321352238,0.022595259192900036,-0.0433145672394415,0.053686837627553496,0.06934753792172088,0.0034406925294776913,-0.03807282674178666,0.05145068885185943,-0.006069306376646062,-0.003498379151866292,0.033601323652908945,0.06311757730942724,-0.013860473997862952,0.06095925493072338,-0.050132009573232314,0.028590559627033208,-0.02415180458300003,-0.018384548914150922,-0.06476362247862132,0.06517742047577599,0.0025070904672502003,0.011676908452561901,-0.026510198711621833,-0.05275219502313992,0.00920444710522802,0.04160210202297794,0.025544598376769076,-0.05720344981715523,-0.02452710676210567,0.056471115922943446,-0.030509825853536003,-0.05189901452169769,0.0061864008772766115,0.015185498935258331,-0.030300828028783797,0.04059240174072211,-0.015148729709343741,-0.04575495271013014,-0.023715072087240406,-0.022104952360713918,0.002900893603242741,0.02647750880711977,-0.04965049982453702,-0.0056435161800257524,0.00663338469256549,0.07457257909045702,0.03753912425888115,0.010733390701282684,-0.08303719961496453,-0.0739518410267001,-0.06512619169168835,0.04430674699154437,0.0008669223557409289,0.013163131459974662,0.029258418649176565,-0.0026395045521216826,0.04824493892986406,0.01299557400523491,-0.04928033347606698,0.02762139297470446,-0.03914496048545435,-0.025997228230181874,-0.03248937529446313,0.0062460998995791245,-0.2613697943152012,0.05232684452528175,-0.640077598266634,0.2380430893304926,-0.10353376643353507,0.14956372000303148,-0.08264382669561833,-0.18647588003655202,0.19813041399511927
71.85099792480469,1.3794021606445312,-0.06939400625857528,0.15507104813759587,0.1819855720959019,0.6031472749941419,-0.09943241826009389,-0.16335508825922704,-0.002578275828661454,0.018945856846199306,-0.024292757338413032,0.036601699273928014,0.009675504627388054,0.06987715559424187,0.015866460275703254,0.007100785927273892,-0.03466432599349589,-0.012128358422507785,-0.005747767529741331,-0.09003791248315406,-0.008935328489647544,0.006084542140450629,-0.04690076866288165,0.011452110085588307,-0.0071874629274027504,-0.0323596521362747,-0.00383653953361457,-0.024788392779459108,-0.046186173482731095,-0.05426186575141668,0.013913752673735362,-0.036171687056184884,0.017420084968646617,0.03569876858584487,0.038175865975604635,-0.0331889583793007,-0.016322705962352864,0.005958962901879949,-0.06332122336066122,0.026722302976095826,-5.6222659276819204e-05,0.028791928975140203,0.04190362718690859,-0.005195205066241786,-0.0380564789573576,-0.0013243860889160682,0.04021493945211069,0.12307028734390546,0.04200768680111762,-0.009008589573046602,0.09195022204352483,-0.0638609445722117,0.05614384589060717,0.03460324802532812,-0.025803058733821396,-0.06343539717844127,0.05527940378126967,0.007810841830643503,-0.002499191006470716,0.06025287693717249,-0.0026889112999800013,-0.04121205417875147,0.000729232542389914,0.007942325847425333,0.002760384239695788,-0.003608807697507063,-0.10130395160081918,0.0332239855481069,0.04173112550920335,-0.05406385059853086,0.024221231774097858,-0.06813530680347646,-0.02971019710292283,0.03838748782720225,0.042010759972401,-0.03543240230766464,0.009682766265034403,0.04869355809880329,-0.02648271523610587,0.11256557720477492,-0.031188736302066054,0.011333126367509891,0.003780812307143142,0.006400232841427917,-0.11085424769034256,-0.0025433877249578544,-0.055742624589615826,-0.0028352019130916035,0.02067954257627137,-0.07700721343206632,-0.05283496874730027,-0.015445005498631849,-0.07148160529585584,0.17372911135660998,0.09546939156294422,-0.009031339616115653,-0.3653148900534629,0.5945151906810194,0.32743004955325566,0.031782816878131406,-0.35151938330327615,-0.41147737193193995
73.23040008544922,1.4093017578125,-0.38268511485411877,-0.05079355970471558,-0.2961325808239048,0.022108453391013555,0.2624886915094811,0.19859811033982985,0.120345669909739,-0.20436020252680268,0.04188470813533014,0.4004261747973796,-0.029590444070772236,0.02679064505851314,-0.2519660697497404,-0.15849151100555964,-0.14830933621042605,-0.010046204621915744,0.05070536033558817,-0.005300083896302466,0.17338646690841875,0.13873743414538675,0.16784219549641222,6.621528707639467e-05,-0.013813320973755122,0.004966378466062663,-0.06259216818698103,-0.07892411345330137,-0.02471792845328258,0.07798997554616763,-0.09592861230359749,0.05940300336386618,-0.0005122447290355948,-0.0016786245104718116,0.002934523577471907,0.0270055243882115,-0.05645639563688586,0.03364116114603228,0.005037914170791352,0.03643523003159076,-0.02777346616723461,-0.0009533449258712265,0.015658266626351735,-0.04599831237231238,0.00619795428173665,0.04003381027970107,0.0278368304077392,-0.16296945338343022,-0.03436677222084263,-0.014795785603950397,-0.06092341594738353,-0.00972947707647409,-0.014721747817496786,-0.05275947289780303,0.0584299467739227,-0.020329158227190038,-0.016259388602955012,0.001140869059775188,0.0009142213170063601,0.04060311127927807,0.004419010540744431,0.019577251342411405,0.054389369700198024,-0.11323825583198315,0.015363583104793688,-0.0038887945945150493,-0.00231108927454369,0.0015350111343456823,-0.026426054888412064,0.024690758535918504,-0.0053857103145703855,0.029445086196042386,-0.011034041603482639,0.09375477829844742,0.016905135899855577,-0.03720736149300232,0.03646480242342159,-0.0369499147424617,0.0537628817963533,0.11225338558590783,-0.032806903325244545,-0.039982603645563386,-0.048217391390528705,0.05484404695199063,0.005932573935990174,0.06779840180487776,-0.009565662233666306,5.4794627653471234e-05,-0.029331085658130335,-0.014232639306671978,0.035173824018502144,-0.19287192041876577,-0.3507852721832358,-0.017227364915597676,0.046386577083467745,0.08491204958858953,0.15685676615250269,0.04007148977633342,0.22326202461502462,-0.19390004969898572,0.5539606740850204,-0.021169179798659565
74.63970184326172,3.147796630859375,0.1100610788766523,0.17436441669176708,-0.11403337346712732,0.2081576000551432,0.03965125322780109,-0.10117438887339372,-0.001081668018399179,0.13653166990435142,0.289633376171179,0.20571135047053812,0.016661375168626327,0.0007688846542702969,0.0008225795180084924,0.060098445677643525,0.06523893023737831,0.07033426879846914,0.0039081992392978075,-0.001527269848867425,0.08801022394943406,0.005884866181402892,0.040015147202604594,0.012821198101688773,0.025859968796631796,0.06770032716431504,0.021992293178779217,0.011938099581598652,0.06824913602650914,-0.005115316302589878,-0.019824588736568404,-0.07226841288543114,0.002411652401302883,0.04021526553089505,0.00841015749423906,0.022852580851175572,-0.07433540345012538,0.06021921327748597,0.002740766324707675,-0.0007320882771864913,0.012728639727647012,0.010254892435708233,-0.0457324821238783,0.0012652337466042677,-0.025495197230704834,-0.07714048087544277,-0.03402840150210859,-0.04537437173080235,-0.009538673282351098,0.003873647749243902,0.014005842183409528,0.012910158824005747,0.0018301810885686094,0.11086720397487781,0.06457368441864564,-0.012169729913073338,-0.0037120408491996644,0.08960539972673177,0.006074093388359545,0.025434537254665456,0.007624728381064537,-0.003071244443246142,0.01344462311617279,-0.002675796552247225,-0.0002696948413110654,-0.07406404431705924,2.526098248689574e-05,-0.027670505306148653,0.06058950968468427,0.03861609654370391,0.006730363375266002,-0.007857003305482653,-0.039608082544649884,-0.04235251301040972,0.05938200413530193,0.09426299263816477,0.07150764269638676,0.03742855915027464,0.04651252489924949,-0.022605174507486638,-0.04047215143388429,-0.0013057190193306659,0.004369781860607727,0.04791104926901275,0.11956655609948297,-0.09524806123647436,0.00022413534967763622,-0.07206091104463137,0.06843338964644001,0.10648595340483856,0.05924260819254259,0.04756853516842305,0.1556081667775558,0.23583805549286968,0.08151325014553484,-0.02536719837646456,-0.4208912907424848,0.31922644094617414,0.008245471692476719,-0.07466902092872772,0.38986315234003877,0.15683501877002393
80.55580139160156,1.3788986206054688,-0.010121991204437741,-0.015259560116624427,-0.06124366139926454,-0.08298275232582039,0.14934581108366235,0.04265199369039755,-0.14474517676329635,-0.09488124315016902,0.1393118006096787,0.2231704151127094,0.06829033976999098,0.15144142523054466,0.03697614461505299,-0.23552690486157507,-0.024556351427010556,-0.036960985602803365,0.19090926497472827,0.07786045366138301,0.09178473262187967,-0.0038132980082424607,-0.004992826837273673,0.040601036960897036,-0.07659958768746292,-0.016874103551896585,-0.015411666135173129,-0.01251115476687352,-0.04026326247078447,-0.04307142646588738,-0.01568968210474713,-0.04333624040586148,-0.04835931868557977,0.034511870818339126,0.06803599771995245,0.0017608708283952785,-0.02220386824146545,-0.0005350137773947423,-0.05259238335690938,-0.005480490623436073,0.01182072662458838,-0.018404245019972988,-0.0026364354519985925,-0.01519561865972,0.05963078438484336,0.01630462417457273,-0.04663636520062351,-0.026718704647190904,0.052152935664201164,-0.003722114303196908,-0.10120192441394713,-0.038719568311572694,0.005474453068633497,0.012047847612469883,-0.06963656171053804,-0.0351415630810691,0.0028625562603053194,-0.006005817704230023,-0.011807282614005208,0.006568369866086634,-0.036805495763320796,-0.00014790922444528467,0.007155899865974212,0.019392511811209896,-0.038427494593277677,-0.020229515506530217,-0.028788154033625314,0.003710409722780754,-0.04840815145685902,-0.05184109023362952,-0.032111408578532,-0.0037783456277054248,0.01806529114408152,-0.014450416525876919,0.05027850212069026,0.06150784559442211,0.06292271427659327,0.014171949060075035,-0.09976246553875559,-0.0010923432257801302,0.051619871629269114,0.011974062584764099,0.043270487856466484,0.08763581457397002,0.01637411283636646,-0.03518936724479036,-0.05922306332477395,-0.023300593983909382,-0.01912998625300967,0.0027993773634669167,0.13371707227855312,-0.07457240557186347,0.027966360540797285,-0.28816056252542843,0.04294681820851282,0.007609898686075204,0.05946858717642595,-0.009982725940777697,0.20266664042224758,0.028077593268582966,-0.03237547635714279,-0.27968969932637905
81.93470001220703,1.38909912109375,-0.13931727154013565,-0.23711757362152988,-0.5324207834717842,0.2113861709669702,-0.047275840597297794,-0.168514315624196,0.026795783013147046,0.005965255764006333,0.34404994080906376,0.6704879553548596,0.096786535291623,0.07015010752044626,0.02057455687277695,-0.11550661387755845,0.1092135128953129,0.1005853127664527,0.012469070470754346,0.013916572597975732,0.1671719616080568,0.07571616648637572,-0.016446570667095962,0.0732342746098863,0.029378130336190415,-0.12129818671627461,0.03305220347638907,0.058226436008863236,0.037467461090138994,0.048261822392890764,0.0004088182359860775,-0.021658754258408228,0.05213953557706602,0.061873908637826276,0.0034292047900985933,0.06272293107766917,-0.0027482936449821052,-0.035576162576126724,-0.010489752056045843,-0.09645278968514993,-0.06954082649128968,-0.023128340683916712,0.0312173727000077,-0.018852375126581195,-0.0654663315228936,-0.0007869799233198738,-0.031440692512474784,-0.01151267693883213,0.004753173183950089,-0.008904429777370187,0.059452137227453745,-0.039880765862333765,-0.1135052368909711,0.02736940812409964,0.0007962074715190944,0.06450351882113552,-0.004044484281385083,-0.035753344610688104,0.05452382734188497,-0.004933851124798309,-0.002455037549542471,-0.0670806094321868,-0.004957641052271335,0.000673450620233667,0.0018535395410543799,-0.02021109801307356,-0.005486260806724628,-0.01435233489507115,-0.027847045687838943,-0.0390208838687128,0.040942155032501884,0.05747245482637978,-0.011630889573716968,0.0028654222073569886,0.025895638496396364,-0.0005658492138145826,-0.027753253500684257,-0.021259846542811992,-0.012798589210702248,0.09727023035054248,-0.056023680716276475,0.022146086548532767,-0.05555565408598724,-0.0166031543192024,0.03389902612326547,0.021856565874509876,-0.03458554186030237,-0.020428585816845826,-0.012935340805348292,0.03302099266619833,0.045807639013402915,-0.16414192414850817,-0.16527235069483354,-0.24199774666625043,0.1954619475358499,0.014499607179185137,-0.374768789399851,0.08438654520246278,0.08936347519882501,0.18974753687856397,-0.13542195753506212,0.022295080696758597
83.32379913330078,1.3891983032226562,0.03306949133194942,0.1424706334961992,0.20619735257908442,-0.0788696735179979,-0.41630708074069095,-0.0009689066809646148,0.07354458761760486,-0.2497225035230043,-0.20620397395294754,-0.13428395566470777,-0.003606081034936273,-0.037974063075781495,-0.03943288105931736,-0.03303459452599446,0.009303550502430522,-0.08791467089655208,-0.003629109462870333,0.03892444633834052,0.03729512258313301,-0.033643766711794254,0.037924352538715185,0.011423307158402332,0.0012431331836749299,0.023163737323329582,-0.007432586241307215,0.03575726764474514,-0.0564330343311288,-0.005797142963288052,0.006731992831481903,-0.021825060365615906,0.012562966508439796,-0.039415803524525776,0.006201731629730561,-0.048390060320148906,-0.0008249891250120313,-0.045609428024831006,0.027917109153134834,0.05001176512356417,0.013267005858286048,0.016339771846281815,-0.0335812714245275,-0.014024605862756818,0.020502083447102602,-0.06213848375486393,-0.01794042181681736,0.12125262961235866,-0.08798457340270499,-0.05271282482716336,-0.02033208490332501,-0.012056493602364373,-0.005171212420216769,-0.013493538904916433,0.060890984670033066,-0.02118719222046833,0.038644334793682684,0.04847927973949914,0.08995812998590996,-0.002130578805937228,0.0003203418228550274,7.741240333931243e-05,-0.0006915610324019821,-0.0010633604278868264,0.03966211989836798,0.04044788920374797,0.06555800788663359,-0.00617731512107946,-0.10034086762474191,-0.021591543758134032,-0.08824961152242977,0.06224004439585641,0.03644903876630336,-0.020869442212718588,-0.016335075883301343,-0.017232118697501148,0.03154153828554759,-0.036236865887342956,0.014865995492088273,0.033121226202556586,-0.008807845122966097,-0.015357465293807049,-0.015529201066172879,-0.024923159664436107,-0.038508679667884196,-0.015117293299828813,-0.00043009036667360136,0.027394667017184314,0.08736515461616465,0.03481338301998438,-0.0015049450090491722,0.0990847118073879,-0.010374601001412121,0.0873198715137081,-0.013668322264341434,0.08551391362066314,0.06776768335047319,0.1225442383761926,-0.16294458269627268,-0.6635528044494844,-0.030595451766790065,0.4308677770291018
84.71299743652344,1.3190994262695312,0.29094224248267214,0.1149053133330665,0.15511038992630755,-0.18459532167648846,-0.028307498548312764,0.33043849193152885,-0.15536429702366397,0.03717096045609156,-0.44423865113747646,0.23889398686864985,0.15965782546448967,-0.03416218676818822,-0.032797112754000116,0.02478585767612612,0.018745946572138898,0.012147625867478709,0.0009424286036506104,0.005129349383743896,-0.001009653698722429,-0.03134358231340195,0.05164486059288402,-0.006915570427197343,0.007503381422687782,-0.015575526504189656,0.009863462026321618,-0.015682390991944586,-0.07218538278368691,0.041152130630877165,-0.0027131673883075743,-0.05119811407411709,-0.0033863725757856612,0.0033947116542342587,-0.046532923092550395,0.0069546655969559565,-0.018271804495332073,0.07598788544303266,-0.010467722857571091,0.021717230986922912,-0.041653351238330694,-0.02509394496513651,-0.004405994379878516,0.06883311415249789,0.01980071103120699,0.06092509633015044,-0.03710803308136565,0.05308171008910642,-0.0400387585064138,0.006854042350510111,-0.05290530239107131,0.027723992816489903,-0.06079833303862092,-0.002511926236530784,0.061217978263992896,-0.008513416486297765,-0.01457396447681041,0.002997083614235593,-0.002453489611829435,-0.008191585574884514,0.0008739443788333579,-0.003920119546628617,0.0006802905638976321,-0.005992569540383683,-0.0030292140821236604,0.006170269495114714,-0.0010606717675505834,0.07240754140619603,-0.001536262571605317,-0.04321102387392176,-0.0409384749494994,-0.016957289337323583,0.032450773502570585,0.006750328106326482,0.08520655961837956,0.06690000704447366,0.014901670729003558,-0.08115660048483649,-0.021126316143530714,-0.10078869005037344,0.11034371650601256,0.05506272734455875,-0.023929793089027592,0.03769833488213044,0.00864208601691842,0.004013809310919072,0.01589925275098304,-0.026719509058404672,-0.018264422197323497,0.0074991531577257445,0.11596180896272536,0.007129860366039612,0.6194891870588067,-0.31783069410935244,-0.6758189639981681,-0.2181205555711809,-0.04766838933025288,-0.16980532241977944,0.0011614114548337915,0.09058849054802845,0.3232953302562659,0.021395576395458422
86.03209686279297,1.4087066650390625,0.02998357982018017,0.1002250616032033,0.15144930898662878,-0.01657982212063131,-0.032002786051255575,-0.14409032800196947,-0.02067833383418168,-0.09001661438947119,0.0006165537275842972,-0.025788850220138576,-0.03678209246140901,-0.015237809357947022,0.013451021961810366,-0.05069822405783109,0.0029158935281633157,-0.06209214358608857,-0.090677893974248,0.05002107402364531,0.0030279481459794698,0.025653755378459528,0.056131977595742726,-0.05044219630193385,-0.022173110838500175,-0.001000419524904151,0.04000124623556531,-0.05319744595525276,-0.033948319210374084,-0.06466477315254375,-0.004016899306682971,0.02082461371994744,0.007521452316610276,0.0053991641972881334,-0.01164693812913496,0.06720680944547444,-0.022038225527430583,-0.08255097103946418,-4.529414658374642e-05,0.004418645283570436,-0.10202981038412451,-0.01803477156862302,-0.07930529622376449,-0.0023000605451902398,-0.08893094890692971,-0.018981382815030645,0.0567942186774075,0.06583874389852695,-0.06512211906815342,-0.047718876780105404,0.1171341358977993,0.043788463440201326,-0.0033543912230981684,-0.0415300864160143,0.0012249539646531494,0.0446758451680639,-0.0446105307449636,-0.003876881620033263,-0.07758963328581941,-0.005004335992187873,-0.009343274019667211,0.04581783074363,0.016798054325315708,0.011620730501605206,-0.028439771354974767,-0.006512712977384677,0.011205145415224438,-0.002736098671098669,-0.04531560294923602,0.002076454273479293,-0.0134981274631275,-0.010809543164523564,-0.10693182881046931,-0.04163133317822479,-0.014680148866167893,0.028061972250680817,0.025721274918846234,-0.028054079454016556,0.0530167120889424,-0.01096707221725077,0.005058040203299225,0.0013938739040256498,0.04069505664360942,0.008705815433200476,0.012467237257694747,0.1595704664383582,0.04856731829749633,0.03133158317879193,-0.023581801446228023,0.10052503068380347,-0.2553961730984629,-0.25520348525507464,-0.016026507449503125,0.35836679797089854,0.7461119884827005,-0.07779693537230001,0.12733732826411617,0.06897612087313625,-0.04283069011704824,-0.43745588496080956,-0.018415317179817915,0.3475780816073629
87.44080352783203,1.73919677734375,-0.06747697007626269,0.10950171474907947,0.3475711757859106,0.09100548059644707,0.09596859395139674,0.05045000931741655,0.053640206913119756,0.045197920983539634,-0.010464712492317618,0.0006364541554392707,-0.00997825863512462,0.0682202080684741,-0.020567059699426148,-0.0349870012982582,0.0042564830345153465,0.04210868985360039,0.007256756954052834,-0.027640588090406423,0.02695701681613977,-0.05917614589562111,0.05080011240902376,0.04807174588377491,0.0068079563285436875,0.03235257592630489,0.03939670435097617,-0.014438815231455585,-0.0026180003614578863,-0.007643110146978043,-0.005568975773640253,-0.06565505895673768,-0.039802976260213146,-0.0051028919536377495,-0.030142587895343225,-0.032133213578372836,0.03944950898857509,-0.050172214661885026,0.001771386647265643,-0.03208538244904165,-0.06330039355458383,-0.06341934007637891,-0.039279106168661274,0.03459522396965592,0.027220628469785846,0.09433698713379209,-0.07023048395847722,0.0815735155085293,-0.005520931549658435,0.032381367661849896,-0.05136706565653523,0.057604874284593474,-0.00692352188232259,-0.04011420877807695,0.01317615784132291,0.029249457923408443,0.002715731372464312,-0.016833180124636776,-0.00424699576561271,-0.020938319366966624,-0.017722687585285737,0.004317793163571792,-0.0016490122098316274,-0.015468935096616237,0.025701798770005745,-0.06398684037489646,0.018985815500251038,0.05573618652439289,0.01963863836955733,0.021863547859557925,-0.00839128702397552,0.08342321096553243,0.0275121000045156,0.037688980588289074,0.03981383173627173,-0.04363831066724103,0.00566287272892485,0.10407926267384417,0.02478517275345528,0.03286888372479799,0.037269036785096035,0.1352045086718694,-0.015509586347625282,0.04227887590399607,-0.020741780278468347,-0.07435312797334907,-0.015942326992679837,0.005009664554389573,0.0361568540151723,0.006744259721573026,0.0005310487284189806,-0.061251735009988345,-0.014083315665046087,-0.17091062769033225,0.015187047548504251,-0.06669358091893884,-0.026170353728463543,0.049529148488675984,-0.05582425067177353,-0.07524693795257198,-0.003198164917058474,0.0053363992193380325
93.3772964477539,1.4090042114257812,-0.17858041507257896,0.25660399868292094,-0.07206155509264162,-0.27427181115860905,0.03973113301605262,0.1158637350698542,0.02850704569425527,-0.05340083611804986,0.07216708251708999,0.06151253620999666,-0.26461753494862916,0.015719664522163466,0.049395363950496485,-0.021623353695923248,-0.001324051332820174,-0.038527253788796095,0.03924154659460047,-0.03663817295963994,-0.03975353801100402,0.018837096642469645,0.015719240233116848,-0.017536601932506356,0.0731254192635177,-0.0023983250498972822,-0.02368661898819386,-0.018695212607472658,0.05132184580557435,-0.02420970077479192,0.033189053630832153,0.09647888691687304,0.08740587536568238,-0.08462519783412992,0.05531550135062163,0.07176634825077731,0.04355244203885687,0.1261682282738165,0.05350320249666084,-0.051664069236793994,0.023244743178945468,-0.03449287820728873,0.03081128114311402,0.01600377400655415,-0.03774991411058396,0.01802585539020123,-0.030721332731960996,-0.001126864766592085,0.02271153815508497,0.003398729130432782,0.052304318194218186,0.03173977994261198,-0.04527964976969242,-0.02291286911664657,-0.051893822449068046,-0.0009653103333536071,0.008865515447076484,0.0006979007560334995,0.0380951612074258,0.02088542197931067,-0.0345388547336195,-0.03479619207436366,-0.04798505851189154,0.03142695120037348,0.0013723817196274115,0.09755230082452818,0.007592699623039942,-0.03754741113583931,-0.05579087843355353,-0.005553288157396391,-0.07199042570253328,-0.00018799024275541198,0.09488170176821743,0.01472640432489597,-0.021970379497579545,0.006300464454242384,0.022558601772826665,0.021524798788996265,-0.04201298339937567,0.013222660056017861,0.06400976594009537,-0.09252739140178216,0.08051866869690533,-0.0450954939935032,0.0389971518760037,-0.05740817376843117,-0.046735719223739015,0.046549313734769095,0.01979426005385767,-0.003146020236973364,-0.10038440776908478,-0.11978551446393154,-0.33329057894072817,0.5895546531436021,-0.11835118964405987,-0.07145115354797633,0.1101655645358138,0.2561529262422114,-0.11756817261333233,-0.3556730283198976,-0.1307960662317778,0.03647617392457239
94.78630065917969,1.3292999267578125,-0.12252075020827484,0.0008895009218696723,0.013397182991968381,0.20880954459899095,0.3776896602297421,-0.30885565805522985,-0.35816591424149014,-0.1546374499516003,-0.20777979675146913,-0.12950637915937363,0.25299061468988515,-0.042221492754187434,-0.022264378817113708,0.005311128101758271,-0.02017951752162312,0.023236449888723913,0.048920778771544694,0.03712427098799979,0.04509555027968291,0.046219027914330864,0.00565165377526139,-0.06051634630498802,3.5288353405121646e-05,-0.001029084974205132,0.04295692103028953,-0.08296521724724833,-0.03113951085516643,0.07934415073529147,-0.05335154114357854,0.01792919198407245,-0.015584193624171582,-0.017274019199499866,-0.010211409635526015,0.028976774238478147,0.03965167208495915,0.061087433532478586,-0.035548495878410996,-0.008622584213848355,-0.04075150266274264,-0.005589055507027908,0.007807658416098106,0.09996704639192852,-0.010287047043287085,0.0020316824633748293,-0.0203637576682838,-0.017204849708605568,-0.012783535287808977,-0.0017846129346850855,0.003315557849365453,-0.023299810022840622,-0.009615341723236604,-0.014579087472342817,0.02421624790858517,-0.024909008135428134,0.04336121691751397,-0.02067235353602073,-0.027716429514924694,-0.06181847996131841,-0.01561308879228315,0.06442615276911162,0.004363735934206072,0.016227381971431278,-0.04847759750215108,-0.010180142332826986,-0.0020884317850864142,0.014288479634452192,-0.000462401306417691,0.005762116557074884,-0.06344802704319435,-0.1264121252667608,-0.06121096501903278,0.009351644025972307,-0.054061106686429966,-0.015387352279024769,-0.004624377982336968,-0.0037671567993302624,0.0445039033579336,0.03377427701100031,-0.045737411834039066,0.022942496133984074,-0.01433927853786621,0.06237159553154941,-0.0099261099739749,0.022220086628674453,-0.0302275564154265,-0.02929967465196269,0.060143454181814736,0.04076737678624764,0.033466320620070655,0.14019493002198935,0.24246198073551184,-0.0919322488495461,0.11147013619399632,-0.2495166697565625,-0.08581955562489922,0.3075555650293414,-0.13440017130865956,0.02281617713601003,0.0020815806517678337,0.0855467787413828
96.1156005859375,1.3289031982421875,-0.05530509265082609,-0.09697139528529966,-0.40878613512729567,-0.032240320395922055,-0.10560187966444762,0.09491182131741571,0.32265534675165186,0.20471826157997403,-0.30073821841797127,0.8618184771387434,0.2268363072976719,-0.12442632975425606,-0.39456995466129857,-0.2802771244412434,0.0060969262831166915,-0.041800213876862946,0.07277700662229977,0.2791075097317148,-0.04706497450392122,-0.22561510797477027,-0.028461325299330528,0.0006050001365025497,0.0195807806087082,-0.26708907384944686,0.11397168978216722,0.027350008313009135,-0.05574817794768155,0.08881574230408001,0.04047697988206928,-0.09511573304338361,-0.07638206244448774,0.00413435767366504,0.14538421707548574,0.1409894855300167,0.027885336282675224,-0.08501668906008893,0.0938446869592457,-0.01109473033469453,0.025405926492398128,0.04087708715906954,0.03214943036173435,-0.0393764008565812,0.05889096321954231,0.08680613652053817,-0.024276294242961242,-0.042205700930530485,0.008152419171705666,-0.04714159687665345,-0.053931512181700135,-0.023340858706151185,0.049858524749287085,-0.0041774635584558295,-0.060981119443089746,-0.002889937655370954,-0.003388141218923698,0.02383394673925416,0.013466249595333935,-0.01355473041806594,0.002692738274752502,-0.018837921032074517,0.030538982343615465,0.008944363016829104,-0.0059049778637837854,-0.03358666174800938,-0.009872850704737757,-0.05683888988629632,0.018267450925395397,0.0015971109143951903,-0.02075338963937903,-0.09430266996908027,-0.12395415653472511,-0.05504102883975456,-0.044162503454412666,0.07454793594400426,-0.0018913682999067774,0.018112615526829218,0.0029479920002662375,0.07247260063986896,0.04031577721282644,0.151503625012122,0.016857362204479753,-0.005191239608678013,-0.003564095088716841,-0.04811327160169482,0.012553217384603119,-0.03410752819966585,0.09684716622884829,0.10609591186798188,-0.07615181469545008,-0.023585867927627006,0.24151900901528928,-0.048203972434828726,-0.31091734291502116,0.27901713569339076,0.13371752993048897,-0.2440219914330465,-0.14681701596948848,-0.3706112621356272,-0.23326363729464974,-0.09422913309448758
97.44450378417969,1.418792724609375,-0.0646092940145404,0.01582206686043207,0.1724664420648771,-0.08837315461860243,0.2559829850521347,-0.10139204956693822,-0.22108674844653997,-0.04244544381727087,-0.06807683307742712,-0.3586106018909808,-0.017477549950616386,0.2282952217011789,0.30942688788772066,0.46292920579657093,-0.29461384355145975,0.03856869010186788,0.3022553434662465,0.04077834357778745,0.07226178011703203,-0.019349577743298416,0.0758466086702739,-0.062460235287802646,-0.3453370672334835,0.16692004369175323,-0.031467776801411274,0.2022224165146307,-0.056306964000566125,-0.03467690116433165,-0.04807197692489126,-0.028109873031346745,0.11284654564728164,-0.07281202261969824,0.0006362401538517711,0.015740461055511957,-0.010547457132036336,-0.05518836387552732,-0.0741117440879304,-0.04503263175786783,-0.16481969056331947,-0.0021771306328567733,0.11239340564600458,0.026374803761571915,-0.028959317742443882,-0.00972335512497139,-0.051250384175784494,0.00967236639287648,0.0009252028385680011,-0.06623268376248692,-0.015462540621391886,0.006621258146501899,-0.016344518830420422,0.005975365980997174,0.01645637378111244,0.012656054630175446,0.002090827853312966,0.029769399653047538,0.004061272093435738,0.007787635767871368,-0.025898439282480937,0.006322172580770442,0.006150204794025172,0.014393170075960431,-0.009118622346331916,0.043773102176339715,-0.006621464199713874,-0.09276717754040278,-0.001209064886868623,0.07397171586239737,0.025125262407311694,0.09618574425882924,-0.031174106712326725,-0.032611589471198514,-0.006499946237085074,-0.011710462397913835,0.02517223516109948,0.020769588645206047,0.027222488248873026,-0.05175919545539857,0.016428023394316715,-0.03010254195511069,-0.009706522240381389,-0.10490980372912874,-0.08300620637339898,-0.002028827942353869,-0.039908679272055506,-0.047251468528334034,-0.01988065716601104,-0.022526000046515074,-0.09987750204612314,-0.016934744538038393,0.07415137445122447,0.09101914280471175,0.03775918316220453,-0.09335511034695737,0.2706494504891356,-0.39319434844778395,-0.36815225839860416,0.20260061061995543,0.2360140048994613,0.4225226505806915
98.86329650878906,1.3593063354492188,0.4079719197189019,0.24206541546821952,0.35186740979817455,0.21648992236477924,0.3560197740565756,-0.27894872690285016,-0.09764490710752695,-0.14295017956298628,-0.03235202603676229,0.6655881098523023,-0.005298299473151203,-0.023138560039278305,-0.031299565871044405,0.000835683782560109,0.34732718711453997,0.07681793480806864,0.00035433984435544186,-0.0719922162264418,-0.056974996513389616,0.006780630439822695,0.021913214142578744,0.02628188051136556,0.07967688218004393,0.05478437840585453,-0.006433462628879819,0.024889208935617416,0.05570624077384788,0.05694573715186971,-0.010017514854640804,0.008145847206985312,0.012820140797375007,0.05655796954700169,0.1795424404620817,0.10455034197792808,0.010144922278600092,-0.008669672178640477,0.01115459215213052,0.02403965259904078,-0.06566889759898782,-0.011882478142624088,0.0029646083159944893,-0.0017457015146806025,-0.005509267223705424,0.008192206745099103,0.012026058207555233,-0.009086982629523493,-0.036989689108959195,0.020800644810033124,0.026398336606643594,0.010126489131875492,0.033442722514560985,-0.0032071277091756923,0.058467588639738895,0.03947620648210639,-0.05579409967007018,-0.02393660727923206,0.08129961806945643,0.05268523378014159,0.04188005821431018,0.012643093459671483,0.07395858483497986,-0.004500977405405356,0.001418892713120449,0.05289500437337679,0.020291537373882094,0.10747551859676929,-0.12240328151396176,-0.0900886508950868,-0.04923327879081836,-0.04137406793925638,0.05738197947614445,0.03503712624337779,-0.0014347243680193356,-0.03873449368260687,0.05369167682626162,-0.028090554703381263,0.008987617597549135,-0.03180633263179923,-0.008278338256914644,0.007996519600027122,-0.000962981209447011,-0.007671076538279925,-0.004771965554455844,-0.06072638091097747,-0.05342883200544268,0.006841149629337382,0.011797269008467207,0.021272143366968362,-0.05198898657145613,0.024062739310065587,-0.018521077739061136,-0.0373116097160659,-0.06558858751454091,0.010687710358500427,-0.023948346975730183,-0.05719857926859752,-0.14547694082233226,0.10147402261467817,-0.03359000329981228,-0.007995628184452423
105.95850372314453,1.3290939331054688,-0.0048206378434063335,-0.016580524562893828,-0.019384829447135626,-0.05839932233634529,0.027129077072074716,0.009473196875465243,-0.10570639381849992,0.1415711519436682,0.05858955920715854,0.10392621628553458,-0.00458920028091328,0.02944940244153034,-0.03134598014029352,0.06464021237233163,0.023970362886066063,-0.031752788162055165,0.02220550351811683,0.021337245677314612,-0.028639410237901237,-0.007241039944532721,0.024530407050727714,0.017760502938165553,-0.013820755910311913,-0.06301379199595773,0.006197690121966082,0.04151172815121069,0.009298091608252816,0.05438361762084609,-0.0028609085217241896,0.0664840475366941,-0.05339573916228974,-0.016838159681993016,0.01339036159131922,-0.005337726839047995,0.012991795139319442,-0.038564743250568786,-0.00829775625244762,0.02850735614217008,-0.038071517871617215,-0.01398971306906538,0.027931072472060413,0.02154120110655413,-0.051251319925407296,-0.033610610416237696,-0.0766780580768343,-0.04197139755934875,0.02111472233500441,0.12794162080053642,-0.00528379380201497,0.04868294104472333,-0.049121605394601885,-0.005053091378546805,0.04169906448151889,-0.04060397318588026,-0.011985352396610163,-0.0009654609363269745,0.04044443806788824,-0.013632748978825621,-0.008833437884125911,0.056716581216719755,-0.021681313758251712,-0.0024318875708703074,0.05360597293471328,0.041396428350561426,-0.007162525957780969,-0.015443475014792037,0.05022585816879173,0.00847491104716984,0.03359274166433987,-0.04803895672343128,0.009253581158550635,-0.05725634509578866,-0.06133609412447214,-0.0043437353820440835,-0.04091219913828913,0.0819965219062984,-0.07547531574951971,0.0260863036218533,0.043844054283721734,0.007290859784577738,-0.015973612549445557,-0.023635126169060834,-0.010573445485506898,0.04166343948658148,0.0009331830899924898,0.031146491371683488,0.010596326673165046,0.027351383655183765,0.014403000835394239,-0.12732549332151166,-0.243682916033598,-0.3110347110825253,-0.04637810923964239,0.10564692295517937,0.3527049730932939,-0.18383493690665037,0.09214475585976781,0.18701513502942058,-0.41511502121208116,0.2858827984006468
107.28759765625,1.3595046997070312,0.2924660841894198,0.352072899846261,0.012880259347438888,-0.3920098204476387,0.10406427403386653,-0.30800103432262693,0.030400163372854304,-0.26507465982382206,0.0334192824585052,0.018659536066781165,-0.07028153483839134,-0.006276694081374268,0.030768954060901382,-0.06026104385329929,-0.014027323624035925,0.08750692845791012,0.0044370400805196445,0.1056245374068919,0.10318409969448418,0.1700746375246065,0.020739825096646076,0.022044972902596875,-0.11860137810939257,-0.002117182578287918,-0.12000129275833765,-0.260934373929807,0.02850837132848371,0.0034021738476840467,0.07979500145001192,0.03904263609437322,0.050672412547294154,0.09820530466511057,-0.00873822200819651,-0.03629433760613329,-0.08022171377362157,0.03901924344070097,0.00033620124268144715,-0.0009082038874014885,0.04013481210549225,-0.054367660094205295,0.042553289778084605,0.07464504682043176,0.048397509909226796,0.04293021286513383,0.006610796846980182,0.03368647680176321,0.009633824286272052,-0.025226066684701856,-0.026074272714675176,0.022140410152872818,0.007424317051541037,0.02132196881389214,0.007891664965809305,0.058819048007232345,0.0060846858182533265,-0.026631552219457507,-0.04020757109570776,-0.0033011862637368355,0.014867778700168045,-0.0008831341015748433,0.0005302907501312186,-0.0065236171656258704,0.03821435695162171,0.00570925085973907,-0.0019391169713838473,0.0498170694190933,-0.02879011396286839,0.012936852049952275,0.013304178491431418,-0.01881583699274056,0.08130054275717821,0.06148730754785281,0.04781756983553919,0.041629584082016564,0.012493068719581125,-0.08386146638798674,-0.06380035689130734,0.0076837465201973505,0.03863326173353003,-0.07830801084573949,0.04356840327963631,-0.05548748183667595,0.048370883957839686,-0.05861578974299107,0.024937369007852164,0.04686480700327278,-0.03672178755123314,-0.02031510030253182,-0.04858716830697386,0.004007203283207521,0.17387947040752358,-0.37517575752718557,0.035493225764608616,-0.3617424685487882,-0.10344206445403299,0.3040552785778024,0.12643618436100762,-0.1850764373641535,0.5341487930310252,0.0037796654192285284
108.64710235595703,1.4392013549804688,0.14562583277170543,0.018071243617806966,-0.05312163903189847,-0.015026002999002558,0.06681725164200943,-0.02903733284390274,-0.07420719152649718,-0.24678578070192697,-0.10983583657778821,0.04842540307614784,0.09919580622055545,-0.04919875037883092,0.0262358002185323,0.06464269399388049,0.026760808183063235,-0.045338231921709264,-0.048124718629621144,-0.0067385042484740055,-0.03542064172602333,-0.01971682697506169,0.021390273735782495,0.032656543776191656,-0.01726963324897649,-0.01566292380607983,-0.007865428808348866,-0.007353444825351239,0.0049080668698526,-0.0210123815361468,0.09363069522368984,0.027594709109263517,0.01429294505909124,-0.043213661280041185,0.06890722283919327,-0.06811706309054556,-0.04568937331513497,0.005673048204985771,-0.0059716895207018,-0.011351723525937229,0.047479109817251924,-0.009390454125508468,0.002180984803802824,-0.013299546249495942,0.09761836833615847,-0.060023933029984794,0.013316732019637945,-0.013812634418655701,-0.012682072139289208,-0.017597241531087285,0.019650025280201735,0.009895752622713814,-0.02710227208131082,0.03385681359269629,0.0942332492756445,0.03170735617196383,0.018641062773329258,-0.03613342113148309,-0.012723706712846283,-0.006595585492413942,-0.019626195834352857,-0.08023436613206687,-0.04290075417129848,0.01264860724536186,-0.002720872693092208,0.005252960637451802,-0.06083166927593209,-0.0018448847046167935,-0.01628188880453592,0.02882340672458451,-0.06331656573057164,-0.01169755516131207,0.060014952618565945,-0.08321962724012485,-0.012268535328480438,-0.06846082575553636,-0.025020092737041845,-0.044247239376222006,0.034590267997437626,0.010680264834749853,0.05991552197153563,0.006896916442101428,-0.01291345389498455,-0.01260412862316476,-0.00174778096507465,0.0028608072345737124,0.03149535745843115,0.015666600845051365,0.0627657835719943,0.03585893372806032,-0.05287673541984469,0.0990057817119949,0.11758008986832559,0.01899833786454663,-0.002319537184066328,0.36174996941128357,0.3262616365988418,-0.06261353964953457,-0.2102790244733678,0.15205192656473657,0.12596312045186533,0.05192357074646437
110.0863037109375,1.38909912109375,-0.07510366294649765,0.06655949637628188,0.06351108460286806,-0.0007042065974123459,-0.06846206524730845,-0.00902806443040027,0.0038243114491537215,0.0745293475525956,-0.009427338781341301,0.036017492181741426,0.019020340550429924,0.019983407661696703,0.02917300350893834,0.05111685499439256,0.06437206936092078,-0.009103953463116009,-0.042049509608648644,-0.0681080203709312,0.08519338627651885,-0.0008561403534580675,-0.038255995818092345,0.004438283937240538,0.013917747616335751,-0.06166982200797726,0.016303058470476237,-0.0001934914960934322,-0.03363364931582141,0.002445406435739116,-0.01063472083550351,-0.005211318363342638,-0.078432825495913,0.03592251406240195,0.03766822831156366,-0.013142329124689545,-0.004900425222264286,0.004197198912897235,0.020256239773886534,-0.04478053653461158,-0.05168426999029897,-0.05416294647881918,-0.05440091629517309,-0.0030616560655494225,-0.073880430445038,-0.018926805851040184,-0.06623096149930584,-0.035282800068409954,0.0426447921333913,-0.013855153361251501,-0.002205996295252297,0.04327147097082762,0.05681955980338316,-0.08717191106723515,0.0054613756068235325,-0.01798013352562783,0.041144177518679936,-0.01288179498279778,0.003858435486001609,-0.012163086932842085,-0.004285221973693947,-0.06865921197820776,0.01913673912979427,0.0008692154555864019,0.051630152498532006,0.01481419228679608,-0.007663961469474654,-0.059393400821510844,-0.020942503325384065,-0.084326083743568,0.017628839500528348,0.08658510039644085,0.029512920260207368,0.07572632217060168,0.08682392080504585,0.05536995989312527,-0.003698218678732771,-0.043461518170308217,-0.08796911553301029,0.015371382976718433,0.08381291022025045,0.050232997564531,-0.02968112409638017,0.03300364113784076,-0.08048540839400795,-0.05236328237733413,0.032096521886591865,-0.04040404350542483,-0.0036157826529666305,-0.003982858833561739,-0.1392352672747897,-0.07018397054002992,-0.00042918754138915154,-0.09828883493107951,0.09079159312280655,0.2887557840495317,0.4380721920370903,0.010801702872611351,0.03677589771927774,-0.19662505248184844,0.13323022339593624,0.011706771101244073
111.47540283203125,1.468597412109375,-0.11547561766595199,-0.12782562592144908,0.3731907109242674,0.19085584806754058,-0.09887681639287274,-0.01702976645594374,-0.03693873169663267,-0.05971135714712858,-0.048878264399441,-0.002106588375066887,-0.03188088484719509,-0.029246870663069982,-0.026444634006960663,0.007440091348761592,0.00854376964569509,-0.0688485277184996,0.05580441712571391,0.02143092996828814,-0.004532724459462671,-0.02263809949755876,0.03783212770353152,-0.03468730205230829,-0.013361567102828393,0.0554657270906081,-0.08442451103179337,-0.03321605106052905,0.030874868771328223,0.03969118042077721,0.00032495930760764063,-0.033693860818530215,0.0786189164314208,-0.020642084312503313,0.0358588472574208,0.011248828030088837,-0.020220811016182783,-0.04148448905930871,-0.10807532100792203,-0.029729048071993867,-0.02429018789301074,0.10077817952498971,-0.0009580689035467985,-0.0036149673556063475,-0.07805164025371278,-0.08969162127642671,-0.13271509333671305,-0.006260515738822892,0.07521206814456939,-0.049702440765466024,-0.02683943477539318,0.0559207980704029,0.0037322639343704916,-0.04459049033401711,0.0734293009643184,0.0395053634700557,-0.027095462813472918,-0.008160938984440388,-0.038010552505892505,-0.00017332145561570222,0.10638465313245972,-0.0025592659932781297,0.028309852689845046,-0.02807850220666702,-0.01677057772467529,0.00812853755390482,0.01927902065213644,-0.052705293571355685,0.008775651097867019,-0.009780509408988593,-0.04683449388950149,-0.02473050960905451,-0.030332453007624025,-0.04809823804491738,-0.0035122280156867913,0.015165064461286737,0.04558053713630528,0.10793931806122342,0.015323596656811201,0.07064166609446709,-0.035314125226775114,-0.07113658542510402,-0.021035307230280888,-0.005086523055521907,-0.011560813730688395,0.11563267050893863,0.06768377163028169,0.01741215879689272,-0.015071841561767472,-0.053936195289892325,0.14090610400797524,0.08284056365464548,0.2411963186965259,-0.14085174180650126,0.10622360707948834,-0.4265855576999787,0.16824804966538395,0.10170611436971688,-0.0348009718028156,-0.2054018411982384,-0.030866817182945636,0.20485633204593495
118.92040252685547,1.4290008544921875,0.23051327804259597,0.10098886321725443,-0.06103325166393653,-0.0997059698412634,-0.0073383499059891145,-0.3388766819032796,0.38225760153760063,0.1367398008088035,-0.2538543786580827,0.011481961692555331,0.038658210539676593,-0.09102831485283644,0.027504767343929155,-0.007941095380695817,-0.0766110565517675,-0.03357694268229902,0.03701414313475297,-0.0365289620654926,-0.01995825345492631,0.027271444310440415,0.028125498763746624,0.012966379100841386,0.07086472212919806,-0.030994718330938708,0.0793725094617238,-0.013270503486427332,-0.03599154236636831,0.004255056404144405,-0.038880722366043105,0.007287681300057478,0.01935431791137083,0.05125187415741551,-0.00848097820294745,-0.042994819547144535,0.028703112431448026,-0.01889912190291104,0.12381428228221535,-0.06849833318146928,-0.05284114700279555,0.014570808473973677,0.08839178274295939,0.012650414798713004,0.04981207105315004,0.027866081849440307,-0.04923295174275569,0.04996805884830146,0.026408783864347765,0.0031394012184790777,0.02205742098314868,0.04297429582518996,0.1035923708603192,-0.006119168957350328,-0.003602222605534161,0.048156343117021196,-0.003935495778588872,0.003207165680926552,0.06213375294238015,-6.901287659291655e-05,0.04864675213720397,0.07377702556025421,0.023590938675671014,-0.05083269130025207,0.0013909267394475893,-0.01346105403767743,-0.02199639036049808,0.001102604446520189,0.04344400954913882,0.012269151310044692,-0.027312847928354297,-0.032217208224566696,-0.02213452954289013,-0.05857229762755134,0.0588590749818578,-0.05830636972305747,0.046300574282309874,-0.019234034126435012,-0.002262734769584904,-0.0006711083551970282,-0.0006570154289436258,0.0526083710102486,-0.026277318908510275,-0.05132187962797577,-0.05016090896460776,-0.047422876999752575,0.07830665351838038,0.02213616546792348,0.04313062408568418,0.23565904165959434,-0.043294808729996956,-0.20674591309420587,0.0015776473727486928,-0.1913781940384764,-0.04995849456317572,0.0054223879175790465,-0.1444913857851397,-0.007984808016102352,0.19079395575855188,0.4089379459184129,0.5124652693937808,0.3546113185725744
120.34940338134766,1.3492965698242188,0.34231850208590453,0.08313711764292793,0.08178456099749287,0.01149123608945091,-0.20895165232247023,0.09348394890885514,0.031022527417024624,0.007807537685877351,-0.03767167706993051,0.19631119876840597,-0.021798930758933154,0.06945293018466182,0.24298914144303052,-0.02499937175675512,0.08964492047969547,0.07639275943040462,0.020385241142528016,0.07287159766617837,-0.23460251329819662,0.025816350354281384,-0.00038498336442422364,-0.10199312185964851,0.006540224612443877,0.06515596818635494,-0.010634522293888945,-0.008519450934471325,-0.0018364467741776263,0.1163048213318339,-0.04271459784969693,0.0052050323854352576,-0.021781805318259108,-0.019689674396200486,-0.03502008288156805,-0.002680959828010681,0.00766266465731901,-0.009133955399967073,0.01831006508753355,-0.0432179521832237,0.04393372681451255,-0.055300246587647955,-0.039050702857251214,-0.0799750844804566,0.008112070421166394,0.06151277465948491,0.008755053673937491,-0.053591846095502965,0.010028743607209869,-0.04256208471050521,0.03642590150088273,0.0031802123098533335,0.02872957850496021,0.006579762473413381,-0.004389854419433648,0.030925210596641793,-0.09787605527131703,-0.025509781316675067,-0.0985790597681594,0.040499466410447084,-0.005310405896399782,-0.06271800001694872,0.0024446511822631876,0.001578294031582348,0.09271194882760418,-0.0022176323632796292,0.023327669168126633,-0.018564018716610942,-0.03023011824334189,-0.005830019712694047,0.058440475032313394,-0.04450427014977543,0.025521722458885926,0.01993399224319118,-0.029145917953084924,0.01275325237735176,0.035682301802817194,-0.014888456058994835,0.004837502204451345,-0.022584943804206226,0.00269835661842841,0.0026899390212391863,-0.006880480235477721,-0.047277097509857535,-0.05625665686289159,0.048215092766881566,0.008587501344085873,-0.011328101961372017,0.03796698183583672,-0.005104873064623958,0.011100582687961342,0.028871768982243872,-0.24676801676390192,-0.22654877935182904,0.4838032092104836,0.11820202784756235,-0.2962281435136511,-0.07902951496608321,-0.3737012992376198,0.4090736557376796,0.35875359303365967,-0.1644894126355514
121.69869995117188,1.4289016723632812,-0.15238280105927904,-0.07086374334362802,0.3968607439485243,-0.09790486082928347,-0.1215408156955408,-0.3852663685271577,0.028293309027100345,-0.35916539834014266,0.12454055988618726,0.21044884028276584,0.1017710228144356,-0.040254711619216905,0.12088304796393756,0.15012894740288377,-0.029603045801499226,0.03490324983789925,0.05512236522861935,0.060235604060425774,-0.054960384829720106,-0.09810188748163153,0.07921178587907785,0.1099337071666426,0.11578079756055804,0.16008336983168686,0.20996705650634767,0.09771095332207186,0.13128898186142887,0.012046575868370948,-0.05777709474556693,-0.20415745499691812,0.0045900969891759635,-0.026971978163528004,0.023422381919404413,-0.05457484033550424,-0.016440565912657995,-0.017911644221746344,0.013444222543116478,0.006055559383965503,0.011091573831009376,-0.04878031914195436,0.070577489735667,0.007419972362198953,-0.028218986926109066,-0.034449489697452956,0.00376331319939259,-0.036696212876616584,-0.021075369479070127,0.05633904012565411,0.10387215606235994,-0.028561113903948967,0.09667844405965277,0.050739591370786166,-0.018315269935053745,-0.04338040425595693,-0.03398426823509407,0.0038405392053089075,-0.03788538402963479,-0.012944754867257867,0.006060388691828816,-0.01600995106361017,-0.01294250588180635,0.0022148527986156417,-0.0001262780781008079,0.03752277383945208,-0.004172578618692019,0.019707201486540586,-0.029176198898331382,-0.044026882813587125,-0.002409613924333141,-0.017320938373096402,-0.0442157724278088,0.007383603660062523,0.010751897570914954,0.048955630288753105,0.03863883465071459,-0.038902283386299814,0.057171144476679654,0.08813695183940883,0.1358526718903838,0.01505569187512067,0.038885810395985924,0.005538725776333032,-0.057579726828724635,-0.04800691484985432,-0.03916999574384168,0.08062262912539572,0.029996438287317514,-0.026626603169118735,0.07454515946762584,-0.07690113093702705,-0.06160060255955067,-0.04026057314913149,0.14207846640778055,0.1918610504750105,0.13448086246576138,-0.1397637233266442,0.09204326480074285,0.03996884300426495,0.15305569009458345,-0.041368976476272495
123.12760162353516,1.39849853515625,-0.0338017107274127,0.30395477011481536,-0.26462560022617,-0.17194160633721714,-0.11478173402067497,0.20299462656649597,0.03457311002116625,0.5571189847171003,0.1742848202354072,-0.15180754025728604,-0.10196204299820955,-0.32389168309186783,0.2491634500976623,-0.27418890045693667,-0.14436372913718315,-0.14110107930622762,-0.020018779522904283,-0.09947907046309035,-0.03777016349910568,-0.057340217395093,0.09816256928695943,0.44978214477576467,0.10378842850270231,-0.03653326106660058,-0.050942657015796415,-0.042774807333383714,0.021560832445894566,0.09144031694299232,0.018406983520835966,-0.02747645061872342,0.05964146595791035,0.07268724695160766,0.027156698161288195,-0.014308982306342196,-0.053378134255985976,-0.022778184704157142,-0.019333878218328646,0.021012870176718084,-0.028322339071514477,0.0712720193961792,0.03441517248776045,-0.06600575489196504,-0.0036918317705182807,0.004133018240319739,0.005161812162180305,-0.008940635956715242,0.07633457199485894,0.07900078507821212,0.0116916647581235,-0.06608862954942028,-0.01323945423756689,-0.01663656089585927,-0.03379324786708888,0.0656653128967728,0.0021829836075784557,0.01575075369989431,0.004190683742462629,-0.06091862142116102,0.0024774182023040575,0.006172471615932337,0.05992359880717574,-0.0004290285979919065,-0.01564042283894589,0.08557023234106231,-0.014660261062960867,0.016629328981551394,-0.025407727467287297,-0.061177716553182715,0.01771161407525801,0.004534425260436736,-0.0022865356672015008,-0.08217619784386274,0.006038637048957651,0.011774776559879947,-0.04949490708312822,-0.07658208139162802,-0.0008659827294290734,0.004112229805989156,-0.043672881789087695,0.025567072827896598,-0.0008864389299752678,-0.05403584141477662,-0.06435295142700118,-0.010730790984460005,-0.006076483886840072,-0.005473917121366068,-0.05634003705784087,0.09110914584726938,0.0635915193006496,0.068634818521714,0.12807878282126034,0.06294607727136385,-0.3970839603947752,0.08045027452036238,0.08906667941982709,0.030349068541598728,-0.10408468167758564,-0.17470508413063593,-0.12874014847538473,0.18092610358778294
