start,duration,0,1,2,3,4,5,6,7,8,9,10,11,12,13,14,15,16,17,18,19,20,21,22,23,24,25,26,27,28,29,30,31,32,33,34,35,36,37,38,39,40,41,42,43,44,45,46,47,48,49,50,51,52,53,54,55,56,57,58,59,60,61,62,63,64,65,66,67,68,69,70,71,72,73,74,75,76,77,78,79,80,81,82,83,84,85,86,87,88,89,90,91,92,93,94,95,96,97,98,99
33.463748931884766,1.2708015441894531,-0.005235691343322069,0.07255331166239505,-0.054013130060000025,0.060335182586366706,0.051840051233213696,0.027439943043023093,-0.16748662868718997,0.07521994618409569,0.019921312372115477,0.058907101354669186,0.03851777852232992,0.043588860644230634,0.009008356393108723,-0.045385413690273435,0.10598849472228251,0.08415530643774509,-0.025136789601073305,-0.012175793605479001,-0.006392970984269907,-0.035635438446203864,0.02527898165675381,-0.026471392158893946,-0.07254907441542932,-0.06445107383380126,0.3807120753298721,0.1969508679050037,0.008658264989926712,0.4183732386419761,-1.1400943355666904,-0.5745377348710382,-0.768894349933658,-0.40868482124879546,0.24330762334028133,-0.611838276522744,0.455099166450893,-0.010610638116702903,-0.6956018651310913,1.091885729817517,0.4712305690012904,-0.8237004695573704,-1.3359184022265935,-1.0369703809631567,-0.0340682987695968,2.26039776640495,0.7465664728515266,0.10353798120491806,-0.0455156851102404,-0.18087062147532418,-0.35959634974230853,-0.21263843050146636,1.516216645299312,0.2435690494214037,-0.21892312910349146,-0.13813312958944673,-0.03913066968750986,-0.18225571149993297,-0.0003578016185791609,-0.046784766863685524,9.355948958881307e-05,-0.037627799913263434,0.03253032067132882,-0.01938329143967569,-0.00517302688731624,-0.021521398551555125,0.011952648735852193,-0.007772294223845759,0.010944067466963619,-0.08183391240046536,0.0032593652720119687,-0.012940298470233733,0.014615065493750762,0.0841068514569793,-0.04188739640499499,-0.14824463039319985,0.10828068103289723,-0.012887449854816567,0.009814221790420727,0.07885501181998723,0.02442190949813386,-0.014001197026726715,-0.07817896047763692,0.059826203187508545,-0.028329264238140486,-0.11991364200863461,0.026647059141446078,-0.11522675802354254,-0.013428584864346976,-0.08691362184357786,0.020283274859053613,0.044029417769391344,-0.07846730770177415,0.06240706650801624,0.08814635297936879,-0.05056240769416692,0.06093501780501032,0.013767860645928269,-0.15182227000995147,-0.08815914544942666,0.08440407551317966,0.0880108892998144
34.73455047607422,1.2407989501953125,-0.06175156754815263,0.2539373306676365,-0.09136345459727453,-0.05347115601191151,-0.08198740349258234,-0.017430623217967255,0.0803174374519814,-0.022149806774188558,-0.007174542725917624,0.03723633036374215,0.01361367962456298,0.08341123399914444,-0.008841972841224156,0.010554693560950137,-0.07973165369440835,0.4040305670561053,0.22295416752918162,-0.17327811581121316,-0.3704908756047267,-0.8996179833208471,0.12690883501100395,0.09838679870464719,0.5671167117365618,0.6827121539512441,0.895289602455778,-0.1907855607394846,-0.4124191819851173,0.2224137527451917,0.16088549664673535,-0.3122531154573073,1.1290425138459903,0.9322489572418283,-1.085164659976398,0.1070411775050682,-0.2879884987555603,-0.045790594494593266,0.07984476609965474,-0.3163162969856989,-1.5086430668707644,-0.26730264327958025,-0.36283283479699024,-0.48860461355930995,-0.2548599980774659,-0.24717029360593923,0.062489507598506924,-0.10605634831138828,-0.44908405277219987,0.4092663674700949,0.16035272621286853,-0.16327760647272593,0.06214690131378457,-0.00012395884982310378,0.057754343633991595,-0.018010996045930004,-0.10878581447420603,0.014148096795375036,-0.017877470737047624,0.051048975233038585,0.05711705135787598,0.12965926661148577,-0.15276025901339702,-0.05155577636569448,0.03740436925232056,0.02090434269689032,0.018495952718738294,0.03431097582144732,-0.023344186575445288,-0.017680377621527705,-0.011336133008212103,-0.09032515027970593,0.01541446994287475,-0.01101525702515159,0.03353180589579912,0.06849073615131072,-0.022893626350945728,-0.027543800648714496,-0.16277214421164682,-0.05246927394769929,0.10893133814082688,0.04086474716290905,-0.023867477899177276,-0.14071323529838162,0.043560819920834964,-0.09951019224799153,0.03197311308545817,-0.022701751852153697,-0.02920142930913831,0.02702055670390176,0.009658945887520394,0.034526330501121805,-0.011910770301594278,0.06687308797289258,0.01298424865252214,-0.016378787029297147,0.0375883470266329,-0.010870967449513432,-0.12047637463220248,-0.07030089050926805,0.006498446231341316,0.007723092874295692
35.97534942626953,1.2004013061523438,0.0038531017532105645,0.01821595947223826,0.06837304542600409,0.08847385580279894,0.0827812161633067,0.255169796303099,-0.032576824226908614,-0.011700745015257176,0.11507756428396666,0.018218222532730265,0.23669492353531085,0.09192477659716278,0.02361851233360644,-0.07227524069122414,0.004603230873472841,-0.041896888320436546,-0.1939052427560113,0.051368924257526705,0.026098982973070783,-0.12877902305981487,-0.07872093796122859,0.03511146256715073,-0.19325409089517293,0.10766844669969926,-0.15463446058068447,0.026374711027499845,0.0193752719243742,-0.046366256278688,0.13665099433937491,0.4644973084610339,0.0028838223327710133,-0.9182083619727259,0.42071249393710064,0.49247983448592947,-1.0105352722051955,-0.920908070523033,0.3138325956130057,0.38192729082231347,0.009811847993563464,-0.3729127767192295,-2.5014499994598993,-0.8512313965453835,-0.21192577318770345,-0.8063196408829802,-0.5292655447675195,-0.4746140983168776,-0.005611791750387355,-0.2981442548239867,0.23524050902533372,0.22390815980148626,-0.09839145410182759,-0.2862216219663499,0.1604524170926102,0.0895469143381203,-0.09573116714871095,-0.010558645357059544,0.03772364849539633,0.08495818123304638,0.011390905692018252,-0.06213982837419767,0.02500324646027441,0.05074705859746561,0.007090273282549348,-0.0033542440716243056,0.07470171083228379,0.08081371209319123,0.026886294764881663,-0.021976036492584915,0.03472302801572559,0.02267673705179677,0.033449769005377966,0.12764522640858442,0.057110625246908325,-0.02205476332455808,0.07763031216013319,-0.04096560144071009,-0.06845741090846992,0.004522414634892474,-0.008363372379068925,0.057270275625480746,-0.037266002223531026,0.03291780260695314,0.07583885030732158,-0.09951241350308045,-0.0101772221544092,-0.04010831409674656,-0.03484177756803079,-0.09697779808562654,0.05234820086078288,-0.05062747879094524,0.01481024876542173,-0.1311863897489934,0.07054973330941021,-0.08627201277220259,0.021734782839522602,0.027749179992994935,-0.05766553482594168,0.039149323336072205,0.013946968879552612,0.12590268911519534
37.175750732421875,1.2110977172851562,-0.010036199016343866,-0.03906490038764011,-0.07308446115539083,0.02984931702131119,0.039540975994657244,0.07522814609185541,-0.21112589898944176,-0.21930649775043504,0.12491355819135624,0.010401831059390819,-0.06206017647724222,0.001851021278282915,0.0018344960956749243,-0.024698651308184227,0.037548339110162074,-0.026421878210095565,-0.0369104141799268,0.123357266020856,-0.03279112598422767,-0.07483614046071979,0.1293226761112907,-0.26945691492163704,-0.9234679873991433,-0.46682185872467113,0.10431915835598332,0.7962847649537467,0.920782710877095,0.7582966738594461,0.9175220643163322,-0.501561201072711,0.01647946530486727,-0.9442324401578245,0.34573317979098345,0.30442913741628413,-0.051370668953565006,0.5164136423052815,-0.1249509879304549,-1.3686182928475865,-0.560217592974406,0.8626130455875762,-0.49815122869485695,-0.521738037561915,0.908846115687973,0.24392897076192677,-0.283330575245751,-0.8845944230541664,-0.4817920500570272,-1.2844747012562217,-0.33713239251797233,0.06379198178436235,-0.5642698198730842,0.20366127421471625,-0.3380730555080932,0.48345236860590163,0.0009321915731081543,0.2364590644977736,0.00464214737258894,-0.013086141339278073,-0.08003927695606791,-0.024718598161069163,-0.0286765123535193,-0.04580924241082601,0.0810330920389324,-0.11959819900535143,-0.03295387365831166,-0.0007846857203434353,-0.0077424755066685565,0.007197782741192926,0.1126539074628838,-0.00043508792526714905,0.022606253844960674,-0.029762856282708194,-0.060928014219430116,0.05746588083781655,0.02024922909073466,0.02096512660041789,-0.0026213181548853867,-0.012651277825687486,-0.11323412194759017,-0.05139263593359624,0.10618039069246553,-0.038068197952524564,-0.017708837893164495,0.012102415732627934,-0.0007186905399744496,0.11336309046392527,0.1109027439326053,-0.029310889534814425,0.01107772232639117,0.0018955868045048975,-0.0574876584720203,-0.05023496078551983,-0.03410312897403392,-0.010771631015377406,0.013550640005126605,0.03429345389737712,-0.04641426800915917,-0.21243543993017353,-0.037011980868472835,-0.07763090444443711
38.38684844970703,1.2409019470214844,-0.07703797288377644,-0.14050446063009323,-0.08298275266993785,0.07154960708148611,-0.0857719505294434,-0.03560601997915993,0.10012960408068192,-0.020655005976065347,-0.06172910301674717,0.046665978408277964,0.03992159580262053,0.06547004783750571,-0.0905274732828836,-0.09527731681134702,0.009028013293109927,0.04312723212856243,0.010249679329901208,-0.007258064026286134,-0.08181061501854232,0.031468196567237,-0.08427227750885069,-0.008998816873679726,0.09539125718738842,0.08467081661011082,-0.05109170812405858,-0.2130014281713633,-0.1574028557845099,-0.2796383952286321,0.1068920731849273,-0.3295628579115074,-0.7369681233229836,0.20887036829556077,0.2772207223737305,0.4022519371366854,0.6825695186344143,-0.602756712405369,-0.2787109031570376,1.3013474859474374,1.0566003585169943,1.0641921055930077,0.9109154563997127,0.07801152295698026,0.16974443662612407,0.4430638384380392,-0.28339914794342286,-1.164860130546253,-0.810715505637254,-0.08939695949855055,0.4155336500479304,-0.19530209447366528,-0.011116327618222517,0.39381011681994943,-0.036655156222239534,0.047391461812155436,-0.12735171657719144,-0.01439597326494487,-0.0167356973107537,0.08414321047940361,0.056699895936443936,-0.036098582594640945,0.05249925657444987,-0.0542627773513822,-0.0008772289401784937,-0.009237336312307404,0.05494113146699828,0.11270844069156512,0.1366924964248081,-0.059130045296675315,-0.019974759204285722,-0.07989316573312812,0.015878549910586924,0.00983327790159643,-0.027316134110464428,-0.024435686046339757,-0.12003902124905332,0.12144815863639243,0.028763441555203897,0.05920404671845386,-0.06425156796786305,0.024804386025965908,0.05423967790311796,0.04719939942320392,0.04085722247824403,0.029677866810490332,0.018743190585271047,-0.20070815657433536,-0.0015245036342620155,0.05845932712831502,-0.046771315796431075,-0.016884824814647204,-0.0337116237986886,0.0036415074367034603,-0.027751243290955498,0.025692174508720297,-0.09790370658777457,-0.040650892353206056,0.07618032707343003,0.01622216912528271,-0.125482103910238,0.031849260916790814
39.627750396728516,1.2103996276855469,-0.11626258233846981,0.02541455672538982,0.04082273586934343,0.03745371911026756,0.021445208941132145,0.2771022352832347,0.0578825280483918,-0.050426156484985725,0.0989682566834356,-0.08393674706261035,0.12902214426149392,-0.005079794344256483,-0.011647871799409919,-0.054460564564233066,0.04204911983413768,0.0606267354533336,0.04930176277853919,-0.040547385129492505,0.01232639214471139,0.23799197209769674,1.0449317515256176,0.26768382978898225,-0.0012738642424794042,0.12435023014343817,-0.5219371414614371,0.24397736313837654,0.13659349207457852,0.3144379184065943,0.14390049680080427,0.5442162604944717,0.15761400338267037,-0.20743944355325933,-0.20100198455485785,-0.014934527896736827,-1.2995029095403603,-0.27247980629470064,-0.8375899234466426,-0.99431094308016,-0.23766788954955143,0.27358598646738036,-0.8782481497667411,0.08604963317683903,1.7797619637074737,0.7433699209342168,-0.4632873421190699,0.7388915477802076,-0.3791229111333821,0.525007344490792,0.19572579554406117,-0.5425469647102408,-0.08651769459490433,0.5066035552589846,0.08779026735576528,0.09288182993477816,-0.004074832628907393,-0.14502055049323956,0.054984552196540935,-0.036350377433723186,-0.002169381100159945,-0.04168290854640087,-0.06009406494661066,0.044189636549854056,0.08297782279331621,-0.10732659909955455,0.025414883824608492,0.00196214897786888,0.05893960161590448,-0.0002877053640664845,0.003650982249285519,0.011921360628395994,-0.0037770185542178774,-0.007656177665661786,-0.06173158628535348,0.05886288196510312,0.03627403089788439,0.075913096285191,-0.013058008890814113,0.05649600701599004,-0.014455808973520109,-0.029512923218806563,0.038872627700534026,0.009234475918882224,-0.039378717829875995,-0.11351389301289573,-0.048496691127888895,-0.09548388410857726,0.011432970452474659,0.07999677833790445,0.17701171086959988,-0.017292791417396123,-0.061773912444134466,-0.0036875326794002516,0.04537021390865323,-0.008925497181639236,-0.02536647079147931,0.014206589105578229,0.09729443877824084,-0.1309546491603939,0.08600532437384811,-0.14532823966445205
40.83815002441406,1.2006988525390625,-0.004882612544820572,0.043314022340664296,-0.010526507772271055,0.0510911578324898,-0.010931124174146285,0.07474930337807802,-0.03125817189492575,-0.20450064729431455,0.1153708877363144,0.02737310762775063,-0.05182413253478299,0.051591765487539035,-0.10530421581089461,0.07387214958110712,-0.05769047310424345,0.022257726253077547,0.03595354530435007,-0.0758893228108235,0.40243596322454556,-0.2483893635649472,-0.19133802591775312,0.08814746426587042,-0.00958044761213997,-0.14254245272589497,0.07636497294613204,1.1505042347501466,0.20011813699939635,-0.1273465950478565,-0.4355492055975677,-0.7954439926140496,0.2022121030816197,-0.3164588212935565,-1.07415752664093,-0.20673814055731313,-0.914888118438436,0.3076239503555323,-0.516442430478087,-1.1728766001619273,-0.9258363350098542,-0.14334079030966126,0.46864130494427125,0.4041223209520539,1.1433624450518436,0.498202922674872,0.02805316732379773,-0.23921324876978878,-0.1363744095029079,0.5049093494098823,0.27406941789571215,-0.11143235093366972,0.41542802247730654,-0.22254994699997677,-0.16834122229957332,-0.05012075716707746,0.044735855296218624,-0.02465133823675758,0.0015158048230478165,-0.009247817646302258,-0.07223731704869764,-0.04113282680757958,0.039229917645035126,0.032540292659331206,-0.00156533067598877,0.06023517313029627,-0.0601147844120538,0.005115522012623946,-0.01542164609213387,-0.016540560860644895,-0.11254652009039319,0.004298585338363696,0.04970979563786486,0.01885885613183129,0.08330438822411201,0.03569205299809163,-0.030957205244395564,-0.09672667597919071,-0.019205326054351574,0.05252695915686502,0.025820726609995102,-0.012402974836465939,-0.00838317216324345,-0.018151398047404017,-0.07113657999741929,0.13637729757249012,0.08076930338065823,0.06282903763484979,-0.11316547191542221,0.060634117192002956,-0.039550401742981155,-0.03273228194938099,0.012850013239863931,-0.035954528780338196,0.0015429687225048312,-0.08434156078197476,0.06782788097801473,0.0694593251251407,-0.048515160145380154,-0.18757358700984786,0.12154805921137327,-0.05843966780513285
42.038848876953125,1.1808013916015625,-0.0716104480170638,0.06037571095478308,-0.009670117756929787,0.007312350676208568,0.023697434763249717,0.27623835399240043,-0.18277217730314996,0.7738439748134415,-0.26682885540555495,0.30751110954768723,-0.13311704133683286,0.13735345895913487,0.9151269103190693,1.1441791754050366,-0.8517722773454247,-0.9208025573018194,-0.1635000011774166,0.2811828009641357,0.5463385378871471,1.0861595657012622,0.4522887847208485,1.6286546307972505,-0.5444312953940192,-0.39957331579613886,-1.3762349222721195,-0.21992912846150728,-1.9438092775607017,-0.3192493111235599,-0.16571816065543243,-0.6728804449177934,0.7215631840677852,0.7277104016214329,-1.060878763729211,1.270777014332607,0.23448767148527416,-1.0981765883925647,-0.28229471614068674,0.21766332381491915,0.8233773421708173,0.055627099063604246,0.12650603118292872,-0.4993487885845957,0.4601635524059049,0.0849696169636141,-0.07256513522166627,-0.5066162429975775,0.013085721328690417,-0.29133506601340964,-0.30075260280924615,-0.08607533099250697,-0.005902349611686314,0.01620503467130287,-0.09986778695089814,-0.13071528143963906,0.03002344120428159,0.0018061550588025104,-0.029543182562438475,-0.049733058783373044,0.08572817014233267,0.01869276336059194,0.08237657960795042,0.004336931593128338,0.05993439619368849,-0.049646841834520505,-0.006471922080406645,-0.002017272292228254,0.012823393120241404,-0.030384555188315863,-0.0208499441075575,-0.10329407879795677,-0.08057439740164618,-0.04131547015610034,-0.03621697667911184,0.061836530922617435,0.10026110322191328,0.029903412670911827,-0.052343072554847894,0.0005301169338379867,0.05417425028065,0.042653277859856564,0.001859684065831646,0.010926967714294694,0.011887917132410653,-0.06233897399964431,0.1524835154785001,0.15894492074910813,-0.0730619930990837,0.0048516023040478945,-0.017431816920769415,0.0022240650653109484,0.2886388590671237,-0.0009609206171710778,-0.023081442154798966,0.05622381253433708,0.051483583513901025,-0.25390494035137057,0.013984587084514895,0.025285462008422396,0.2309716000980242,0.05574198292857489
43.21965026855469,1.2111015319824219,-0.09420850952972948,0.022152884640021568,-0.025350938910900664,0.010395410425940508,-0.12483728266960048,0.14815757417492714,0.15324840338512816,-1.6602442576638512,0.09193089422368562,0.06478578190280276,-0.02349745995119726,0.3912781403496277,-0.1099832360270183,0.007978869790419793,0.40846006558932985,-0.19003760061236522,-0.7096879699290687,-0.12765297067321474,0.16891731539599295,0.10748422227924498,0.2016009950997077,-0.28414771526419635,-0.15811159326086413,2.008301530990312,0.4134810630051069,-0.29606237172370786,0.2689051550104506,0.446065870983809,-0.45445341847736215,0.2757016846613071,0.7993434955501018,-0.6469318977821106,-0.8440492635209487,0.18678411898213293,1.5769836874908936,2.5167461709666896,-1.7367614492083319,3.3069604481362442,0.867957111534624,-0.5252220409295557,-0.5941503490218023,-2.7441322988446313,1.0311319716795362,0.36499435597991337,0.08212775547949246,-0.560752993904287,-0.3022661901674931,-0.03213279922231975,0.0757487012271251,0.0913113084315699,0.044823684229008176,-0.0014207438061244948,0.006267751361642086,-0.0182132369988053,0.09386365550986626,-0.07759457052562474,0.05743286665240839,0.02348091351178898,0.05346734380917072,-0.11127040665138418,-0.07328822711148457,0.019272431330012493,-0.023449618980151174,0.02110618166253704,-0.013082591591761984,-0.07355776401039273,0.01238828057463551,0.006510668082726702,0.06347221012514181,0.002371743052872732,0.062116564100931165,-0.022879049600614827,0.04508575947355631,-0.018233767727441293,-0.04389086936335842,0.06866088178108597,0.0369369648778997,0.0437272943888427,-0.0039377927683386365,0.039982131397725156,0.19625539514453358,0.012281677065606754,0.07281103452382273,-0.043835270609071754,0.06990622926941634,0.09395497344823822,-0.024273757343229792,-0.034501593092757146,0.011957297520710786,-0.048761322114346174,0.09723276398287593,-0.14003837451351608,-0.003266601832778772,0.04654888032790028,0.10230758211142635,0.019456091270046005,-0.11400592716290606,-0.0008504401990249225,-0.06674481655893638,-0.09779047834131191
44.43075180053711,1.2204971313476562,-0.09682047417293976,0.18093262871039498,0.0014150756758489766,-0.2328544850802367,0.00038792276521657345,0.1627774891831897,-0.0017375500991777745,-0.17821667866889657,-0.037333032497575476,0.056437551470967046,0.07117029837149857,0.11667445637437288,0.12157975219212347,-0.0004859579223084817,-0.08435279775377619,0.6415001572640155,0.08242389614292184,-0.2563157336231464,-0.1699913736971377,0.010248977416105198,-0.1729626976220496,-0.197089945362802,-0.14665584077284172,-1.2141762004624266,-0.43812420336376906,0.2114503950408473,0.20583344318796679,-1.115876951685519,0.2785828272879372,-0.10336281144112072,-1.120156518337513,-0.45633655283737734,-0.7627885706395003,0.1539328753192419,2.596018248824671,0.9175642305397648,0.11065008621114764,-0.9460346154371208,0.5349320202774503,-0.5468313402759091,-1.574994092443777,0.7311925728595216,1.903261276876726,0.6986045701428742,-0.2452944323722622,0.63825061954639,0.09720342632645872,-0.49520368172750256,-0.005149395946378296,-0.08326166994793502,0.007855283294127862,-0.043531877663248036,0.06249022650491412,-0.006533175107528967,0.04601207900089195,0.015886628921397614,-0.015020317695315965,0.02554230930231127,0.008209599784587955,0.11224078358949055,0.010014324177595426,0.0024310173033369477,-0.0356720394117076,-0.017680641327194158,0.019214471255226788,-0.008876046788624699,0.03269166886130038,0.03209938769656576,0.06661556993371708,0.024536542497675576,0.03735499672594403,0.006806236223330987,-0.08568928008029186,-0.0077315037387439,0.0754658738243151,-0.006931624720132434,-0.02610783035958101,-0.035100792577748036,0.08334555739534939,-0.052484866359811554,-0.03061403687388422,-0.1464681682702078,-0.14201676711901365,-0.24666326050287596,-0.0008378551530808243,0.10756924937829473,-0.010370247665559176,0.12114780071762062,0.04814988603449909,0.10434313342878998,0.082728342887874,0.055184572465858985,0.00345559124974143,-0.02366716479074252,0.07441542576587988,0.025168445358072118,0.02304029759391624,-0.043100149766198755,0.014381162147800067,-0.10694522059486536
45.651248931884766,1.2712020874023438,-0.11799589107205936,0.11695448264727244,-0.005252932690010849,-0.20414668908203587,0.30802161388552346,0.21779619609902726,-0.030632501570632943,-0.08750223978849443,0.3047658898352018,0.04603298372354365,0.16491901925722544,0.0993885511407027,-0.19575517704411627,0.21298434286424497,1.1879633574019823,-0.20426103999235223,-0.40089872332538545,-0.08455254281485382,0.11672025329401088,0.09470223553430338,-0.7756278205400615,-1.291526234050549,-0.2976676696262086,0.6296369642806652,-0.529488118150419,0.22564051523356277,-0.19650108501723307,-0.1319037725028119,-1.6039599077595588,0.2853104087001773,-0.27263814004872033,0.059612245421855836,-0.19090506370702215,-0.9714740836638472,0.6764580032201589,0.13795400510957678,-0.802963961775729,-0.460121958321455,-1.0867796746384326,0.13738060398489677,-1.0939199158445327,0.35260277276489127,0.4114726096310549,-0.4229954530601635,0.027410637405139566,-0.37752924202341875,0.2495043892639295,-0.21945071151470447,-0.3857608426073736,-0.09645310788236156,-0.051648210541481776,-0.10665746383312477,-0.04711090261711797,-0.0015165222820812897,0.032800020007437695,-0.01122082551323612,0.06962262259643735,-0.0032162338102833116,-0.029976892574877567,0.030983886319694676,-0.015264802529934075,-0.11989113277751677,0.013638577126696968,-0.014866076719572468,-0.06444606505864942,-0.018252286621144573,-0.011765245011502955,0.062422313393455324,-0.02995156383427007,-0.00464140440533543,0.034625264558119484,0.0015838386411747129,-0.054808896886120645,-0.07421602574233667,-0.018353338427218577,-0.03537257614223744,0.028336436154933652,-0.019795928670050193,0.009317744102876474,0.08478778077460403,0.12089620546839615,-0.00360516381216764,-0.09556423522004551,0.06371672625276355,0.01349492386289698,-0.028226095593043454,-0.06208810158406844,0.00996960029794871,-0.025115431184950958,-0.06630759279197065,0.0322156803694736,0.0108982232283604,-0.022979418047249987,-0.006091547196256529,-0.011315095872198712,0.04602004506848896,-0.028532345350264932,-0.00045136348129212744,-0.05120366449541033,-0.10497080978614204
46.92245101928711,1.3406982421875,0.03817095245298385,-0.04544207602865681,-0.027474022261216192,0.20625472215917043,-0.056207217703557286,-0.22276645427520225,-0.02273966673093924,-0.016394645851444567,-0.11886143101290769,0.19108198537987903,-0.18040051018281375,-0.1099005548009135,0.006548205132630602,0.32264713045725557,1.990723596399654,0.7205625193668259,-0.09804664383343045,0.0315322026295203,0.6702894385602979,-0.7227303062189789,0.01868729152784912,1.3509270094263026,-0.29134274601006516,-0.9164910878032169,-0.2437791358136685,0.4722907306244728,-0.15712106787205968,-0.04351034344579964,-0.4899701349481286,0.32931190565282353,0.5641037167944787,-0.026447258990178996,-0.7208674108080478,-0.46201329037781474,-0.15810962870091616,0.13764722821912712,0.5258468551022909,-0.7940233926981941,0.710806606754155,0.3420606669879085,-0.7704727732587916,-0.3335123068744546,3.2707916571805216,0.6822034550912109,0.09575391903758088,0.5298738979084452,0.09750580061464184,-0.015330716785504628,-0.024581220070936494,-0.6171039746833864,0.06501772262461586,-0.11383254236693992,-0.022236069654900843,0.17067260089511999,0.005348931743825058,-0.05932233125901297,0.01503581285054725,-0.05268176365542109,-0.030428641918922764,0.14044868030655133,-0.07651814281663431,-0.05298011733913435,-0.08108130547252734,0.030332164464921665,-0.01612118880339577,0.11212480588620564,0.045631703912707815,-0.0016608419106231985,0.027583884381582505,-0.030648992378634828,0.02242626223402741,-0.016065619811587387,-0.030795328790957654,-0.08517842555147974,-0.017364438915664554,-0.048975815295283186,0.0503966343336011,-0.014919832457644376,0.02954221585348826,-0.004414856106752156,0.01638576311157988,-0.005783332868953475,0.029997595096758867,0.28417659858916094,-0.08127657328477092,-0.0072988244411646,0.08978925660054807,-0.030382436692216075,0.0619832815221681,0.0002372896545745299,0.053739225899709524,-0.047758340081863034,-0.04188297686842731,-0.025055525930144484,-0.049099404425338174,-0.012904666567174594,-0.04058492257929574,-0.04697277081056154,-0.16822878944030012,0.0398019852476026
48.26314926147461,1.3208999633789062,-0.09853648737979197,0.0480122682812347,0.009398394757839938,-0.005403757509263627,-0.02920545836913773,0.08562062891381067,0.06396713675850142,-0.011533528251375231,0.027227147320091672,-0.058098982825601435,0.060359597694304205,-0.025262740972643558,0.04605793089322529,-0.033802729286841665,-0.0935002168458092,0.2879218300528761,0.007780309625767479,-0.011249445570699873,0.6657566994616236,0.29234748957961876,-0.5247966379248186,-0.08396199267879115,-0.04371358763238696,0.005073724139986181,-0.06672180286885258,0.4872328356947303,-1.7813462835036593,-0.4197458114780017,-0.3537903281134763,0.3713800082395283,0.4076430387318246,0.2812595637823002,-0.2806867385032261,-0.7484952535600666,-0.7654095640311525,-0.317613626180184,0.17618651294635757,-0.7575620841494504,0.5213553714310665,-1.0226294986943587,-1.1438935993786232,0.34115564396006437,-0.3657906421648169,-0.6636254150404218,-0.2811940128962853,-0.13618106051144857,-0.4340331364609458,-0.45761383685023116,-0.36322839464481754,-1.3441544594730856,0.2990882573913981,-0.29124317989718995,-0.18770727316939817,0.04660767228228418,-0.012784826558851967,0.05002003072729416,0.005561396846655231,-0.06329092372441533,-0.03732152675296639,-0.11362863073793754,-0.09666727384905188,0.059565427006689944,0.06221753636666728,-0.0046836407765305085,-0.014882115533819854,0.024145793857099425,0.03840462997608385,-0.01776309304428742,-0.0005582057564139167,0.01396968579463482,0.04531959623219145,-0.11979474753862243,-0.07323085814915768,0.022281472435802883,-0.05572723314248086,0.008332413087094814,0.03052068002254076,-0.03075083291545717,-0.0062468799611798504,0.048909926743730806,0.002139837594968294,0.008504188840067706,-0.13837629908767107,-0.1154467848513587,-0.1365451543987575,-0.04560616438747741,-0.007950575227391263,0.04667755590633535,-0.03528046127839803,0.06890224542763307,0.09395384543591728,0.04317441418124731,-0.03230245354583929,0.04520735339878782,-0.06193340350772688,0.025772130105932205,-0.09538152616388,0.1005671459063663,-0.01924553145676544,0.024695157148733063
49.584049224853516,1.2909011840820312,0.021244545412060972,-0.10724555867390159,0.49786249115215475,0.30158001733089485,-0.02963022611948602,-0.07405613595976165,0.11250213022947607,0.08221264051029423,0.12412482465726818,-0.08921638259658932,0.09740251362177382,0.041548711401428136,0.1119328804562738,0.028651118584655844,-0.00738780751072482,-0.042440123822012385,-0.04490863293590409,-0.23345105846878939,-0.2684201611808255,-0.09827585199733546,0.05022195594638964,-0.029448210936604324,-0.0249278462613863,0.33018599616510774,0.12388251372954148,0.08812414769471982,0.06823583963514288,0.09039501384616558,0.2748842966823142,-0.137106478267813,-0.017904304883836375,0.0899075786817945,0.2570193949935651,0.0573400581776668,-0.5679390227549903,-0.3089780449313324,-0.33069833889430883,0.6516094565275362,-1.516716535334176,0.5517132622678278,-1.2153777781759896,0.534501373857547,0.13304827029553162,1.9092762252920807,-0.7092888513586149,0.4593511626957651,-0.5049501295281746,-0.3154201375120133,0.6576754271550567,0.7254176410145232,-0.0423489112487955,0.0721277625741241,0.2692950152663919,0.2841348119351742,-0.022719957320762908,-0.11816204545657003,0.08098426385364964,0.035716519487389686,-0.016929553568568304,-0.023994274208892327,-0.024696206222131888,0.1582893180799898,-0.0053636883868968255,-0.05707338786116852,-0.03097443022730339,-0.1145036787192793,0.001853683067647066,0.009069859310691332,0.05181237465232312,-0.010058199813319575,-0.13290108111505944,0.06840434277891257,0.006955111856423009,0.04725420079851309,0.003213975082451381,0.06120752933516177,-0.036401652144781395,-0.1279566326628939,0.0339112335854892,-0.026903934332459696,-0.08203743586181594,-0.03837093619036004,-0.05016268587940108,-0.05563970125276403,-0.0452208315616889,-0.1635460350583002,0.12156765667974215,0.007404780297942025,0.06320532527897058,-0.0024128492449340105,-0.00654475295873463,0.015964259762471355,0.004773955846494473,-0.03882692367332269,0.09870197374819933,0.025737150096613218,-0.049189645419704886,0.060297782039713255,-0.06680606409545568,0.06843083107392718
50.87495040893555,1.3208999633789062,0.07292635947988492,-0.005171216959234847,0.12179962305493555,-0.0034203650649696094,0.2542570771531399,-0.1850362459853456,-0.17127339123951785,-0.014673609358663105,-0.028960624613637978,-0.10582686659179766,-0.03688435226114173,0.019461562615404864,-0.1669588978613024,-0.03247954368487341,0.02576116292713524,-0.11091717843277941,-0.19808797292935396,-0.10653018186049683,0.025289209522104412,0.024756352487482557,0.06860268424446345,-0.21967176886249432,0.21521123169971956,0.3191141544145556,-0.6230170711862331,-0.11223257614579363,-0.38980177143144323,0.6105721902019413,-0.11473742949062872,1.150473260493647,0.3777540156471276,-0.5284769534413721,-0.14622474063966293,-1.052600683810571,-0.3112590985026495,-0.10227340053366563,0.4109948515383482,0.6763855983200068,0.33886807323785545,1.160305428530806,1.423569634521406,-0.3841857518647539,-0.13934117523684666,0.0073663008509601835,-0.5360413021954888,0.09903306733979825,-0.3714218527632584,0.5335350482835617,-0.2371162974264779,-0.42380497379669363,0.07082855020745413,-0.0748357769770706,0.1020627285822629,-0.2376642221212818,-0.07135185423746404,-0.2386086315081674,0.0039733608496027445,-0.023497368150109034,-0.019448380405206453,0.03910906249220393,0.06489013510866105,0.10238133104214044,0.005072496296074466,-0.016787326883732676,-0.06750139283139088,-0.005258218234190964,-0.03180802500039863,-0.07768542543973894,-0.0749249075620724,0.017232577099464394,0.04539257511944707,0.05431095736019333,-0.03044275656132362,0.044350442342505896,-0.004951023531264701,0.04921707974061754,0.08472955938913956,0.06451281557161988,-0.03223745308969492,0.007204425229607835,0.0681395909104885,0.10128742577425487,0.09434012972615279,0.1225007893667538,-0.026759987246453204,0.0052811938872068375,-0.03850457787905552,0.05257845430620003,0.08043802477948886,0.08857830534334737,0.02025978288777564,0.16103854603881418,-0.04280430960343752,-0.01947278719158127,0.04213024134939465,0.05906456330433672,0.010433000317034005,-0.06918404414890152,-0.1652474385833116,-0.19477206312256617
52.19585037231445,1.2808990478515625,-0.18999802565690102,-0.06320215694136093,-0.16080400759404959,-0.08553147770020836,0.042931144481744066,0.14911452927600477,0.03755293857901075,-0.015108156999402204,0.061254109432767496,0.08669307519147854,-0.02408115253606293,0.07394663040742233,0.00020651838721804825,-0.05364006668690711,0.04880347523718033,0.005227460055106145,0.05510949696414691,-0.1409872621272174,-0.3443092106814798,-0.008894672731095751,0.21571615141580494,0.4368869155464041,0.533704904290897,-0.4223097730666421,-0.1635960201914742,-0.816104188825717,0.205606500700642,-0.25828831616661685,-0.0480471420564913,-0.01526387805033769,-0.5138377567970182,0.7122316837773367,0.6928673032999856,-0.03955497158272164,-0.9381300624428195,-0.5002238358782886,1.1045939035163668,0.07574944881224677,0.6787731278735869,-0.2132989645026116,-0.26473871450504816,-0.025923519233978537,0.5298672689506211,0.6580839124891621,0.17783320161992996,-0.6867414198649461,0.28792840217040677,0.28620766856177193,0.3472754073993456,0.07725455463442649,-0.14905044920152855,0.10429054573534724,0.07216780170640687,0.3650175236939074,-0.1978958257733618,0.01048523720020617,-0.03192099982227059,0.0463689385833226,-0.0026557058330687663,-0.0913227206263225,0.0025261929591355505,-0.04975061015089789,0.060381189260561755,-0.07343326751317124,-0.08441018411895107,-0.03635887089104116,0.06527464832589425,-0.06027246238072985,-0.014953072113891627,-0.07380567522598887,-0.022120617518983813,0.04125296374684299,-0.0025117622580186076,-0.11390027092961665,0.07512124545348,0.005087975769017122,-0.054461123642689846,-0.03615357073364057,0.049733500458899474,0.0319612162131162,-0.04897458789665234,0.05772259958991634,-0.02995694028426643,-0.11178587734889792,-0.000796608471337547,0.1443584178449383,0.043107216294406364,-0.014986329482384968,0.015226979820434304,-0.024479368219166464,0.04834001170875578,0.012176546239170421,0.10471508689301409,-0.09391595859135969,0.009946971018654941,-0.0620653719751076,-0.07702479508078289,0.08950670122863832,-0.07841848666674159,-0.12365404379412945
53.476749420166016,1.2504997253417969,0.024799384419874282,0.02232091931549293,-0.0006017209175584751,-0.09497178365257197,-0.08795626195149273,0.06721891884686076,-0.32038364007511105,-0.06288101869287743,0.0002541058552016501,-0.12099852640030959,-0.004411918752765368,0.025428210459641446,0.17825794293293973,0.0029120594137337225,-0.2799686091182334,0.11114984006110253,0.25104314640570935,0.06647877144811666,0.11759403212345147,0.31332529749736804,0.03721481619257266,-0.14866483879586087,-0.02093579933688912,0.0007625607517069699,0.3198225140921816,-0.2605363233889096,0.08201796882928962,-0.03390778795155726,-0.5014891645398742,-0.5249169744109867,0.17006383591034901,-0.01534174897895776,-0.13837351288160876,-0.23140535916629518,-0.29424727240645643,0.4201855205864887,-0.4150398912888079,-0.02967689992011547,-0.12033319029312076,0.47807489266185194,0.13671611778452536,-0.13591181305090047,0.36123292535613044,-0.3982959584719325,0.24907279452264228,-0.05017316802108915,0.1153402862250097,0.008614757850076482,0.44707188767598277,-0.006820665021574357,-0.2132023880723905,0.00708899957735443,-0.046674125379870625,0.018853347250023016,-0.00037535589944195273,0.06854701328867203,0.03389047207706391,0.03320008192990006,0.06713514257176688,0.0165492905068717,-0.015981183531652617,0.006004412843324702,0.02031032225434011,0.02161533452897256,-0.11433517047031011,-0.044502830747810015,-0.057423830644577845,-0.09156012658402266,0.05331951910191071,0.04082309246272212,0.1269816086944543,0.018575180878593736,0.028316771250805593,0.18927193913409707,0.011491433077855679,0.0537779670640706,0.036374626451199175,-0.05597242544830399,0.007924533278954614,0.1114893310447462,-0.023062170776220317,0.015035647011686075,-0.05819384936105372,-0.10137897417391366,0.018277932069697925,0.06008654316504722,0.016842162713476116,0.08777524762491988,0.02217889457233086,-0.07504726009063742,0.06552632376854367,0.006127325685309104,-0.04255921966366582,-0.16106240608894834,-0.10412611216119208,0.06476153020753195,0.02304241033825202,0.07592947417956657,-0.06270132118966597,0.013069181371625417
58.56005096435547,1.2706985473632812,0.17876929191473012,-0.05278434525412864,0.026213194353437663,0.030840970263098007,-0.06165740966074146,-0.06254839945869448,-0.25500864183941285,-0.05166438342150909,-0.04541195667661631,-0.03272959061922791,-0.05753688256821975,-0.053341379886022965,0.1679853349252279,0.031995556144956736,0.023126840603771646,0.027984603120734388,0.046270885313035866,-0.12425358735811921,0.06543941769212439,0.09199163481571505,0.01613015003741132,-0.08256539956528298,0.11711034657654941,0.041615846009532734,0.06343250794591718,0.5942483967312455,0.8036548163295392,-0.13287260698629283,-0.20078643409374783,-0.2614943932217548,-1.049614055589277,-0.9643187447842642,-0.32158129108545247,-0.8414593095373352,-0.17068162645924123,-0.3068883060294581,0.04140593500989731,0.20956121883778175,0.3103296692118621,1.3557236243650603,0.4545829728515165,-2.4258900675792825,0.06723634221719452,-1.651235633996543,-0.42551722198342234,0.14498451716531985,0.23482298502252008,0.040134256703320145,0.8158787870605765,-0.26564663729943666,-0.36808875217198345,-0.5158091945680134,0.012733466555067924,-0.011122996720642072,0.007369059170490176,-0.053100345947467126,-0.003931335027311675,0.020851804471807275,-0.14199351212526615,-0.04914683855782333,0.059350413447753145,0.0016685886893029744,-0.024930799043795002,0.01780515014686938,-0.005439983282250923,-0.10459390483208497,-0.012991305387570857,0.014419511801956423,-0.03480956887136194,-0.02534004290930676,-0.02944522525617806,0.013436196297610267,-0.01719422313680965,-0.07284837307627884,-0.025974763438677013,0.0043332319597411285,-0.08190163588490025,-0.00036085892134206875,0.08254101763125546,0.019548543860256874,0.062424596095255115,0.03883000773857296,-0.27476936677675395,-0.20606565894723008,0.2081026711656733,0.07062755882187098,-0.006769151730667531,-0.2927068338891441,-0.044329234611595096,0.06193506360598755,0.0549000234177684,0.0454702566654668,-0.0009771815965148164,0.02688608992667213,0.14568980121345854,0.010884471276498203,0.04981805856960958,-0.04660143062651398,-0.040251050163555006,-0.15792002586648554
59.83074951171875,1.2602996826171875,-0.30296134773535677,-0.01256562234496724,-0.06574235544316713,0.05196823159207892,-0.035619190493557315,-0.02626290464576886,0.1466474040472015,0.08380698607562209,0.12075724592422439,-0.14030700391269563,-0.02801762342170891,-0.04596582416983376,-0.6473807144207054,0.1348994882936541,0.1408093480887439,-0.29579344928037365,-0.17577166694858032,0.1617507869536654,0.06925653225098376,-0.5340628658219863,-0.011025382313219766,0.10036230210743136,0.1678504504235045,-0.3492416314677258,-0.0978875323508007,0.062325718745416314,0.752196924684162,-0.2861654417465378,0.49802594950308343,0.9539454368149324,-0.26120323097073883,0.5159691106126459,-0.35738695046187974,-0.7473234820548582,-0.8168656233860605,-0.36289408974186466,0.5778677664880061,-0.39820979525382505,0.2782251823532607,-0.07087902772046836,-0.8099965502177766,-0.43472850128150137,0.033874410888102856,-0.19919504440182723,-0.9885828826406845,-0.25063851496529155,-0.06162963251730921,0.02980974154044308,-0.5376552619324788,-0.03202940577250962,0.023736994166899596,0.04104395140497352,-0.036156507860975455,-0.21325676743251656,0.08307088077696319,0.08192287850908946,0.062295436945015756,0.05169667520053791,-0.04813763834451478,0.038087537160622256,0.07669458213829317,-0.03161956061061346,-0.0558724592567038,-0.09283812555909055,0.003907260580067688,0.019496099294653478,-0.06863984404123451,-0.04101657262680844,-0.021435124608149135,-0.04124672700642373,-0.14920099459108646,-0.029623916876128854,0.07836224525689794,0.08604887966726735,-0.07230074028491516,-0.03520973672332217,-0.1319701967102075,-0.03337576569063751,-0.020221411470687095,-0.1183075426014929,0.01276296266792289,-0.06134808089783759,-0.03350741474208246,-0.11792688503935495,-0.08795732780249232,-0.10506207115804368,-0.050876323362934184,0.06746816476507372,0.04297276162963617,0.05691668588623114,-0.022456950978917055,0.0042231988462507,0.04061174793193109,0.05123575117014122,-0.08134561151253966,-0.02299178043774539,0.02997557914551431,-0.04345451896529563,-0.006956708819894261,0.1562704687877735
61.09104919433594,1.2509994506835938,0.15673102454910898,0.2571417315933791,-0.005149342845789676,-0.026623217971817062,0.05640312687939616,-0.08950580234968855,0.04617721860723104,-0.057976085285529014,-0.043021204312301074,0.00012940507663453593,-0.032882888238130126,0.03170221658297621,-0.056689353467158865,0.07123324627766855,0.06390127087729892,0.09330379794057878,0.06017726910675843,-0.010563855051745943,-0.04934149132788756,0.004806266043142535,0.054142218869479924,0.043210569556991506,0.09137857904145802,0.07713707761072208,-0.04182918882281772,-0.14824506580089236,0.15260618168041748,0.4106987259635495,-0.34353093442027544,0.01122321681826369,-0.2559753788409491,-0.13613988442563577,0.06685860830455803,0.30962578911141025,1.4562214094232449,-0.5832128148676324,0.44652937776966317,0.15092773819601277,1.263618773696724,1.0465472888592746,0.39209304508305376,0.163816624769495,-0.5974092431323696,-0.3182769803655222,0.6206025811320341,-1.518231156858293,-0.5394137735744172,-0.17953169937698918,0.525761358152188,0.14931739549382303,0.018255774379338452,-0.13349203522353748,-0.02586684539395011,0.07307363887514273,0.005373225345695822,-0.017067052987790095,-0.03491038842699083,0.013978229112404922,-0.02847373540703137,-0.0710851472277198,0.04705366978490142,0.06923673658856892,0.011724526115432746,0.027983546149523694,0.01542120957863662,-0.005756253966295329,-0.026826089827309368,0.012540128572217167,-0.03240020492729577,-0.09807319268939368,-0.020276453487942655,-0.019758929838315592,-0.022869267925372125,-0.034756799539605754,0.00033399043590663993,0.0021279079294622394,0.009877085480311843,0.06255554834893073,0.06905652426462609,0.06592106160419874,0.01770798105163736,-0.009107208006476755,0.018191417201139724,0.014189203881279741,0.05177310296974465,-0.09879123268826016,-0.005799469637244737,-0.049897874287284455,-0.08746272781924881,0.0939338028275745,-0.03665856587971619,-0.04160223142606856,0.07496943478243914,-0.009556041646076218,0.0471386070444146,0.0255899823877568,0.05734110491024336,0.04937527012541899,0.08231256292908794,0.31928905055491397
62.34204864501953,1.2511024475097656,0.31305758196773964,-0.11070134373721122,-0.0513799306673481,-0.1291008256290385,-0.06477922726919493,-0.15889100054652427,-0.08361853642450337,0.16869238548008056,-0.07302056804261427,-0.013011131744327938,-0.011404367791424607,0.05276209760017868,0.0007348507087660918,-0.0720301838096354,-0.14449124788226414,-0.1653217691212349,0.10268682854969385,-0.05724893142466249,-0.008615541143140046,-0.1884670515806833,-0.2865786391908506,-0.09672970871534066,0.09317900713076707,-0.07126995273870396,0.0408415744524132,-0.04094631212796433,-0.2553162323294216,0.8541347326293256,-0.24523748712224946,-0.18794447023778127,0.018028633992568155,-0.4462589181030861,-0.019737296768916862,-0.13232768113839702,-0.37096671678712867,-0.11133102934596109,-0.008762981469262396,-1.0015608090491317,-1.5507991030127166,-1.2001778027722734,0.12169158805057584,0.6414049377820834,-0.4236839332585831,-0.27019456457467667,0.12413084921326636,-0.12034517321179192,-0.016978229968381275,-0.567922726086546,-0.4208386557613352,-0.05335422812944348,0.08458261896996945,0.21086325283969115,-0.15067446762156536,0.02390443222602779,-0.03034351526597412,0.38214474063995857,0.02708125030662523,0.06785806081919658,-0.08445017573999003,-0.09704700112139435,-0.03529838356720783,-0.047759251859105234,0.1173382678874977,0.04157559818661499,-0.06372028843108432,-0.03109340569541262,-0.01937046059121747,-0.006321866358140184,0.021243750394783045,-0.09226134626980197,0.07339845146423984,-0.14199414474663377,0.07991709261279335,-0.15726883149533938,-0.03684040599637257,0.05530167636059667,0.02864438140749899,-0.05577789241169977,0.03090458971052175,-0.024989132886144415,0.0005834281624721993,0.02310255797908228,0.09510192564855141,0.047028473194064335,0.028051366953173854,-0.03424665012299316,-0.0680595053665676,0.04434831117224062,-0.06707890585677877,0.06760656900852399,0.01839454403786831,0.003120961177821934,-0.014941437781252705,0.029340751121080352,-0.0242174018579004,-0.03524828377794269,-0.01522056827000316,-0.11656422688745807,-0.07312410040265438,0.22672701467646855
63.5931510925293,1.2507972717285156,0.22402100174445896,-0.10529632318421006,-0.020450258543366705,0.02507548580920363,-0.21424379426715878,0.1053680278325924,-0.10328944471359616,-0.016297676643708174,-0.08144892591841424,0.13268268637722583,0.17377893375798853,-0.06780716356109445,-0.11860833443840763,0.0785420998872923,0.0021379132456382276,0.02455703777420169,-0.03165691678041586,0.5503745850514346,0.020268908585250593,-0.4950915796846577,0.10446227831340463,-0.1773986441868771,-0.19336626559807177,0.12680780650097834,-0.4788673998519123,-0.060036153440872306,-0.2827711387292915,0.07494340820745568,-0.14944751251493726,0.17129507868583652,-0.16097788073295605,0.39482014957088996,0.3495885832380944,0.06895107911142481,0.07754126071024466,-0.30258222990199585,0.3558431412336547,0.2815803073170803,-0.044085338886548094,0.44330432937286424,1.4874791998010242,-0.0008177661041884766,-0.36992315302755924,0.2841382893645144,-0.9092939085763176,-1.0733395954018936,0.31916212620540885,0.31716769860315475,0.20107104339838303,0.14949538809758914,-0.189972938406332,-0.13812289065703567,-0.08481072649265443,-0.22017552325679707,0.058225557144115404,-0.028007568378906174,0.06269673648467426,-0.03524902072759289,0.025787813794830153,-0.10719038996808038,-0.10259814626798998,-0.028201556000691474,0.07992567782894514,0.04222231532699146,0.08810088464281236,-0.012074254248935027,0.0339229051194925,0.08444145170867666,0.010052300779452891,-0.028250812728032693,0.053432493524065,0.08284679339437628,0.04048536724555085,0.024240880739238413,-0.11466574369361976,-0.0661911133316115,-0.046135361610130876,-0.09036129228160186,-0.006900683971963445,-0.06743662600622978,-0.017777920786730066,0.11399370361542005,0.029110323752818763,-0.01899622586637469,0.18992996266058332,-0.03384022241697765,-0.16933307847138068,0.05449378508833056,0.0026742600935031474,0.024822347032129873,-0.054961898584637375,-0.0707701032741685,-0.07723698531817398,-0.07867895805391932,-0.02907304254555967,-0.034618304002040204,-0.05231712869321902,0.07260023633741106,-0.006756715679579986,-0.0752471716095117
64.84394836425781,1.2509002685546875,0.07405728148359433,-0.045300595105917385,-0.08674637536013499,-0.12327694159598213,-0.10034324667825961,0.003743874990951246,-0.14694138376666516,0.04012798818522501,-0.08982640268011557,-0.014300311142950509,-0.015864064039345652,-0.14928657800337253,-0.003936317598367642,0.015211319957984578,-0.03496357335115631,0.009276566237431099,-0.005465689758752849,-0.022768150061478934,-0.06200762529948187,0.011335836426148438,-0.08182143890801605,-0.32128152914789876,0.3052216347971969,-0.2538039471478368,0.03478226936830983,-0.3435148195944706,0.1449808763656015,-0.06013106252418772,-0.2203648448620767,-0.31638147919373616,0.5228132705839039,0.35672898458592256,0.1425734891765029,0.4499095713916799,-0.2949049264167458,-0.21560644257204012,0.22776337195266272,-0.7004597373972814,0.07715289214863101,-0.5252472467290868,-0.4257946002224089,-0.5567061866283136,-0.3955063446603153,0.09184862912596266,0.9075789374234923,-1.5734979314215785,0.867897156199088,-0.10126532139860528,-0.31109741817760883,-0.27464092055452316,-0.4948388912342923,-0.29222014335767266,0.12164514317423175,0.08649225195463557,-0.18094882277596183,-0.19212584214946482,-0.011748238705684855,0.010381607571735535,-0.03726268604096413,0.006213950320219726,0.17639510678027323,-0.02024372278185401,0.07962099108062322,0.09112124427694081,-0.05212364254848695,0.08028005103159017,-0.030039390324280175,-0.0983529214212095,-0.015296742198977972,-0.029975792435170623,-0.031178696922165388,0.028697963936769072,-0.08071051004007121,0.005538826768126689,-0.14748707729008018,-0.13850933359051773,0.03637663467281898,0.1411233075233932,0.03441352582445004,-0.02529941662517234,0.03361326277410158,-0.0009267626718097768,-0.08600237217516077,0.015172713978809182,0.1312748082232973,-0.04068365313623011,0.04435971214317109,0.010191786389126156,0.05554844810376361,0.007764581474296603,-0.011247048371092644,-0.04868629477567985,-0.05732179381492321,-0.0823638865927741,0.1593382011804021,-0.08169732727210002,0.10278930284847286,-0.05917786183912052,0.03570975505557676,-0.028308391787287723
70.02725219726562,1.2609939575195312,-0.1941784913662769,-0.020356995420605893,-0.11482969376682156,0.0208200904812994,-0.03396447891298895,-0.0012402725285449627,0.17917151549262667,0.21671700370854124,0.1456529062896448,-0.046128366633410425,0.10212021150751253,-0.07100096204388315,-0.00437435099802619,0.02843587133589606,0.13355897780546427,-0.0431693324084626,-0.15826674961753645,-0.15689388538219512,-0.21753821639617574,0.1623677314642632,0.06583825282893635,-1.543300608869723,-0.23072388960363838,-0.043541438563796116,0.5331816507942118,-0.059279991012246125,0.2837512098400362,-0.524064128244305,-0.3726248978763074,0.3598894978112386,-0.23864506617299527,-0.01559648416482383,-0.3079404908962091,0.3283944847245734,-0.9125999816404264,-0.5341243332866926,-0.08234140320766908,0.18794518487981005,-0.6628367885830901,0.5188093440642726,0.3408228375742454,-0.3053088916365624,-1.712326124060004,1.7099101578855838,-0.03178710266433213,-0.16572451551007034,-0.5007752064669911,-0.38310120514626067,-0.16486301566452996,0.310695691082614,-0.06496695840177617,-0.22840455652076547,0.059421741307651856,0.06187001228888114,-0.015940639548157165,-0.0008710420436117555,0.09353884121304529,0.010902300171037401,-0.05754069993818401,0.022084647630766424,-0.13743776405600963,-0.031692541152297984,-0.03350830773412209,0.037668475559414445,-0.012366849796522465,0.07474803793508063,-0.04605392747930595,0.010948168438851243,-0.020020506903075778,0.04623361910032259,0.14967809522470893,-0.05308631904949607,-0.017429674089182053,0.07058730034633083,-0.11054312243253483,-0.004848191283290993,0.07150622867075668,0.03123166127621934,0.03548868647413858,0.06491775079135463,0.06840766114485815,-0.15417390293147482,-0.0785642701854041,-0.15520013398050633,0.0214370559568806,0.022768307014670103,-0.0883807538172196,-0.04769560785401735,-0.04720418017276312,0.011703524523435989,0.0005602017290805093,0.041556451021081534,-0.06107252196254993,0.1399380606513522,-0.09944284799724014,0.03160126282230099,0.01512813486477679,0.002422026342866576,-0.013315842654353493,-0.08701575130400366
71.28824615478516,1.2403030395507812,-0.22813274365017253,-0.03413965399148304,0.15945448782828947,-0.0005952842585034007,-0.06921948947523276,-0.0494808438512806,-0.252651340223259,0.1631831593076022,-0.07900955412861962,0.11853568853033124,0.2155535767810187,0.10701924041959103,-0.519339140567324,0.2195751167775812,0.04062114431105241,0.6399014295629062,0.013858906275511479,-0.37282113470035255,-0.044407256448990656,-0.24984286667077804,-0.38953936324700766,0.0931819524979608,-0.14563477373459496,0.00716759786233829,-0.04971611928587885,0.5055194491287486,0.17471573137543875,-0.08429359506652541,-0.05024557065170375,-0.0025791520053192593,-0.6086184460668514,-0.40596819918651345,-0.10103053506333637,0.19367036406616872,0.16591778020803652,0.2685709988340349,-0.23403673307339465,-0.7586600558359621,0.4490330732920131,-0.6559830780099069,0.6655039088430913,0.5806580124077249,1.0158737666861848,0.03951327050128034,-1.2119828316239976,0.048818786935053565,-0.041313250139072055,-0.06880990312294087,-0.10002117193512527,-0.09411686872460827,0.018621901374543587,0.046121400661362444,0.06593025574737962,0.05180278814698159,0.4974615079733713,-0.5092214512001951,-0.06185122584609154,0.041849792298297064,-0.01121669501206178,0.07329670299134511,0.1006353754163513,-0.04275041031765541,0.10211617321252327,0.055090460702499615,0.09500215292414514,-0.0422687559234453,-0.08320897445305483,0.04076431164102469,0.045327526413114286,-0.01978088448278338,0.012699962473098006,-0.0761357517181003,-0.09046592335124638,0.04018915307158559,-0.057300509806242995,0.007111476279426937,0.05156354805299619,0.06846706446317563,-0.01217412094978837,-0.05514879707123452,0.054477559226159045,0.017268725505557636,0.026401417767125825,-0.05787902761174175,0.06500696497344859,-0.1248693261517442,-0.07059242911146865,0.04212257012031216,-0.06999096183658104,-0.019272470036304046,-0.05800551959237221,0.006564157609553589,-0.031033044990728176,-0.031631989504738695,-0.055471628487843566,0.1131231650457105,0.07919519565810869,-0.13571259241979272,0.0531771008278479,0.018309759412312582
72.52854919433594,1.2313995361328125,0.015894908202090954,-0.0015949133233003584,-0.25625952239270655,-0.10177802844729583,0.1714870609345558,-0.050499425114162146,-0.18666446295916786,0.05946956154691447,0.0904167460758023,0.09084020096509206,0.05782282167803893,-0.18303328252411258,0.0012527011075322975,0.27903465206561395,0.13548586160830467,0.123880090183487,-0.4388016770712133,0.7489004370750331,-0.1808461002174025,0.22461164272903078,-0.056164804382548554,0.678246638853395,0.957317674579325,0.07086698688888599,0.4659051041950151,-0.6965884420011962,0.07253161188701099,-0.2195137255411826,-0.1052033166494419,-0.8280969328603802,0.5100771549819829,0.1899612204341098,1.2108195879953056,1.26437243689192,0.6951850189995334,-0.400238113045389,-0.8375816750337532,1.8226282406147867,1.0047739370499509,-0.352572418360378,-0.13886016874300325,0.4336986986451217,0.011017420284920476,0.6096292646120721,-0.6408993957053575,-0.4397942059370164,-0.20102273018272465,-0.19738950070940142,-0.5377587429250124,-0.2391808960396298,0.07898012522951352,-0.19446290621534165,0.08200454295777836,-0.02203734142284336,-0.06914211829455397,-0.08612736708764598,0.0055284489725383875,-0.019597381023976977,-0.11286508174140768,0.07353559469939393,-0.02747591424253773,-0.1355983251773535,-0.012840671144569465,0.03212270774399153,0.05495476241917629,-0.11679549735063048,-0.02663005318651693,0.029183957581380968,0.0790380249532703,-0.010684308252276932,-0.09527846712769092,-0.09540810823240264,-0.11118228326563742,0.051798708710997204,-0.021091652319771614,0.09105744874854461,-0.04934965748084083,0.08416332096825291,0.10667164533286477,0.01849684199391069,-0.04610836719785971,-0.02943307990321682,-0.036370825402446794,-0.12936596309990198,-0.00044869045052389755,0.020769086674214416,0.006355690973925021,0.028026134737108185,-0.06834851889991445,0.03163626058427858,0.03423460647194693,-0.03295518409575929,-0.07015621214209797,-0.048775067423584575,0.031944058736918184,-0.027495324419948664,0.06426363455702387,-0.0647440326515331,-0.1198807465806516,-0.06927133357974297
73.75994873046875,1.2301025390625,-0.07096656930994286,0.004023473417992612,0.09658196620738618,0.1461275164022946,-0.09329249202011652,0.070802511193201,-0.02419065385578875,0.08992371256375892,0.07066221201360623,-0.08535268614834171,-0.06493833870814784,-0.13054282268924952,0.04347404543309108,0.06547962140935766,-0.0613469636957069,0.06425643443555895,0.6700587444195829,0.1769969845863193,-0.17215359065457667,-0.4150391658832602,-0.2606117683473565,-0.05363938835094048,0.6383059905398916,-0.20215027216668063,-0.7293707308459154,-0.12930002693850956,-0.5163810325214803,-0.04512435411988565,-0.1424497594993981,-0.8842463909725244,0.2817622129804807,-0.6151586955423936,0.6624027051829444,-0.4380471874693072,-0.2257770431820338,0.49962030927354306,0.29180648140832544,-0.15039975346946693,-0.2350135965624419,-0.9156844620881,-0.24157393926459717,1.669942106938526,0.5807467216756281,0.04265192853511281,0.08213437869151302,-0.08741891614477473,1.045050678258497,1.0449367212412064,-0.051936207769127246,-0.3258901868957827,0.29211680713551624,-0.03837742740423617,0.08105647026216742,0.03546750601271387,-0.010082409157234374,-0.012212029447886,0.008804014824311918,0.005229161897497561,-0.13888750206101683,-0.0094961028835274,-0.01040556885427022,0.05631443132743427,0.03436927257167858,0.05622216956098887,-0.026688678465881355,-0.04887705059459323,0.016217304931996898,-0.006098681292537166,0.007417486938774854,0.13077262518517876,-0.03742755620543353,-0.07062382446331529,-0.04703816658998255,0.06344089123097232,0.0004113274382168664,0.09542360140169963,0.032768412192425184,0.0759138202513908,-0.07783761903190214,0.0896518462745084,0.012589408830208091,0.0406578543005121,0.13569729031642067,0.10306495675604671,-0.0379016822725611,-0.01156339709216356,-0.15092400636987785,-0.011770320998255347,-0.004777403172320175,-0.04967757339089532,0.06267561483862381,0.024009269332951166,0.046753637545174816,0.046234455779456174,-0.10875047145562088,0.07554838906101516,-0.024027637505985317,-0.03332192338002667,0.006386096282433031,-0.15823328040423168
74.99005126953125,1.261199951171875,-0.1607400090094811,0.12122386734325241,0.12321616520218055,-0.139750744745843,0.003652506451808773,0.1517442791610942,0.29411935609175655,0.11054751770167728,-0.033937826733848375,-0.09692013675870575,0.06488384878076531,-0.016436490519355494,0.1048331901556945,-0.16319280176818313,-0.10876336511312659,0.26277933426142414,-0.4951240193198155,0.20694198022657406,-0.07774842968667085,-0.38950276908568243,-0.48994500154778453,0.0071325717200191666,0.25852641488396333,-0.8266910269946612,-0.32527545684073583,-1.4044800374185031,-0.14097328611137652,0.07179285586868508,0.15256092000484756,1.7766543673854722,0.13394351303753552,0.0838970728982234,-0.349166275833686,0.3414165746880439,0.1817241575880753,-0.48747645725613653,-0.25251162953270045,-0.4680283057174804,1.0225905943825213,0.3448181655497828,0.8812351968278384,0.4181030016045393,-0.484385125303461,-0.2629855550046219,-0.1357244804386768,0.607219153854815,0.05880278645723759,-0.2263134932943087,0.06548714068870232,0.11093717653335931,0.5290437122084413,-0.10167311062264449,-0.034033722259315564,-0.02029643043636873,0.02674556444892378,-0.029609405843409493,-0.05547814921775228,0.026699488185466913,-0.0829216331308194,-0.00898408741249719,-0.027966672602741174,-0.12108393335064453,-0.08083579389350938,0.04809253551975906,0.02845450823195353,-0.005793901024002674,-0.0023783073084879536,0.05112267387501518,0.06570595227887882,0.012211610116008915,0.021348296145051217,0.06408217706214948,0.0644861372387103,-0.11898800647178964,-0.07438716188831969,0.007713120692261108,-0.0004149636268347967,0.04855706498828384,0.04060760896573029,0.014318709722340627,0.09058529091834894,0.020785942537444438,-0.011041998875297249,-0.012944542325604172,-0.12667161355379616,-0.03913527070474114,0.0018369407993229342,-0.021650857018587523,0.03060627499751376,-0.060891973391554416,-0.09072590588806027,0.0035624445378180797,0.08181345154313693,-0.08809310221656615,0.06390819243503038,0.07262636296973346,0.013140855399147623,-0.14945853343359347,0.11963556772999492,0.05649294261736972
76.25125122070312,1.2607955932617188,-0.09065486539538338,0.09747107948832087,0.3834271258046733,0.20390658357883584,-0.055299567100026946,-0.10093416536878147,-0.12525975694586333,0.14147231928697773,-0.03343815181825354,0.13496525079722016,-0.036075875060043214,0.20350765473729676,0.33428780868588703,0.1724534532413251,-0.3925528335068001,-0.08197048442578986,-0.6178979388425949,0.689843383686278,-0.25226436164973187,-0.11818735122480171,-0.03679860416299664,0.19155914161102425,0.047527163675136166,0.1272641547970274,1.0136649841537422,-0.3874840959680608,-0.2041860716574619,0.18093201633486589,0.3282943304456266,-0.10309798644923832,-0.33930283289263796,-0.41517817128152734,-1.2448383604695645,-0.09142776746511494,-0.13727125461708636,-0.8641304887250372,-0.888887995163433,-0.3204965339181217,-0.4573026955449909,-0.2543492046001039,0.6128259083981513,1.0273079743529394,0.21682121787861536,-0.054756288252392454,0.61793409459078,0.1006243766202164,0.22334218261157085,0.08892618368509267,0.07072584775675247,0.022953048650852445,-0.296083447042358,0.3729746167813323,-0.04507123137960882,-0.05981730601018394,-0.027435092654029897,-0.009658722585306034,0.014381701224096703,0.033486789839195785,-0.02469800072135231,-0.056419806221094694,0.08425887065927264,0.14930637004754221,0.04062903086386453,0.04511918661524097,0.0018624413737661628,0.01643592214033954,-0.005667589404276492,-0.002617841949053393,0.09292246518193906,0.09867066675731377,0.08662514781977274,0.056750694731489235,-0.07525262111184625,0.006911567984875604,-0.04276718986741807,0.0509547919551996,-0.027460393083808914,0.017724352815698667,0.011789277890600136,-0.02869323407506131,-0.02612134532057858,-0.03510325202017432,0.050882909891014794,-0.29208760731432787,0.04812737597066852,-0.06255349271891482,-0.12827383724681443,-0.03334970712223879,-0.1251237483363431,0.022265089886801606,0.018986140949358965,0.006739138864121176,0.04711387823529767,-0.007075810911096655,-0.10482406346131448,0.08119596632633462,-0.1678253002177179,0.0592266222189343,-0.0939103416960379,-0.046614750556910604
82.97574615478516,1.2105026245117188,0.059216338222991396,0.08382729277087803,0.003511680157423966,-0.09234371832091798,0.08608415756583462,-0.07962680828390017,-0.011122306153492668,0.5803624579128188,-0.13321439846708902,-0.3847555388484753,-0.06813157136927744,-0.15579766638835665,-0.1638695184973125,0.04410226557023235,-0.043035084153546094,0.30450639165488474,-0.4681640150951994,-0.017758688672909972,0.5293679920988605,-0.03051092289124531,-0.5095370222360724,-0.05286077406608856,0.015429122141516934,-0.005702212885776388,-0.5657942601227505,-0.10193666537187769,-0.45245644236058835,-0.20016994779137612,-0.09325872326756379,-0.9842809183295286,1.1124283676881896,-0.254610212343441,-0.01534375517623862,-0.7139184770550167,-0.1412597110475655,-0.5314892346587514,-0.05150249438727186,-0.6923027015835745,-0.8613213831918471,-1.4620493881791639,-0.3378518858734584,-0.3285278916160915,-1.238882662803954,1.0016850345164696,0.12956767734792418,-0.8068934788082828,-0.029258936129489314,-0.0031603587262493647,0.09189807387117811,-0.18764551537395674,0.22944835605608355,0.15154075403904183,0.08493275011011665,0.00958535830401457,0.008170926912965724,0.11363062522642502,0.0874204127214404,0.03612295343006073,-0.015130260389246095,0.04980610890858092,-0.04637885450932371,-0.06293029212489741,0.003953975486923299,0.03266557844894242,-0.017075856908394138,-0.07921498344245761,0.004487686413177532,0.0481060233588368,-0.0212945166541205,0.03967760949241448,0.038244703268008454,0.006425655470551413,0.04260249660040013,0.05059756551642293,0.007874211044384252,-0.0017792789207332562,-0.015414589144229152,-0.029703589314935698,0.015441223972012388,0.053009452115601,0.03688713245307207,0.015293324924580243,-0.09631094549231073,-0.0507599600509752,-0.02030912085169137,-0.03377573379660323,-0.0405612253639473,-0.08501427964402428,-0.039473198295513295,-0.03614789225198509,-0.010935030694835599,0.02685458928437924,0.03708648570670846,-0.008774820383929974,0.015877518486177484,0.044903838552242906,-0.21628182851597105,0.050689700520932225,0.22312143723818892,0.14840779653378067
84.18624877929688,1.2311019897460938,0.14762549452911747,-0.10461807583655397,0.1172360486788877,-0.004848897211939814,0.06720582770985983,-0.09548261462487435,0.24432770830893807,0.20058562522394902,-0.09516794019730467,0.033092984867486505,-0.29206859562491055,-0.16079834705599688,-0.07779324686309304,0.057052034019865326,-0.18133509830400443,0.000988282012130371,0.2825948485343149,0.006572146481726174,-0.22492910192867988,-0.03955029364491543,-0.25756099457221515,0.3274195590846031,0.4773842773906162,0.07713142925513175,0.39732745011018056,-0.08148585530774319,-0.7547888125327176,0.09651328134999505,0.12710431777684048,-0.906840610449798,0.0947922260038504,1.0509803896760845,-0.3306829275486378,-1.1663082246511691,-0.05750809997084816,-0.09236603885401327,-0.6599256920060256,0.3792364447613856,0.8947837670584149,-0.08532206748007619,0.5133715092634452,0.4533535517716007,-0.5046648822184625,0.24193343494505448,0.3264570495005524,-0.1105531088837318,-0.3170769653584154,0.12441560531609297,0.03695904636356445,-0.1241865634134077,0.06696747644845624,-0.035512548671585646,-0.017599706516640955,0.06271789265800487,0.02571306834839862,-0.10869319256175326,-0.04731515652970368,0.009945925793164945,-0.1416491619031301,-0.07743190721497453,-0.05606019900824973,-0.02681260274344528,-0.03829981337055246,0.05799995251503769,0.004902183347010675,-0.005736970541542185,0.04102279212850876,-0.02835623879564094,-0.0032435124410819757,0.10413942776586989,-0.04455640476975241,-0.020288803062767806,-0.10875788531536795,-0.05160755791898472,-0.07053320130639075,0.04461139782266326,-0.05190814301206458,-0.05213395781089575,0.008656578868343263,0.026321811254725092,-0.0011082051192692717,0.03261474930694934,0.1042623931063808,0.14154055433292143,-0.03929753447256883,-0.05680930459419689,0.006644765472868052,0.061441457607638555,-0.0466687602378201,-0.059108429573550766,0.0695138261644228,0.006880609309231386,0.039067818827402054,0.028529057573957597,-0.1081791825051017,0.01854477045480367,-0.02162054501009724,-0.08746610105136421,0.09545883087740707,-0.0981239400884259
85.41735076904297,1.2506027221679688,-0.1090377667746608,-0.2813618658844147,0.03255250768600353,0.013280633296707,0.03001176283244482,-0.0349849687666045,-0.12953402882728515,-0.08478325031419909,0.012829103583106224,-0.03162528111572199,-0.04963345008251356,0.03566464031376605,-0.021132127745749962,0.07644886507013395,0.14018700044764343,0.3017307255577865,-0.13623358004714714,0.0848995712718987,-0.11762847239355029,0.3336984439945181,-0.1142960566447915,-0.480506232149092,-0.08561800200512133,0.10345000296234086,-0.07070245120586234,-0.1444246607086299,-0.34199638123721465,-0.2827219378742967,0.7339974216768018,0.3736078896102531,0.3731566816596279,-0.3016130092978733,0.503769594611526,0.23604900226591125,0.06011047592861429,0.10393382443039237,-1.5140800405657187,-0.13280424558699114,-1.66421608712432,-0.6317486010119281,1.8123923371586288,-0.09093265521942431,-0.33627223191685396,0.05070240551112841,-0.8534835940262895,0.23583384772212734,0.22449001002061472,-0.12458077111476513,0.051163845215064174,-0.3295558374744686,0.12569361129408807,0.02867335330744996,0.08902986603744113,-0.15813727968641278,0.05999309002033916,-0.011234605723765547,-0.05169550852819779,0.018603576928857776,0.011718427483910271,0.022587298484380788,-0.014348009167712169,-0.17218388161409584,0.027947875828533624,-0.05094249734538947,-0.025042778947993782,0.02016720200326782,-0.012959819294589952,-0.009667778287442079,-0.05968240106102929,0.01181774239590198,0.06650120159846756,0.0008103644333913255,-0.03387059715738581,-0.049812625247877634,-0.03766266309898238,0.02302713201745556,0.061920578568541586,0.03620287410679415,0.04238265671803391,0.005401328924587948,0.04085728209045228,-0.05727848877530619,-0.00404323117981086,0.03685165251561925,-0.2507139692872656,0.023352041096341432,0.03176761555099698,-0.02444890696949116,0.07395329541313747,-0.03339258942016636,0.041450541978067135,0.028493896737538618,0.05262551482525308,-0.023331572001253086,-0.0324594779977206,-0.033954647095508786,0.046755610386089226,-0.04456252643214397,-0.0030811497594148943,-0.06450693395086407
86.66795349121094,1.2907943725585938,-0.07030187313522493,-0.15405281345274052,-0.054678110330053584,0.06459040865352435,-0.08745541691887178,-0.161389115519619,-0.20863739380641305,-0.03388081490193993,0.07384611697878718,0.09965325743144571,-0.02995212887838664,-0.048065037892913776,-0.10637766884112482,0.03427354630727668,0.02097866565240496,0.058190699882751655,-0.05123675359658216,0.2672225241615294,0.007552212301093859,0.02311506595133464,-0.15461870483896994,0.24963728261944493,0.017255943541079878,-0.27047531066849995,0.05145023932570773,-0.22257884060283176,0.14997992326777518,-0.12078322161184031,-0.38642576950192076,0.2676299773061858,-0.43034063438630316,0.23068753691853408,0.4432774350258773,0.38574771339928915,-0.23741454862249806,0.32308652163398716,-0.7699464186452266,0.7421430244808179,1.5620523776303894,2.069464491127403,-1.0306235163205457,0.03838957146259281,-0.15595486705120293,0.9394648017746318,-0.2452969051882976,-0.28777884593402725,-0.1210096594188564,-0.11019623602323567,0.01944859437827215,0.1425597002510257,0.0462495187083245,-0.039143391155418594,-0.048432927409673227,0.01150556193340585,-0.07947847801759732,-0.09491581141966539,0.001379457597673918,-0.04775185178770469,-0.1622800473727115,0.08073079758367463,-0.0670151659887948,-0.05768363014259618,-0.07518436127030106,-0.06445225126266867,0.00016733823550473545,-0.003225806659000672,0.0027179830956840178,0.006056903407414228,0.04053151820838669,-0.04819348289977886,0.05762180716814491,0.005455230699429235,-0.03149192708901161,0.07024924559692185,-0.006274954611357975,-0.06410272102576932,0.1304541189137706,-0.027316725229463046,0.040222987721628384,-0.0032055301255158493,0.0591095230525133,0.010032783817755415,-0.0004956279347041051,0.23308455331322248,0.07151022688834208,-0.054728912587359936,0.21683975254451737,0.005006524496996131,-0.015469619180201549,-0.062255783279586085,-0.00862796564532893,-0.07646213297807117,0.04543203848375208,-0.10294547812947315,-0.09955929773219392,0.0219769080527613,0.05382447613716919,0.01879737726287481,-0.00019207191617140744,-0.05349854094685744
87.95874786376953,1.2907028198242188,-0.059736913702915215,0.36657791250419736,-0.07378786272116968,0.02663896622712434,-0.13104580456611206,-0.051180548473074246,0.12002888187187152,0.044296980143940054,0.0481152735133642,0.04313434180328556,-0.036311664920813565,-0.012667033464960393,-0.03371601757686333,0.015843608134516237,0.0972813243813948,-0.0001855421463200016,0.03399852449670525,0.24175280360205378,-0.3715076705696477,-0.28781909596993516,-0.5395998096340211,-0.9482105073495306,0.06161403980162988,0.5977599234754224,0.435518408543696,-0.884185099120097,-0.2804039759010226,0.11464982768189395,-0.2939899547132862,-0.16684833842068225,-0.6292593831063501,-0.21090788123644547,-0.054506341762963165,0.3297995928815183,-0.8175085632708441,0.5561596282247684,-0.8408951876084161,0.3788133242299122,2.465914215232641,-0.23090878712252635,0.024561035900241755,0.6526070506718366,0.17183486329452083,0.1617824110970466,0.8919453267705408,-0.1032158770901545,-0.6435032333910089,0.5072526615061106,-0.400679394840124,0.5937705142210323,-0.39318349690121646,-0.06710991548250653,-0.04799809382870584,-0.16591626559221304,-0.011009457502233071,0.0015074367538930248,-0.06377611307468938,-0.022689943260746876,0.010068295738117095,-0.013446986496954057,-0.028552781502213142,0.005303698909266736,0.025573530240026402,-0.029430628384799096,-0.0186981786542341,0.048175143513152226,0.044507953300363196,0.027751459274389642,0.02833613916073575,-0.009462754454037332,-0.051736291081247554,0.01597220114342037,-0.055863266065258516,0.0065289902012796745,0.005415896015748709,0.03504743314743795,0.006254848713023134,-0.010923770875296043,0.009765515650402842,-0.03753181170788876,0.020348618502026013,0.07855963692068627,-0.038608656599614974,0.2056600277908886,0.02501738382703586,0.048705403736653295,-0.0689742603922696,0.13010141809816014,0.004758275087686964,-0.022256015720632228,-0.010455993707756,0.022451398821034467,-0.06777537079702778,0.1281837142775586,0.107425453765606,-0.02978038065238654,-0.03454621757988652,0.010886524657978312,-0.15677318613074473,-0.08729949664433448
89.24945068359375,1.3911972045898438,-0.08815256694493913,0.004408372771830142,0.15401733302693613,0.03804542773278775,-0.06513804289192987,-0.09339451974399622,-0.22204622150775652,0.00010116276279829514,0.1165639549960201,0.08191224061184511,0.11233235536198083,0.06439117791446662,0.173931751487327,0.010506362050567207,0.3472598346232904,-0.03389316411839407,-0.14821295955856148,-0.29336080274974163,0.26768040222145134,-0.3991102536182279,-0.26723789552709354,-0.24497132024103055,0.05017286783831335,-0.30265928432075473,0.6359758226266758,-0.5158427728756633,-0.0705092257193263,0.42220007642790175,0.20450504031741193,0.4988372389806757,0.15018183542693875,0.3118592852527773,0.4021778263484473,0.009431442967310466,-0.18155336181008336,0.7234895155553525,0.5178544028937835,0.14955118640194634,0.7178186782568987,-0.5357294011943006,0.4363064414550263,-0.1136983789602993,-0.7290241155283288,-0.24573735337239352,-0.06399327087854234,-0.1654774365032079,-0.28179404233304894,0.180053901383193,-0.23574380838230374,0.08986194115849387,-0.02861161607662864,0.10208439059167501,0.12507382045637155,0.112307226752384,-0.25344369401749184,-0.024137394933867996,0.02454216444004632,0.035605990963066055,-0.07478592574509726,-0.12101074577167908,0.02401331058865731,-0.11379197213003095,0.06579469306456501,-0.018792739081217695,0.011910211543752528,-0.015929100075009348,-0.005314535567765167,0.052198850019439,-0.004338804434027832,0.039674122685410894,-0.07013710247901501,0.02429664999465804,0.054888612088722345,-0.026381139155414016,0.02536541868832517,0.10848791920999029,0.07796865370736253,0.061205694095157324,-0.01829763261460684,0.08135379045275809,-0.053548346543528635,-0.06584163890494983,-0.11245440818118099,-0.10021963587635072,-0.24125435640094034,-0.05671677384545913,-0.14499523431163933,0.09321119754129578,-0.05931960098376026,-0.009777779270684147,-0.04707820497782088,-0.07155797894658851,0.09406379689536688,0.034387047717019156,0.013788504769340099,0.012147593859937062,0.021977378944113304,-0.10608352102255941,-0.009034116090936257,0.039370716343703066
95.0335464477539,1.3808059692382812,-0.11132377290572482,-0.14963191827623262,-0.21556862427182577,-0.0988342544585395,-0.10527340272125583,0.11169448268576425,-0.126543372238979,-0.004722117799289882,0.031074507041179745,0.08915694499811469,-0.032667066092984684,0.028857353556551377,-0.03920658906222536,0.04375680596602632,-0.15915363377689265,-0.05981703282842929,0.10105302073071215,0.11561028920543522,0.2247210974277903,-0.01885675407466788,0.5478842338381236,-0.6025114998866661,0.9881343038874497,-0.1702721502970756,0.1163703187421955,0.0423823473483088,0.11611877964249337,0.056386902280986737,-0.14650790366157032,-0.7737134922070072,-0.47950926615060696,-0.06653699183447592,0.5513096022177375,-0.3322218890917695,0.44191675424348353,-0.48288706206136933,-0.5997320089503843,0.07259235823519292,-0.38907243734468244,-0.27877738339645775,-0.38019638269381,0.8919089892986569,-0.009744072198689141,-0.12237185502447237,1.3817998934124878,0.8252988159131223,0.3667477760200303,-0.5694063046349984,-1.0155412417230054,-0.12447387080155206,0.19229912379517583,0.10559286982905103,0.6264966455001928,-0.37727134794469486,0.17466353711081328,0.06976282651189447,0.00923361289703048,-0.015206438811101375,0.009783843137904362,0.01530040471615109,0.023512584913507967,-0.028271275846319128,-0.0716747147713341,0.06138916245296829,0.049988200435606436,-0.019045910631955036,0.01417472319684143,-0.05045624376146672,-0.05512376559592582,-0.014251505498698941,0.049919178558889964,0.029351621009116063,0.10302142481761473,0.1101189209448785,0.010122757660356092,0.10059648293865975,0.019039044861252574,-0.14354267862773032,-0.021483662165599597,-0.017951714818411388,0.08795710026405636,0.07796897574901572,0.013276905346682636,-0.0046397700187497245,-0.08408022881187553,0.05800687368691823,0.026997799609581846,-0.008793873796023352,0.017385996825759687,0.09341121607699983,0.010610513270432307,-0.04255278159047689,0.028850643152354236,0.020532904814203702,0.09894843912401774,-0.027035068849129255,-0.0070473461982848064,-0.011761894344568688,-0.0018870043192770261,-0.030483959169063476
96.41435241699219,1.3709945678710938,-0.030482270571081715,-0.12885409107219292,0.10923839442079217,-0.019708344904434693,0.12374121745442396,-0.09506300845693387,-0.12194799575811319,-0.19138184416084011,-0.04536634055369493,-0.05579778827559205,0.0065894976526399435,0.0274710819910099,-0.11911925186494568,0.00561586642744391,0.08316243115077702,0.010612186622866109,-0.03269498892338997,-0.09568332420084319,0.10888998248361342,0.0015817798889736084,-0.38333118374054,0.8016060643780912,-0.12129585454368891,-0.41487637074764,0.34586974796014014,-1.5650309846673705,0.3313697352411183,-0.16502593126921672,-0.22204053832621912,-0.7712283218798285,-0.6841994261485348,0.14503081464783368,-0.27149182475808353,0.3138618835171586,0.3561325983295599,0.07916527306615856,-0.416082983563943,0.3490157894322772,-0.1626389988839178,-0.5432593586473254,0.07685416883004068,-0.7845736313506901,-0.5624788778711806,-0.038791092896770296,-0.33965293405322244,0.5510648722360951,0.5883438579633046,0.4982131129335685,0.7555290512819075,0.08315695680100725,0.22569977692025747,-0.35895283657166355,-0.17773715985172203,0.34922919870161206,-0.06801325181244745,0.044836453666815546,-0.20075007866571776,-0.008175746177027616,-0.023886974761126917,-0.004362160829163526,0.012335622480541044,-0.0697878927288074,0.03254146668650998,0.04350714188511653,-0.07408170248662979,-0.04569587286564415,0.02151856248943384,0.023376130403141696,-0.011300280000288475,-0.04117720652794434,0.08265498304523798,-0.037617363126290757,-0.03433224055177073,0.039650362513352945,-0.08264794787567788,-0.05469086871225845,-0.03513188323714521,0.007256324461980976,-0.01888693964690482,0.04565445589757815,0.03134487653887775,-0.008646522455690931,-0.03642334078826231,0.09892146721756458,0.44029713676094895,0.06194104700378823,-0.036548327977148326,-0.012682277753095805,0.04681140598862999,0.02194980526782845,-0.08970417955249503,0.0203821601926075,0.09617031181082272,0.22040344292842148,0.06694257316249957,0.006174373983684081,0.04017178673307135,0.02742479147035004,-0.06074765989550411,-0.0032206319036812286
97.78534698486328,1.3009033203125,-0.14194954905620544,0.025789602586033387,0.09583763648466775,-0.010105314196369192,-0.012779163401370405,-0.020824748542358832,-0.014845124029886447,0.09685371354002621,0.05194856381060787,0.02943863075014312,0.006563182926897112,-0.10782133701251452,-0.005469797011051948,0.007256062833210016,0.023608759060775683,0.021342088442433738,0.01585788656533729,0.17814547492861166,-0.10178186965603539,0.07826794182591695,-0.002283678329239369,0.22096353959089798,-0.07442832112984576,0.32063264156079163,0.10549839034533465,0.30414648906836583,-0.5256396725447067,-0.33956097171544,-0.9257027066760752,-0.017946898093102234,0.20123452965347402,-0.2724790816730405,0.16975348765171724,-0.19058867409722113,-0.5083872912461693,0.04448714347422248,0.5879582670563255,-0.2403944856508191,-0.5375669837829332,-0.1251862017379507,-0.27278955835829083,-0.8958404219273778,1.2999186716737205,-0.07755864553748662,2.097390269216002,-0.3236965353569998,0.2213757837421321,0.11123697343204611,0.11456677570305342,-0.20900551171333323,-0.2469880250174892,0.8602289485494232,0.0589877489260872,0.1950759535267279,-0.18454068697410392,-0.18070754999205552,-0.04132034526919964,0.03324639638494352,-0.06778921104987655,-0.019316662187057757,-0.17517326165092043,0.04201827990604209,-0.12522958106557797,-0.0817221516727255,-0.0012108115548108752,0.13310128745354205,-0.055512683676519695,0.07240824456860073,-0.04257057498271045,-0.02453382172866376,0.0907196562271168,0.041190358110365755,-0.032030658096282624,-0.11310536561426907,0.05032548519369951,-0.021372146488698222,-0.013575980141402218,0.06291095393844232,-0.005908713664453821,0.03766065298890637,-0.08495170394275847,0.01510386989294242,-0.013582666119886191,0.1303718743382535,-0.021769672961937103,0.005881378408362412,-0.1557251354158365,-0.026536904902119345,0.057151271407257176,0.0550302509411077,0.028906432037158845,0.03884302030206388,-0.00874764906530306,-0.040621791773847477,-0.0277309629407513,-0.03263339924368874,0.05075068464874984,-0.05564797629335441,0.13691716361499934,-0.0777043815396095
99.08625030517578,1.3105010986328125,-0.08095746409290061,0.0335443110346352,-0.050315589930790744,-0.03478644241648201,-0.08409775708654701,-0.08446345589423278,0.08978291485219916,0.14003744659021733,-0.08393808146418943,-0.07547990420604916,0.1378768438422328,-0.0083388547235131,0.1553622883686582,-0.01060020795932298,-0.04294056057233945,-0.0994160539135182,-0.11545586365005411,0.005249875733139911,-0.043539530722216474,-0.03594631495847432,-0.03688195344683085,0.12843520619213303,0.13485320352718297,-0.035492224109248724,-0.07040625632771563,-0.07400831158524988,0.006236474068028158,-0.19775028657358074,-0.1032594379355466,-0.10733652750513922,0.20057982305224978,0.014041494530996068,-0.3862873164282215,0.19694251309426383,-0.1963176496531578,0.04630560137043984,-0.8807957369344938,0.8235550067155267,-0.044163630010919,2.1071620504283266,0.6721473056411706,0.07694800513794586,-0.31459869241804983,0.4096518628765058,-0.5083200781046325,0.21533709241966204,-0.13528823622174874,-0.583294304360857,0.17441705152703554,0.39542882817004515,0.1466896071416904,-0.014570201485339532,0.11701832773847323,-0.07368517966387007,-0.011837098909614263,-0.04489105847847655,0.020139674880517502,-0.054897578432481844,-0.09353042885065757,-0.0050049447839587355,-0.045616311151964864,-0.020009412972586876,-0.07494910340657848,-0.07795518374992808,0.10567144621181777,0.0029068083166346134,0.02965487435512521,0.008284418105978826,-0.05254670387172175,0.013143297534617385,0.010739804341608835,0.039701473668794195,-0.07338605553655254,0.018747800664226717,-0.060563473200621096,-0.01598308152621628,-0.0519153792319707,0.09452199931723537,0.012274315045812549,-0.042114122349103236,0.07189203628190456,0.007526934054530907,-0.03508716583047412,0.05465254364737456,0.1541006353288699,-0.11055252206433583,0.043351028767053136,0.05648936364837802,0.05368927235600779,0.07378893552083776,-0.01708327289587843,-0.0570718066869791,-0.015853351387223102,0.04520130612866592,0.00380489540289013,0.001143853880802692,-0.0178483895627995,-0.08620452314238626,-0.0975820926113853,0.10248182029350965
100.3967514038086,1.3809967041015625,-0.04359440021721189,0.008817653641211398,0.11357292703002073,0.06273982410667829,0.02650668936880881,0.1008119997045711,0.015153225259954675,0.24349136624509074,-0.03248869323191858,0.0015659924965466688,0.09107067053127968,-0.03061998361460595,0.031163969729977585,0.023967610949217552,-0.07137007758719141,0.0071333528046982455,-0.014983269999686119,0.04797954502984681,0.25542675032979645,-0.0037368778592038465,0.4329518275191855,0.12415967157777756,-0.10664264769925787,0.3368833024360921,0.0426153023326922,-0.296587440971797,0.25171228960792147,0.0031282347646316433,0.05750162472435723,0.5261170574734908,0.463194890485066,-0.8806625032126845,0.15199414682828963,-0.5282259566750057,0.15021170748674384,0.8459555930961306,0.6595199179345396,0.40372240945789994,-0.751219332679865,0.5168700232203622,0.022590728040971925,-0.970695820965342,-0.016914234159104535,0.43013987454718366,0.06477434961642611,0.10964215270338952,-0.165556879492694,0.26321701434795836,0.3153785608885833,-0.14988097670790274,-0.23168480849851208,0.3317077155256395,-0.03979624911965111,0.0516375045714943,0.08764003899495429,0.012637769453689388,0.024268986712985274,-0.01745446604562502,-0.060334330631757783,-0.08387833183708979,0.019804289432550193,-0.03079758900213295,0.03531195852552066,-0.013161976400845675,-0.04990221094201539,0.004270076111171529,0.0254883871155333,0.012573995426229178,0.02660900277645834,0.022793273038539962,0.043497099720661965,-0.027381083901862266,0.014545409013384228,-0.010329283183349119,0.021074594018455184,0.10939949888029651,-0.010602854177422308,0.017002655178495283,-0.02470865257047148,-0.03254330125673592,0.01632701663517137,0.03824004355553128,0.04794189111207606,0.08867571688267376,-0.01113903920193951,-0.02871414947088332,0.011675105506161179,-0.03796463535724956,0.056173385885487585,0.0927827008391582,0.027219714151939977,0.05160026899589554,-0.025385809440772716,0.05380752539228717,0.034106135450344355,-0.035026131921233675,-0.10939611465313898,-0.05492045265805982,-0.09860624484501386,0.1688917230583384
101.77774810791016,1.3610992431640625,0.02686008014681049,0.02041171212978926,-0.08132827102152135,-0.05940165966845165,-0.01746286528259966,-0.053914697436796256,-0.3347240378440599,-0.0105050022115082,0.07547012646326275,-0.11671610180976116,-0.015452519184431043,-0.08360170227049518,-0.0705232741290381,0.10029024602900767,0.01054589126377061,-0.0036716298287232537,-0.16177394002865383,0.4735222801385275,0.05034816406002367,-0.5001937958958224,-0.09094627147615965,0.28030164490022225,-0.5019076785740294,-0.20397363711969363,0.7978859887572434,0.05717349509985313,-1.1110613805172624,-0.6711729426762023,-0.4465557367906169,0.14678306454122833,0.33877398470533504,0.06509551861246161,-0.30971115852648134,0.2182848717248711,-0.5070167148834045,0.151005612842814,-0.15458034462545298,0.029316992616373785,0.13528744758501887,0.4308435891647581,-0.4557844128908512,-0.23025636573704067,0.37125091875315386,0.7270045669665064,0.1760018254431185,0.04702579571057762,-0.6504545407642245,-1.162232759113414,-0.4567584602420289,-0.15055645255258465,-0.06279520929234615,-0.05330155258368991,0.030598763827318867,0.03901442900265682,0.011165060870887504,0.02757623206836811,-0.07476550522706428,-0.008206218687438423,-0.0684501377680231,0.06041761761249379,-0.08706832404341594,-0.04970715076843444,-0.14657801921627467,0.028641220642396013,0.003272206408304777,-0.06662230353639464,-0.027437518498600662,-0.03244961643137622,0.01720597160375243,-0.09946162348939554,0.15268921102000402,0.034290764701935525,-0.004178292282795947,0.04648551757915573,0.0455709956064487,0.039779924842266244,-0.07280148887474003,0.05125689978226245,0.013454337096176406,0.01029816295247332,-0.004194535643036354,0.07684063635702694,-0.06966630137148794,-0.16670268337696245,0.08876903282425552,0.018629038689364098,-0.010380370620698454,-0.008282877065040075,0.03324686506381645,-0.030685780065878368,0.02647480548193104,-0.01528050403843799,0.09141665908587666,0.062022836897918286,0.038391846358141996,-0.18678827610751433,-0.08940231808544453,-0.026481231293770717,0.0027058093419915163,-0.04289862575409692
103.13884735107422,1.4309005737304688,-0.04414818082598952,-0.028060052110533414,0.01214504179177938,-0.053090004996362704,-0.13600292252103516,-0.04147676744897218,0.1326276291771728,0.3353967291883631,0.026321998163604098,-0.011115499160428524,0.015202399517417989,0.03877565081618431,-0.12314569884688088,-0.00533306950411791,0.07782186447929584,-0.119930201686271,0.04653590444274905,0.02372723418406064,-0.002706658395845248,0.054196767663597205,0.07011552907946607,0.04501776912771954,0.07577088984888997,-0.1715931241134787,-0.357194091858367,-0.6237291437139496,0.4103489281215557,0.0763206535420527,-0.10969350380303039,0.05709197109439629,0.13971003073422728,-0.15953296255463262,0.4373064961093933,1.2303145197864491,-0.03348224129913442,-0.1825459228170809,-0.27958322689622483,0.38654482337327284,-0.25313600298901817,-0.934886240586274,0.4092576446371867,0.14984004446071236,-0.5536601593567793,1.2097558758662346,0.322043594405249,-0.29961360123667763,0.3113543314266159,-0.15037609064429636,0.5874190837563334,0.1330011293205608,0.015674855630563853,0.11491388628773318,-0.08365750014768351,-0.07359596963385241,-0.005155395469439855,0.06286172667536247,0.02649385101538042,-0.03257277107314664,-0.07495203921405405,0.08739030014929423,0.020667857919833728,0.06367343160504889,-0.051561095470516044,-0.08851817526192327,-0.04666828640756791,0.01654531837408358,0.01293136539420364,0.03550534581841905,0.036870261430210396,0.004401786921022254,-0.1716975704892762,0.0032225437557601173,-0.056135842961649446,0.0497737678398786,-0.055366049072203605,-0.01587141838203153,-0.15208687509450838,-0.071052896872365,-0.09780003103771233,-0.03740279239538917,0.047298490808068236,0.011061361121454432,-0.07648318885556023,0.010739419103407088,-0.03835408132939028,0.11107192926900988,0.03248324476384799,0.0009287752767152269,0.048702005809543716,0.02436754621648037,-0.08782822890034522,-0.07550113225282185,-0.048754121665770686,0.019729082841384644,0.04258690705292406,0.014609359127960879,-0.021139934813553724,0.12082823406417778,0.03294612493636983,0.1164787471236517
108.78185272216797,1.37139892578125,0.07747386043171342,-0.13427755369579414,-0.026518434643546914,-0.012109178701410433,0.08992724050254111,-0.09279149498380422,-0.012207609014952037,0.12642582691863266,-0.15027692183200309,-0.12031924903066757,-0.19840319802727485,0.001405246580167538,0.0065466275535459965,-0.08270110221263814,0.02373878111019019,0.10434838034366156,-0.20148506689845114,-0.10014354297210622,-0.18032463287988906,0.6757585749620083,0.07861978050930271,-0.04706225938947417,0.26289138552244656,0.9584558510945071,0.20210451309181388,-0.10553491598633129,-0.9033473902417083,1.311828697824711,0.01546443097324228,0.15384968630816073,0.5170078757820151,0.4038079683554283,-0.0629308108131514,-0.185813231288977,0.25189889236347474,0.2533742634708062,-0.7259687722196767,-0.3377119685249699,-1.2372392642609886,0.1277155514171917,-0.03776667905738296,0.6115384404065191,-0.12558558120346297,-0.11817788831704634,0.6461515805106618,0.432432238988622,-0.24668643367746368,1.089595178947709,0.15159115360875608,0.21295977677800207,-0.15043126198641119,0.02649425887219672,-0.22862785975467823,-0.03030746836356779,0.022818039206553023,0.0799359194099576,-0.021233390380421085,0.007627421624554778,-0.01639016173997653,0.009829206674025565,0.013216977538012091,0.041560962023639486,0.010617995201729319,0.009217147410919984,0.02737351916761051,-0.01914386910975415,0.09016170778523284,0.008199359834228957,-0.04307991819565919,-0.04007294399796238,-0.10580885766871498,0.00474431487548785,-0.06379544870065926,0.005820060894706007,0.041012733242907246,-0.08374788362034977,0.08615418723061205,-0.027788546737215675,-0.08556354029525294,0.04748106619853623,-0.06856369969921632,-0.06381710141708213,-0.0040806824879113975,0.10796381109603623,-0.16664378847629358,0.006786260329997452,-0.16325671531040856,0.124781399813847,-0.02164646797286436,0.03483421413208246,0.032453429512679606,0.03085879804125799,0.16241279542333373,0.06421159900096744,-0.027937339588806877,0.08284307406552183,-0.01987064949329144,0.01538411527875937,0.11982762164633622,0.08285877096599469
110.15325164794922,1.4010009765625,0.07999518306574366,0.10216003529611162,0.1584606491248309,-0.03257498744567008,0.0769594416320262,0.014566049822422197,0.031116329588719207,-0.21252645532600853,-0.053659551682367565,-0.023704028770517832,0.07815111080102324,0.05697631173841439,0.010195293165214232,-0.0944167361180919,-0.4044527386419545,0.6280156073003219,-0.35823626084359056,-0.37750828300023836,-0.19823866376821275,-0.018307689923359752,-0.38625496599046527,0.8420425553105675,-0.10748222022916522,0.4437598908860151,0.6077516687514356,0.8599752853102949,4.350419382511363,0.3951460864833506,-0.139599498724082,-0.06635112209064112,-0.15574929097188125,0.0024686261318553893,-1.9414077189829837,-0.3634374818408986,-0.8547179992492435,0.17138974255557177,-0.5072863407393122,-0.22611300969125991,0.2069580101199765,-0.2522416075873626,-0.6724381920991354,-0.20129846667788137,-0.4181726961785496,-0.028691824461329625,0.374931176248237,0.5151920849822902,0.6842289867785838,0.14818799937420993,-0.5499255762362716,-0.8384914264984111,-0.23515102873247182,0.08708847761357583,-0.08568573357854747,0.17729344639734007,-0.26858867185927293,0.026940456053391085,0.046818401664751805,0.03361886038526464,0.006947626523188653,-0.09067358533058,-0.0975731849988154,-0.12492764071584082,-0.03432459536767858,-0.015271620262266642,-0.06309991278166599,0.0015090988219324548,0.03181696525673535,-0.026100025729861604,0.01780052640627113,0.015178654452823199,0.03325422328088657,0.12093050620890974,0.013473597479495798,-0.059666743388175666,0.036300870965278426,0.007175156193162966,0.04553286051006857,-0.060201947342271654,-0.0692993592570065,0.06512719433570253,0.0356184967832202,-0.03711020237404383,0.014820877600665507,-0.0703156221057381,0.011566348943646693,-0.021519377469253115,-0.03595563497007785,0.005918581782337464,0.0073911148760505705,0.029308828725892556,0.04973827982711339,-0.03296423226895837,0.10797474122295486,-0.030968570638312508,0.023136267134330202,0.04547438088764787,0.019444467085735863,-0.027873129980250256,-0.0892913494987852,-0.11530542468575353
111.55425262451172,1.36090087890625,-0.11188059250889748,0.03603381306098552,0.17159506238858785,0.17141892316714794,0.08620683474594293,-0.0985893107755331,0.036558156147254245,0.010184774336376101,-0.09274715601869549,0.0235904512634118,-0.02401682617348941,-0.07845967823660233,-0.06791085179587089,-0.010596041648027826,-0.035743145328698114,-0.021792387649991883,-0.011902403114925394,0.03471887399674628,0.34933047586044674,0.3928255877225658,0.1959878281993542,0.05975031477362625,0.04421804912854736,0.030786683307772823,-0.24627644940090648,-0.3988085394240109,0.42410286739343983,0.22710792212061617,-0.07145004831960837,-0.39749700924932935,-0.49560699494322763,0.3483842384447411,0.07215333302130508,-0.10549267363992959,0.07856193975267914,0.23359537286300552,-0.5506942536743367,-0.6148789567119495,0.01868955582385024,-0.014856508456179023,0.12897200844827272,0.5464772408660622,-0.35778667715996004,-0.22714355773036377,0.06779676301143985,-0.0909578469731849,0.06468681438741145,0.010280787191001381,-0.7214691104674854,0.6739639236855238,0.5006579729302633,0.3959962806702471,1.0475266817369848,0.0353117940019413,-0.02748487864931155,-0.009156135918193451,-0.05715413131101379,-0.004561611114058561,0.02779491941757197,0.07240333568228587,0.0006503360161479205,0.02307550274265348,-0.0229261119232451,0.08381926883813955,0.027402510027073907,0.09975846694098321,-0.01510737415398012,0.002405437790172966,0.019399973366956126,0.05741293557871646,0.06317131367817613,0.013965622685709389,0.044197581611169726,0.004529445891251713,0.05627584976809499,-0.008934028932123075,-0.03847287532823343,0.03431660982483542,0.005907429577351936,-0.004243008027692569,-0.009438454878900382,0.018148985938796974,0.16890399747155446,-0.03638828877432921,0.022371027577944486,-0.020937335529021966,-0.01015968315752682,-0.01647466225878081,-0.002965599333279903,0.006953033391707077,-0.025660222119113403,-0.07882203146198957,-0.06086873997409276,-0.026381511238839722,0.0659255365189245,-0.0023230374989178675,-0.03841699696131018,0.021530183272704034,-0.09772505481958445,-0.00278368307994014
112.91515350341797,1.3704986572265625,-0.008527447759754524,0.05024386024282981,0.09841716234316845,-0.012917400131416816,-0.0707645256310504,0.16494278545938096,0.0699328676929916,0.03549062084052647,-0.07291102229923019,-0.060894108369027464,-0.042819019374308445,0.03818851614408928,-0.0014465627119649369,0.025305100318678195,-0.01104073128401992,0.012702279911185424,-0.13270578163875424,0.03598127691981186,-0.03485419720525819,-0.0022384629012688123,0.0796550825464181,0.08812752060783904,0.06480957061851048,0.0014403188637949079,0.0830203823447597,0.3130861366862717,-0.3484292040467509,0.1342174758067878,-0.039166317609751554,-0.3429813890363381,0.17617612437100078,0.15183535141121124,0.07787489654875399,-0.6694309934919092,0.04546756445806149,-0.09746837146897791,0.39638239701262,-0.12316681518772041,0.44751254512418737,0.46963196154646747,-0.009244043481296454,0.43119428435108637,0.11274119363440283,-0.2192466720623814,0.18171454508539725,1.1722154428804843,1.5299813031020206,0.1192042430416032,0.7477298046876156,-0.4080993178782739,0.13268823621083065,0.0034209836745699787,-0.5414527256317794,-0.07090914016083735,0.05344774030008157,-0.001649236054526479,-0.06702304249014278,0.022771132422394022,0.05652696978506587,0.0010302962830477194,0.014870859609803742,0.06449292736680874,-0.0469490458508882,-0.025267139549287554,-0.1016677793959285,-0.04443129422853981,0.06614407233411408,0.0051301605726412755,0.005611679850334817,-0.02326094232244207,-0.06724120486057936,0.03227252371192409,0.048383218009429636,0.00809617671821787,0.042255847329522034,0.019194039546109657,-0.025850345166178186,-0.07389102796286624,0.03513539577768718,-0.05183700641249016,-0.08022802513080467,-0.062479048170599176,0.009983862626732364,0.0581168287578415,0.2592080835823468,0.27105352005400557,0.056353609691668215,-0.0316389153621328,-0.08632000917848741,-0.055765278289930144,-0.11180767693081622,-0.029974193701660892,-0.011425136620028274,0.018326490837415145,0.026219177572764936,0.05544585019274088,-0.0038453012385577905,-0.07366591385057199,-0.10329695909636005,-0.13151177567792446
114.28565216064453,1.3908004760742188,-0.12824718938069407,0.07689030275332462,0.015858899119745917,-0.122538997010634,-0.05947589921732043,-0.04344685498821644,-0.0027126026923340015,0.034306117402641466,0.020583276245433057,0.043880359188468596,0.07004400871908287,-0.028912956441221136,-0.05680290790184479,0.12804580048991304,-0.03653593530652258,-0.014647777706828787,-0.018174866096300705,-0.07983445841520238,0.04189867514617331,0.14221351634051643,0.22974431394524736,0.10997917220320703,-0.051458088261152016,-0.10861544987757459,-1.1179748251943573,-0.34023504426523454,0.8622998781713839,0.25396243228924265,-0.08549642382621281,0.19836409133405322,0.046859910159199394,0.13475375616867272,0.04446789649756929,0.238664066923459,-0.6207753160107085,-0.09766889583056054,-0.49549660983086635,-0.5831762262627335,-0.6314553112409099,-1.2199685065392227,0.452731401640283,0.002177592908180665,-0.9163409281261756,0.025891548689026104,0.048467783750886326,0.47752878691849243,-0.5038527518209737,0.33524856050584206,0.08918137393733781,-0.0710644256472895,0.14584041801812636,0.08887563614361478,-0.0858263558194432,0.0707469392994867,0.03137109088323322,-0.011219752205914781,0.024395762464999443,-0.08548684773889005,-0.013627192312058195,0.006360820245380444,0.01845680284821854,0.10463439108825054,0.030593284058042694,0.001451527560691987,-0.04985454437473822,0.08071878776043735,-0.0088094599941449,0.014242763318789896,-0.03760348609792914,-0.07456278795628897,-0.014462263231498323,-0.02138193514609186,0.03461736856176958,-0.045068522894673224,-0.03308658442052112,0.06272959812665133,-0.017303939721020015,-0.07080161021060591,-0.002911672719526412,0.05420189622790238,0.057257654267323356,0.03353341989045547,0.06839985172813084,-0.10024075015698548,0.049849857906185624,0.03370953207859407,-0.015597922669676776,-0.07297942775676636,-0.006982415559488234,0.03186509576616994,-0.06290515428142399,-0.01689213705518185,0.1406073761625327,0.012014472458820674,0.05067430997860613,0.0225986928609346,0.008120741361309062,0.08723856301372776,-0.0350216906542004,0.1383985154823857
115.67645263671875,1.431396484375,0.13146827666640065,0.07099404374690817,0.008925711419680528,-0.1058077230837809,0.042692151380746036,-0.059264146680971456,0.1574142427803102,0.11415737922085578,-0.08247810246900135,0.2311492069855484,0.4055036899888732,0.3101221332065443,-0.07318530066703549,0.19656621311052938,0.21873975327501644,-0.0391837797462431,0.31546685831461585,-0.010845099607231512,-0.2796242414245452,-0.10159292333560231,0.02962738908867335,0.2030949345389453,0.057293335928538316,-0.48817431182538623,-0.13595839051827635,0.27784442945223947,0.2755268608529625,-0.047816741883370345,-0.007869123865686306,0.14813211674256083,0.27865907811371926,0.3316927768892835,-0.520009089432908,0.07723835000317797,-0.21455980703366304,0.014203601399098067,-1.5500309510097208,-1.1837842310128972,-0.05025906273476419,-0.9556452758481421,0.3205564790300132,1.5062969418028884,-0.009645363097403006,0.1342099627854236,-0.043128948945534186,0.21467369068069148,-0.608032686537412,-0.11190468061950587,0.14541491096247744,0.1869169244550342,-0.0006700909088015877,-0.005194161633655353,-0.08434984570047391,-0.011644689639610201,-0.11306371595946428,0.03808025448741032,-0.0037934784745609295,-0.03815474216133319,-0.022871269860913097,-0.025799580942939944,0.012571311420099514,-0.08444066490658204,-0.04473823801812511,0.004511559752213643,0.07941956919964631,0.05274953606596054,-0.02916773491507083,-0.006047230339445796,0.03164290400118308,0.031097176434145297,0.03649783064215855,-0.04807440649854393,0.0043865089616441,0.0076273098663582,0.116457448809903,-0.04765068681851344,-0.050762610252362915,-0.04586326589945111,0.03024021696535086,-0.019507929107990037,-0.07939628532543404,0.05342156530566987,-0.0055782819549203,0.09437275744088902,0.0037450854428978412,0.0008110226616863531,0.011753613446466235,0.032502388151428835,0.05996818414950118,-0.0069430322304837675,0.06450419965684466,0.017173900444050913,-0.042958107236086285,0.006080635079056498,-0.07144898696584369,-0.08146268528296173,0.011857088511631067,0.009464226775029106,-0.13554334819301614,-0.05720690752965175
117.10784912109375,1.4709014892578125,-0.06400450762539014,0.02065424028132192,-0.01670060272621321,-0.02093612343769354,0.04787924051340543,-0.11186035478622973,-0.058405761080023065,0.03823719017726206,0.10371575809360051,-0.027028875267658636,-0.07306858179721244,-0.10994764074827823,-0.08903678040665129,-0.14796980881056,0.022394873250483574,0.6297825856016152,0.1236341843180861,-0.2392951619522551,-0.22349778340216425,0.7680142061092688,0.22684536293167823,-0.43716459383852446,-0.09911579438183224,0.05168238457889528,-0.24063505198047158,-0.09091533552971873,-0.07485520067131521,-0.12058050777113194,0.5002056756687282,-0.05207051589075971,0.10362282234487262,0.2729125552643359,0.13343487207238847,-0.16086792266656308,-0.09655024740642387,0.1694865927747011,-0.8180366171005954,-0.3031366295645375,-0.10988695463227052,0.019851442738694314,-0.31765233983845187,0.12803996023374392,0.1306193308903677,-0.36190327865344135,-1.58247426675747,-0.1336246714632342,-0.4268090594936147,-0.25275993395865437,-0.30569281273587373,-0.6185752228793061,-0.09658739002483317,0.16848523637100135,0.09553546300050667,-0.009143592831166121,0.10729747255073703,-0.032598169120251375,-0.056052203267696325,-0.05039868049145522,0.016402529329742836,0.09725185080126222,-0.027653693307017616,-0.02000396184776011,-0.013707321700446327,-0.00879939337825189,0.005108204068339792,0.0807755463173311,-0.09064421864670588,-0.0016338464142585203,-0.04782226360170909,-0.050032583253870416,-0.05419552061549783,0.08338190638040745,-0.0010734351406205276,0.07179761409484504,0.03831618393465087,0.11578077760086972,-0.024288280991971938,0.07963533067528861,0.03636655112576726,-0.02332898548025922,0.01750196955602086,-0.05803920759959039,0.0045706160969818735,0.02022543047241907,-0.03850779950712266,0.10052176566684529,-0.02445871775258908,-0.011709421737846252,0.05956329616985093,0.02131578671906806,0.033879166458645325,0.039423763881815656,-0.036482556758384785,0.028066928044404346,-0.03634303772761536,0.06797385760435282,-0.03800475290405217,0.045336687028771624,-0.014061594102137715,-0.011632729482710588
118.57875061035156,1.5004959106445312,-0.011827156994156929,0.07893953100864161,-0.008751860766976195,-0.1268939306075373,-0.04226334427916979,0.0006887345469072136,-0.11549678060328586,0.007231376686040963,0.04336378001641138,0.08859218206602432,1.115412963552693,0.09554558477896,0.03977171827440862,0.23273505925816354,0.637424392783419,0.08126177789836109,0.0557795666191422,-0.3656384773295386,0.5482059328108058,-0.570870021385248,-0.538945534733482,-0.8053627083144947,-0.47176650016152644,-0.5002818545828374,-0.008629666412989727,-1.1348078365255576,0.15709459846828291,-0.37511465034788716,-0.06788284137693865,-0.41812612501530483,-0.5751104198252974,-0.17931774952988364,0.1211185058946809,-1.5764074882909984,-0.2787466062941254,-0.7436379975354777,-2.461152146656276,0.1365719784955778,0.26650872352987176,-0.6370729863713762,-0.35564353700401996,-0.2945005406301238,0.5618226286176761,1.2771321093530978,-0.25090567308952627,1.331616395916822,1.12710256623625,-0.130476041795226,-0.2181455850274357,0.8952239676065741,-0.7142560552833378,-0.1090980062119487,-0.18886088821682914,0.11516362264789229,0.044521727656535545,0.006844672541103099,0.00843472919904377,0.04016366092710968,0.005539154225673942,-0.06363164391070285,0.03949551052353552,-0.0778802875951027,0.030422471934235737,0.03804962710825764,0.14843840403676384,-0.04906271475584221,0.11119109658765247,-0.0768784023293427,-0.01453286819893367,-0.040973502012189564,0.05062386905738008,0.04738164574445508,-0.06670242427448028,0.08673787846444893,0.08987576898703464,0.03334944870556685,-0.026873889876159355,-0.0984047073616869,-0.06345127989614738,0.04910597337455889,0.039882045322582445,-0.05776166164151641,-0.07060517956670544,-0.09062504401756642,0.007884192191499216,-0.032070394114128514,0.02938212207795051,-0.0607453369584658,-0.030637175332671757,-0.05113357469559227,0.02011983791311504,0.01629635750560731,0.025694880222395137,-0.032035408527926544,0.03818224130978294,-0.03327213766278546,-0.12234174256837281,0.03251791199718469,0.0310454482712583,0.03376855289325325
120.0792465209961,1.4814071655273438,0.028625010240500137,0.08240429785347489,0.08924750152459966,-0.10165323386070055,0.05581504160052082,0.09818048898543727,-0.08543801704193854,0.2098791635753621,0.020450082357221185,0.011729129580654828,-0.1966716519850043,0.3002833675657356,0.06515214476589744,0.5590610164810813,0.23365593901799114,0.5713772896037221,0.06581684963704777,-0.05917222669079111,-1.0177011781695648,0.10182890947228113,0.14354417296772184,0.017854400070472877,-0.45631909413456384,-0.04115967459797673,-0.4029964044925458,-1.4078828064778426,-0.528656548287909,-0.013922779168963277,-0.541029497529595,-0.4850601256464523,0.24070369706789832,-0.41085994040267665,-0.7411204623999155,-0.21247828137866892,-0.06174720200504626,-0.6252109457901626,0.1896687793636797,-0.18162103351109796,-0.24453377479910737,-0.050204726616580875,0.22154829131498632,-0.15820858344827476,0.3878133479927684,-0.2365343937101465,0.40039060736970317,-0.6795103198934053,-0.6253366965172446,0.35320991546006275,0.38108965011179935,-0.8078757233591997,0.37562801805051,-0.07748047206933129,-0.49669691558369633,0.8978309104991749,-0.4050015169729972,0.01923664942086166,-0.11836178170905419,-0.14216033695005803,0.2603108516983381,-0.04656662669687653,-0.05614799223471382,0.05850447562773975,0.012287904702636042,0.04267667342779481,-0.0078699565400067,0.047164932911517264,0.006508444812767649,0.043708084378720535,0.010728165120659813,-0.041577518085516595,0.01899833384426302,-0.12859822643973223,-0.011924476661082359,-0.10842352416598658,-0.019518655035424146,0.00041011189201888845,0.058517069056499685,0.12978203513246686,0.0830791865563818,-0.047771076939685575,-0.04965605367573549,-0.019967703359562244,0.0590507638361108,0.0704437625361618,-0.034913806943985055,0.031289035149389965,-0.06705795654505511,-0.1691934157333473,0.027680870044252254,0.03110637741055491,0.004600450646589148,-0.024020199320058257,0.03447554693569923,0.015095158685156226,-0.05594224977579642,-0.03101522217644176,-0.034188866634460344,-0.040937941123978756,0.058212329849117804,-0.023339125497059396
121.56065368652344,1.5604934692382812,-0.02677613618136157,0.15531312857479485,-0.12982340832398281,0.058601319139985036,0.031569180608636345,-0.011507376368786923,0.0704055162181837,0.1136565506078748,-0.047359429766483,0.06125476821035543,-0.06595316856727491,-0.023474425214837405,0.013714348610921284,0.04382978751067521,-0.008605571077881903,-0.039188722647327756,-0.017237383924178486,0.015995795727285003,-0.0018458521158565603,0.11213841764174892,0.04706928574229355,-0.07708925436649941,0.21054715335584182,0.16436289120632763,-0.16545363441786043,0.09828449983177122,0.13475174258869105,0.01799465817429072,-0.0964725346906465,0.3969483059684195,0.1254554912592503,0.46995947295032375,0.09941016634753011,0.8821229787500144,0.2109730709442943,0.4856120712297162,0.05998759596946457,-0.036164798416957245,0.17489460909281832,0.11935634375180126,-0.48927868617711234,-0.0853105513513654,-0.015252628932576097,2.7139109078685077,-0.2877333064580856,-1.7530597808598996,-1.9447362022501047,-0.9229730603022758,-1.2499693429948928,0.30455925421812413,1.1686929831358293,0.2232074464251678,-0.0306572855749973,-0.014850223973007032,0.036356621697338824,0.03830056101712884,-0.025907543446348668,0.12524694832520936,0.05365852328873718,0.08354708938472993,0.03800894855236226,0.02729481474983214,0.04923323382182049,0.004173946054362048,-0.08303450997020595,-0.0053911454686213335,0.017778609365014065,0.057823374390969226,-0.05428231192289344,-0.018940956236094243,-0.012820262288417258,-0.05586718560179739,-0.022475923044715254,0.07800808662984438,0.016124520663552588,-0.057535588756327694,-0.09979960138326603,0.02880445212879779,0.07152198117181555,-0.036163568416189236,-0.0006374121523042287,-0.027482427254978736,0.015401285748233351,0.01078492325910185,0.07575876591790799,-0.13306559043273383,-0.008196844156312116,-0.03360766548129705,-0.060414601083943906,-0.04053699936710136,-0.06660067507464962,-0.06821040689772956,0.10917243308685505,0.022393456110106652,-0.025135665050892073,0.03415543598365188,0.028117515376694605,-0.011341833091888597,0.041850080096146776,0.11745641039094824
123.12114715576172,1.4813003540039062,0.10834460447385676,0.002032444793258855,-0.04034049082874892,0.029593987708850283,-0.057971268559382706,0.04381600540904259,-0.2538222025842335,-0.06955184108747689,-0.00904594892156594,0.02847017998112364,0.03387061699838627,0.015908934850451768,-0.14484180460345625,-0.12408979364070453,0.06887383048898892,0.26478605708729436,0.05588619236152827,-0.03982565787511798,-0.10189548539962523,-0.5463493643043569,0.021318416581691972,0.016535096577275903,-0.028045728873831596,0.14214526853141649,0.0067483923482757995,-0.01105733603163788,-0.3359502756389573,-0.028627450355669916,-0.6469364341621515,0.06883251147673716,-0.028104580198687473,-0.008923239221147248,0.008309997988772723,0.2830284028626228,-0.34775883132295227,-0.2342132703368413,-0.17034441103510542,-0.09810815925483837,0.2552148405285504,-0.22397148963051117,-0.2968452294491113,0.19816344405440092,-0.5355897509543818,0.4997461242241605,0.09928309614588393,0.3539135282005378,-0.0812672736806998,-0.17368727067734865,0.7483563644476685,-0.7077914766878928,0.013903263476397278,0.19450169548275553,-0.4436391890771505,-0.04809700320304638,0.32378462496032234,-0.45048764342569886,0.022621438788334836,0.06710124697755843,0.019014588316604034,0.0972944436795552,-0.039392047472322535,0.020167672253944544,-0.08665243608753562,-0.04197166102108925,0.07655001950093089,0.11585595418019216,-0.1097313561554035,-0.06634888156825844,0.013616240463831402,0.04775731795059394,0.0019886244863124665,-0.052937294468959804,-0.07115482827567012,-0.004473749795601464,0.025072012814345887,0.04350166033036924,0.05105694412353883,-0.03576422402290225,-8.813058300297105e-05,0.0004651703636347113,-0.03620367930436695,-0.05625039208663388,-0.0368677024500141,-0.013936584632361512,-0.10184477066562822,0.18028179346204523,-0.02163144279046597,-0.22692624280798923,-0.025303569592787515,-0.02198078964792833,-0.003952767014997558,0.01648991216231803,0.003582019506212934,0.0027265998573782076,0.03718579257847907,0.029047294169208867,0.003158728242892218,0.03491072505943405,0.0074919988513558605,0.10501866164735384
124.60244750976562,1.4611053466796875,-0.043605254458602236,0.07550557827408913,0.044218416560942664,0.036256854055485406,-0.05934978357107699,0.12545970824189695,0.25460054162754037,-0.0015469652090033682,0.07243517227559766,0.009973063757031015,0.1944122939434848,-0.024658748681285515,-0.04368538358571519,-0.08869700443111518,-0.046838132310297695,0.14416082880841616,-0.014306476526071196,0.1089509900652906,0.004236780721802003,0.04359944761457771,-0.25234031875176843,0.041542385317562235,0.11367158594162435,0.019638374904338785,0.1220027515470748,-0.12280343789328073,0.05289920219826961,0.3148858642608017,0.09920203692545036,-0.1769834795826116,-0.16050499036344318,0.6363201546705531,0.7702602708570598,-0.0023638226837394433,0.07955869741928995,-0.9097722597275836,0.7182894411142957,0.029794482081058102,0.5248142262615529,0.494748200898616,-0.06924507796013334,-0.5621377196892607,-1.689135899792511,0.8185732930618707,0.7585775482755885,0.39893241472684804,-0.7426333146013415,0.1600322352614993,1.6240220165457497,0.02935944962324678,0.08374939345824273,-0.024689305123985122,1.1368328631335394,-0.10656473534028409,0.05223002393362373,0.007896643610934275,-0.0001962771799081361,-0.0775663431601179,0.0009285128702611483,0.0422748564313541,0.06403784439217139,0.028857583913059107,-0.036657606541126965,-0.11759608315693436,0.08627565795017769,0.03392802094938689,0.05655095563155631,-0.06739227805345688,0.0038513925804392036,-0.04021383242234816,0.010840626806426404,0.008035094505986325,0.031664563301459156,-0.03405398153944393,0.007091811570864987,0.07671430120297076,0.02174150222041327,0.002432068138365841,-0.14329888119999679,0.050120190048767,0.08443045597991997,0.026629969399693556,0.042468621062890295,0.08405067862999098,-0.19700043821157887,0.0657271813230744,0.027381849886473103,-0.040959944514820976,0.023943227400355815,-0.009694234884464446,-0.07296326173260509,0.06692570154365188,0.0746005540463025,0.043727522580478226,0.07500103921098082,-0.06650964949993107,-0.03783400640653381,-0.07390290353158988,-0.16979284919418183,-0.054372442101420115
126.06355285644531,1.450897216796875,-0.061866502943216994,-0.07493615674970108,-0.020845841475620977,-0.029702938189191314,0.08089385799169815,-0.011084598797679389,0.08339679907378755,-0.10229424222992953,0.002169152677438904,-0.12008640555725697,0.004807054371225694,0.06152447992187722,-0.0022182221244304717,0.14097269582022298,0.020146418339491448,0.07132472361329337,0.08165933435522299,0.14194012462653144,0.0016133353980460785,0.01325530502246083,-0.09552786541179328,-0.1206347705664079,0.1395277976553451,-0.028011041870820888,-0.016071372827080682,0.000423566157719277,-0.052943853744875556,-0.0361808483984709,0.057476655418978014,0.2372156973234499,-0.033803102745686,0.027404079082847168,0.11802491706025003,-0.2504784943376844,0.11088272634585276,-0.07173041449181464,-0.12753567584226322,0.39862576365600627,0.3082477417253346,0.026514977984992746,1.2059393401686578,0.381449973482866,-0.7433741411317566,-0.009107175408391663,-0.2959407664913504,-0.372114510173149,0.7364690276227788,-0.14574523473246825,-0.8307370008696373,0.10269440124583294,-0.12808961033221755,-0.07470160027377497,-0.17626487840075902,-0.08182863301342518,0.08745695008905073,0.014913075926354496,0.038685320240474066,-0.023339374383517537,0.04010068671008167,0.04907400055298476,0.04704941370998993,0.037174516709152165,0.052667070934620475,0.12258885577550274,-0.037727540453468704,0.013377655301748,-0.012505826422331423,0.09909782949936753,0.008664470960781412,0.01601198502702935,-0.004912093637535986,-0.01781876016203024,0.06345540079785819,0.060960843282563466,-0.09180067728811356,-0.011372367105222462,-0.08436432199965431,-0.003951411383379955,0.07631794293506096,-0.010418144042133317,0.015587701113084718,0.0386918445546674,0.005945619203564457,-0.03222532145435339,-0.24262796465001696,-0.011218210560438105,0.2287389314269569,0.0013965635534592125,0.035889890708370085,0.014625005475888426,-0.06693509118322198,0.053251367921170405,0.023203539369175553,-0.03923636626318355,0.08177535117715984,0.06696993018138882,0.04233478310001758,-0.06611533876532369,0.012664919639308412,-0.13083244117705994
127.51445007324219,1.4712982177734375,0.007995360100470097,-0.09547942718678008,-0.00022118920685587604,0.01765626342117986,-0.009929050716252366,-0.027633839817687317,-0.007550675328864899,-0.0041841247162554,0.039069221769697474,-0.020240599980479574,-0.006495335594219704,0.0999285436581428,0.0068375707118752465,0.0632055773660675,0.06869145564000213,4.062785940617264e-05,-0.06693359933767568,-0.011547579820726576,-0.05422414077849551,-0.10456616414071003,-0.10000635584265526,-0.02467031292300129,0.013675544391693037,0.04580858397750891,-0.05220525747842573,-0.04727540386967198,0.2945380623562785,0.023200367913926913,0.07345420787151175,-0.12660106465505255,0.021250563683456864,0.946352408703468,0.865736498197914,-0.0035996254576500255,-0.13304231250877877,-0.20228034241844903,-0.6801894921946079,-0.19149270509891644,0.09350739434968743,-0.5006669560282846,-1.2141549275174677,0.7937396429435424,1.0676308796632568,-0.021923319717469275,-0.18933598020912043,0.00546639484688588,-1.8408586551958273,-0.3653128518162662,0.10087344542589533,-0.027984249643393584,-0.025525142442003226,-0.005785637252711723,-0.262985591300282,0.019856122422107533,-0.003731858553593998,-0.03771900233760482,-0.029204468975908993,-0.04574197026398652,-0.02159864571269668,-0.02041447875027682,-0.05874032924933486,-0.045874186279531,-0.02212681790448663,-0.06850215876086756,-0.036780285125021586,-0.014473218369008847,-0.029732559190207442,-0.0015987029752470698,0.001961826956459193,0.015879679396503813,-0.05595537204595416,0.013418368274045585,-0.0025913401959278934,0.09054741701585982,0.11598968573675002,0.11803870220613732,-0.1134489258725509,-0.06390825622081103,0.12486758398235522,-0.06163141752371763,0.05644577072424568,-0.021084810873151907,-0.09334872657744347,-0.22505289763192446,-0.3789430570838458,0.03053312078281637,0.029936607321621563,-0.0219507128187276,-0.0757534122661171,0.017770170085548116,0.020369757893143367,0.08281771601927107,0.0606307858796543,0.10805473001907304,0.04235072713474015,0.08977391961500894,-0.03381130792410975,-0.014665663514240004,0.06402486061096839,0.10055648526600833
128.98574829101562,1.3805084228515625,-0.04388709935818019,0.14559882785224348,-0.0507301719615496,-0.02193800966001816,-0.07063994940882927,-0.1939583897231388,-0.3361718102026381,0.037594977011716824,0.17955170317262875,4.403092131045894e-05,0.15854821553351064,0.007737421668642087,0.08680184618503937,0.08874057809327922,0.11132581107916313,0.04748576493399008,0.0400921557934246,0.33757069728821343,0.2247417957329899,-0.16551649163888552,-0.2931630741508027,0.015611189379774487,0.35928188948036693,0.13473680511257619,0.338920492618101,0.6845907903158324,-0.14721336344855854,-0.8263894406415373,0.034132147991699974,-0.09594874877865481,-0.19223486125845346,0.09764885482539556,0.25473569929483286,-0.545042083719693,0.10168069985757203,0.23600946790768948,-0.6447201374214994,-0.1388028939373762,-0.4106211273795936,-0.15554602296442124,0.6251617573262421,-0.20691051119717105,-0.35698023847896415,-0.5746437218335083,-0.5484221343658425,0.11893393594256879,0.07304265489035464,0.06342439419198316,-0.14777945127260866,-0.013822424336238936,-0.05062444109045118,-0.024825241424732747,-0.028154679671228547,0.02471507427185444,0.06637658157467699,-0.0025465306606724586,0.012214552481878523,-0.010090474511314755,0.051452033235596245,-0.004377605434665813,0.0983694455449785,0.04634697938333311,0.0428975107382091,-0.07671825688658906,0.025567601461762398,-0.01976725911124337,-0.04714584214459861,-0.035661722467862485,-0.011807235258938625,0.05511845268963888,0.015166249960082062,-0.04090550655338385,-0.06372039877357072,0.005896730202000489,0.007393736944711252,0.06299381585173529,-0.009248938514011124,0.05780300288230471,-0.02146583672542864,-0.027589538057890377,0.007169821038554958,-0.06550718330355887,-0.03485989014065289,0.008509154095417611,0.022772493880657992,0.012138429788333738,0.05154830468361817,0.0014571331665849552,-0.08586553784855469,-0.06621998870421118,0.020281704855309918,-0.0313251735279233,0.00960839081989757,-0.02650302665180224,-0.044370703773425973,0.06262691389574329,0.12192496082920698,0.018644540371754496,-0.03471837252905076,0.0330590582338202
