start,duration,0,1,2,3,4,5,6,7,8,9,10,11,12,13,14,15,16,17,18,19,20,21,22,23,24,25,26,27,28,29,30,31,32,33,34,35,36,37,38,39,40,41,42,43,44,45,46,47,48,49,50,51,52,53,54,55,56,57,58,59,60,61,62,63,64,65,66,67,68,69,70,71,72,73,74,75,76,77,78,79,80,81,82,83,84,85,86,87,88,89,90,91,92,93,94,95,96,97,98,99
36.36774826049805,1.3583030700683594,0.05863193917814785,0.10943178959634643,0.019961136135646904,-0.11849148011968777,0.027723569896173455,0.15733219327775785,-0.0041283604944410334,-0.06041027170432774,0.08023902453897319,-0.08203785531457855,0.13802245498714316,-0.07390337639134252,-0.12985750253699843,-0.24289110831242638,-0.3693309302350409,-0.31135135201080694,-0.1407253210017796,0.1346338410557026,0.25758563726677103,-0.32942446329385844,-0.14126272779160257,0.01791319927817666,-0.08918171596117734,-0.06275678355854519,-0.03984652178521957,0.027081389541033604,-0.050069349135305974,0.01315006945672793,-0.061698325674666696,-0.03907683275655534,-0.05191876708029652,0.024283644637145406,-0.12210685034808377,0.08595651771391345,0.10980119612669384,-0.028504636879507415,-0.0474066707552857,-0.013084522660679568,-0.069924020299214,-0.14371564121166505,-0.08381887297741082,0.07477214294703351,-0.018842785393171926,0.008132311938356602,-0.12200747614249631,-0.2886112678660529,0.0055321420734886495,0.25100060239148286,0.12243936970035327,0.1039429969279239,-0.23118551539213705,-0.004379619964907114,0.012423785487211347,-0.050099064614828125,-0.4812309521147061,-0.06202425062944334,-0.17148889903625542,0.050914385154448426,0.13713062583738872,0.05550035684444579,-0.04704952581908429,-0.0632768703002779,-0.010861224598646031,-0.001326152595256903,-0.019792332565582146,0.02718246157593357,0.06314417739118164,-0.032801332522610464,-0.007980322339207539,-0.004539166496098452,-0.026841953714957106,0.010624343934076956,-0.023825593128244567,-0.05815012099307347,0.050792152336343155,-0.037795620948236214,0.012368856287029259,-0.05465248928482512,-0.039929623465910155,0.05608424160633895,-0.05702493133348431,-0.001263931253794049,0.019790701943546707,-0.0018403650810775848,0.041387392412358615,-0.006821864273801735,0.012441669753652865,0.07568643647227377,0.02004749259975864,0.0009071249526224599,-0.0024885962697227004,-0.008535379718811131,0.0956292563081206,-0.0009573793092494498,-0.001974394842477751,-0.02303767566648624,0.06919098474846416,0.08023770667206437,-0.01639565645357782,-0.01319089463199237
37.726051330566406,1.3288993835449219,0.009836750456751442,-0.17682207593323415,-0.068298370123024,-0.12879184469208899,0.03321755088540379,0.11739934383615237,-0.007936406220962512,-0.08342545220861454,0.34556487655848966,0.2526621759915204,-0.22208854971777006,-0.15521411339315708,-0.24943402854580143,0.17107058261298952,0.16246629523745643,-0.032125493701497185,0.19438430073215082,0.7048097939937349,0.17147446405567573,-0.036266942218723223,-0.01402495519654498,0.04176355223748802,0.13396260368697452,-0.025495170813266545,-0.020435184039308465,-0.19114584794127262,-0.05116168910586376,0.14190467157529657,-0.06399921547561649,-0.010614068550931888,-0.016188167348975116,0.12845731952336292,0.17585856139814332,0.010637840266469904,-0.09386181753879685,0.07858395041559435,0.19994909445846107,0.272106035752723,0.028673947707012357,-0.04100751951081612,-0.11174540102927076,0.2706662081591661,0.06570729386203414,0.05368662938788727,0.10877150975596353,0.20767375191585707,0.03432446083841324,0.19904075242017807,-0.19391659223387014,-0.231193326528184,-0.2745213340213773,0.35875818140410143,0.02893471906711694,-0.06887698278430074,0.07836860697617412,-0.05380974430028587,-0.3224568247268694,-0.18158698958599648,0.0006577605507620769,-0.12781210267664048,-0.2890163782421684,-0.05833937580214903,0.33247903312218047,0.003899893026779934,0.0827347157313913,-0.0005435573889258358,-0.008316656518576646,-0.025355453261402507,0.006914504094294373,-0.005133460178332989,-0.05484106206599791,-0.0012902798674062131,-0.06504020915507738,-0.05754020743445044,-0.05920682321330274,-0.057293888065218776,-0.03128498919574299,-0.06474040673108723,0.04896208350088241,-0.06561243146946379,0.007805572305098896,0.027232327682474723,-0.004526832592790461,-0.004926519918506174,-0.024152718547587673,0.015371740140531717,0.02034996567680361,-0.006485145730943807,-0.002466800743319269,-0.005205734982935103,-0.0077141842916229044,0.13304468728467805,0.039431823046031,0.01673994361831102,0.013034846564349408,-0.024149412221107686,-0.10837389797869586,0.019701742328363674,-0.07510842124672391,-0.024346387169821793
39.05495071411133,1.3079986572265625,-0.01759156433103591,0.09665099829414876,0.16801659048907203,-0.031245974141092217,-0.003639168632070114,-0.27806058573853215,-0.05689759340386178,-0.02964649329219347,0.07261998102813629,-0.08466636770439608,0.14639253590695558,0.2081002718242487,-0.31858043542227255,0.041933198270653546,0.18734173113554342,0.09079244170415521,-0.019842129916472023,0.05200728063989231,-0.006491874865962942,-0.07450182983530428,-0.13483065549812176,0.10086239713906694,0.1481151057925436,-0.06041252302273443,0.07122075474189768,-0.08763373694260175,-0.010611808554594579,0.02322487541975843,0.05064589887930202,0.04673760698565136,0.004007402689255313,-0.004609259109334329,-0.0768406935954193,0.02144364382962454,-0.025373921529868615,0.05592365771596092,0.13130652220954514,-0.06288218546898493,0.02100588340929678,0.1259751222269777,-0.00886100022988837,-0.030044596235621213,0.2001595123800614,0.029209055457927777,-0.21539266812670568,-0.2238207314538846,-0.0031360269488814735,0.34219973161148465,-0.00357484006728972,0.07392395953445843,0.11431173163442443,0.010161342363792403,0.12812447388484005,0.20298024139058182,0.2556428772864964,-0.023076110346790184,-0.2094541783917958,0.09704815617334814,-0.09225158043724258,0.04359349989264791,0.08085550906618313,-0.1686158672046438,-0.020771440856521706,0.13405659485284085,-0.030448670386878977,-0.001338482791431997,-0.013882188065358247,0.003659864629774124,-0.000650626610547253,-0.028329690523334592,-0.004644203582447269,-0.04985429242951874,-0.04468963372900867,0.04058554333702739,0.051027078173163064,0.032406624600875705,-0.014838095588663598,-0.011700197619942725,-0.05030801068163934,-0.004644418016864758,-0.033508942624228544,-0.022977895825810044,-0.0008112264755713063,0.008384876346435725,-0.022371153846010978,-0.04702560071334614,0.002870051881712176,0.0007586809358043367,8.594592737142407e-05,-0.0011213210672017843,-0.021785656521982152,-0.0029777400967474473,-0.019021818652655738,-0.0836515174245001,-0.07312803441198086,-0.07240962013679604,0.04555020300146267,0.07492982221939194,-0.024675469132004683,-0.03955107164717597
40.36294937133789,1.3291015625,-0.05126093116335139,0.03027803279873202,0.15322744803869023,0.06717356988335052,-0.17229727464070113,0.08812527767374878,-0.31781496047514074,-0.31492604740344393,0.14965813830207125,-0.12631625571245336,0.10711113843727088,0.41622004312717753,0.35450670467117185,-0.5234495842137811,0.08191708581061605,-0.02490250295958718,-0.11034010468665204,0.027103263941740882,0.08313766223658677,0.02157256777916565,-0.31343373843744654,-0.14087975554886636,-0.01633370329123447,0.001700406627006143,-0.14850017462894338,0.06500267234863016,0.13287097196596453,0.1164338531799678,-0.06484571364664095,-0.012286004161459002,0.01015167351589337,-0.0682072243921905,0.07673051535120698,0.13706150923125723,-0.05633401050832214,0.007033821975249934,-0.08866767282371346,0.051675463477972715,-0.07220518666400154,0.04177194569691933,-0.022472200880317775,-0.036258522278914636,0.020301603618447208,-0.296302645528689,-0.10650262976319239,0.13868177071120774,0.11949830610339485,-0.11516915749419489,0.042241957472667235,0.11818190866322623,0.16887530705994533,-0.15102046354648377,-0.14393710228814466,0.010271863328301267,0.07883063770012456,-0.211994545652288,-0.30406342934840613,0.005802508024259301,0.05667002499877987,-0.10284276100064058,-0.003042452057354844,0.06937544733640097,-0.03768566374423855,-0.11102186208907344,0.19218844859724607,0.010476521284178395,-0.02409151374591992,0.0008433093442540498,0.06728526966443746,0.10144108551124514,-0.007144360186928881,-0.03789139114217925,0.012583271870391242,-0.03424203733377126,0.05113616472461284,0.007557645976785412,-0.029684509041638177,0.03445230056034293,0.027766335997166283,0.0038433593613707503,-0.023124793712677314,-0.06333636581862441,0.03607188534810915,0.025798767592023944,0.006214823666788452,0.02749933716473498,-0.023868965469772702,-0.03791269677343632,0.008722404221782908,0.003068982554516397,0.015644749010947374,-0.032696172619153085,-0.05222042268566958,-0.018149706045842543,0.01718213393334604,-0.08471711250014782,0.014543443057394856,0.13592062594216306,-0.04177476613794416,0.009075097616349464
41.69205093383789,1.29840087890625,0.005789703979053467,-0.0004266210362042361,0.02175572200181558,-0.09718687614248184,0.03352323442378479,-0.015872564576983543,-0.013568965752839363,0.025897752607225134,-0.16579809991660283,-0.33871246805139843,-0.4132144093125067,-0.06438537755667334,0.19707542710746723,0.23027714256402898,-0.06663886049894398,-0.19693622436320196,-0.06892927671219216,0.10534850148488611,-0.13349955822044957,0.14599953523200226,0.04369344792202058,0.11965472041003145,0.08578875663444098,-0.059505411077048986,-0.060800197271693626,0.11884133424658512,-0.011552658587854175,-0.06468482251068816,-0.06589386176563898,-0.03430396555537382,0.014226389130769507,-0.09401982006021056,-0.01077563592143406,0.06870470160732015,0.0012946793418300503,0.0019458066922370771,0.08424686703299095,-0.09647728173907397,-0.09755215623505671,0.016153302244692924,0.10183613285387652,0.10635650351929024,-0.05171116831472513,0.17108623623010222,0.1941189946722407,0.27568130443329025,-0.023968022469682694,0.16542124779704515,0.15432209230450297,0.2597253830228354,0.00012640072336499164,0.23270654379191413,0.04804866156434903,0.05687425528449623,0.21227396865499795,-0.11854649198037268,-0.05758787713697113,0.18901321123916592,0.05498839867659888,-0.018645670755085005,-0.001556410493998836,0.0519215862958104,-0.03458359506944586,0.028914410795737283,0.19845647365167102,-0.014481138897953074,-0.05910411369602557,-0.027803972679097653,-0.025174794840594553,-0.012635868350470066,-0.013365912019390275,-0.024792675509831344,0.03806930518923286,0.02169623141240739,0.038788292452629165,0.022421301696675937,0.04041566007531164,-0.04872927554460646,0.01563878861744221,-0.0069834713561385394,-0.06101184541822385,0.054141338623466866,-0.00037472203215907995,0.07898318423794656,-0.07217138926816094,-0.026621448188000472,-0.005743579049684403,0.0387105470893262,0.09305161372628738,-0.022497550625355283,-0.002621298466065845,0.04223272360284812,-0.04432146654453376,-0.02104797563233252,-0.07139880979802452,0.038405035015629,-0.026717385330342402,-0.10393471837302892,0.13417790205872848,0.03779407726038156
42.99045181274414,1.2682991027832031,0.039525981797305876,-0.020010159513499014,0.15870683801426796,0.3291597942959826,0.08650076237827227,-0.34928954438615434,0.07977496435619041,0.22447151751350863,0.0990984792021814,0.0018296085408766455,-0.2682697399481956,0.1022800330361773,-0.07014170294609275,0.46068754707871606,0.18276845438387646,-0.03364223546966276,-0.039980111287427046,0.039559301808177856,-0.0146311641392185,-0.16717734000350304,0.0015815213152774316,-0.211704072221457,-0.13043372061280464,0.004582454668032907,0.029490537260189992,0.059948503311992474,0.07967494878254866,0.03171840417570459,0.012430035869780082,0.10824986930296011,0.01847876220556421,0.049029765645578004,-0.05603150015995503,0.03580164873481581,0.03093407621620011,-0.02835504873916519,0.03443540457083395,-0.022053511382612308,-0.04830520057693285,0.10171373477367893,-0.17953581096710397,0.06765503287151443,0.07340398563003683,-0.07158934555522084,-0.10651831781518825,-0.04875988100380835,-0.29784319712914337,0.0033306669894016894,-0.024917814394933204,0.1670970670752271,0.23850437261241966,-0.26875842196157046,-0.10032164052679513,0.06683963703118487,0.32874693686618794,0.6224944190403146,-0.2925258438434357,-0.20781941602488024,0.05560910895236681,-0.015811949231498867,0.17879279916051943,0.37639570242907006,0.1161651622569969,-0.0680498245562905,-0.122909468165602,-0.017521500816511385,-0.00016246622909310538,-0.003909631990635804,0.07599761745275607,0.032561229941199615,-0.09385449608680509,-0.030814649899492244,-0.08336712763964844,-0.011262005915509419,-0.0993994560393233,0.004531139831411929,0.07944398363220702,-0.004751175482375918,-0.027505332721270183,-0.00044009101455859027,-0.0037070090336696524,-0.05566273400003595,0.032022015179106494,-0.09344842481367542,-0.08280578918346167,-0.02377975736516399,-0.06891179824275143,0.052860633327534746,-0.044633101881886614,-0.011261437538988978,0.01659775980074659,-0.015238631251332763,0.0084343212701222,0.03356758488490025,-0.04074576944858433,0.03341552974373078,0.06097993648640225,-0.095585562549408,0.02942996772950126,0.14775885538713082
47.97434997558594,1.2985000610351562,0.17978121230170094,0.003521897859264847,0.052755643999595106,-0.17365037488315865,-0.03254958982685306,0.26475742964143545,0.18072703196577278,-0.0646613737549397,-0.19075869207913543,-0.12776968425369709,-0.1550737787235984,-0.2200656306123786,0.022439299215946937,0.19502908851953732,0.20566080196004816,-0.13653300138274008,-0.046946383541994326,0.1208808160811799,-0.003435447557080238,-0.04979203931091969,-0.16239356024914262,-0.05887921636494374,-0.04499917697709168,0.15428095102407385,0.24791613811696217,-0.03259615574902398,-0.12253548173264964,-0.24048100870911523,-0.03850584781471486,0.007631978532614389,-0.006754604081660453,-0.01693337773385498,0.030009070560865932,-0.02594315451916188,-0.0332673118805286,-0.00940467090493059,-0.09830637808732509,-0.077215873121601,0.07163599851082632,0.10624449540859843,0.03190613431185287,0.011263579818825774,0.0995050297543331,-0.08221130623776292,0.016957099751149538,-0.06024064829399574,-0.17549179959055286,-0.24820345330447596,-0.1791225537736867,0.32078786004842796,0.3943803659270931,-0.4013400419583218,-0.08027154754240468,0.3133060798171344,0.0004991418903056489,-0.01217903710259452,0.002271740677558611,-0.032337093244785745,0.02930897085626769,-0.022932914451941788,0.04691458977023869,-0.008606705253952584,0.045301836125679666,0.021991184667052313,-0.04876281025263653,-0.017512898095643815,-0.028658004607376646,-0.0021688862467090873,-0.06492601321016384,-0.005341059513857807,-0.013067618283703883,0.047454643038553825,0.019360964306275666,-0.011134273852032554,0.01779386787246159,0.00843143229998983,-0.030740117624898082,0.008937572306599143,-0.001033414006808076,-0.037984168222333234,-0.0018242246705837584,0.0012759657413745512,0.030517581145586663,0.011954627839221486,0.0016046579152143342,0.10511030513852729,-0.0010419085453504096,-0.04200914112696632,-0.007663789266684686,0.00047757547801489475,-0.030343036884764845,0.008692838778617524,-0.028773982040603902,-0.009834008435469947,0.14418677953040188,-0.06290507158557843,0.0015892683878641171,-0.04196649517457979,0.10096471633989822,0.01645752511526377
49.272850036621094,1.2891006469726562,-0.13263456766694096,-0.10914135723326465,0.060055799315581304,-0.24437655537585062,0.01999644932487648,-0.01110978766117398,-0.11486174286605376,0.23903305152064397,0.08572101949710588,0.46404025268101534,-0.40060139628858776,-0.21467908202821256,-0.09009036149771193,-0.40292972868815846,-0.2807691990922989,-0.11806906707170611,-0.29256424106027207,-0.2666403129062505,0.07238930871394782,0.20117493939215303,-0.06080739914976735,-0.08441875265346734,0.04669001135158811,0.2896000858736511,-0.10140405619412536,-0.30378398729009004,-0.014536592081062009,0.010065957010011908,-0.09124467269381553,0.05329821934870086,0.0676428431450146,0.0923580066314211,-0.13809485071473832,-0.0645617215840778,0.12245049834814378,-0.1601682869524483,-0.10048038762963005,-0.004586125418407659,0.25712936417391646,-0.17723846740464722,-0.12577471983516375,-0.08106656499339039,-0.2346060958966689,0.13199071002792656,-0.07224306850520756,-0.4944783076198021,-0.1569197063830915,0.03433907294426576,-0.06835750830146468,0.07978572006725154,0.3039738568399586,0.07590955338290092,0.02714434941096632,-0.12497899127669057,-0.039948491510928934,0.0611576599994233,-0.10076175921394333,0.0322500187206703,0.015781277760332155,0.18882829675907672,0.38993896832010133,-0.11149001202560707,-0.05971644448749505,0.025760991611351463,0.027566223462482286,-0.010911328178616765,0.045502172374937686,0.013727738419806443,0.00583497900552994,0.019366969856055922,0.0022895907689236984,0.02381549809506519,-0.02727142439094667,-0.014200052017138379,0.005458826593058545,0.013902361933479037,0.0027588534154113255,-0.0006096519605769007,-0.00690241772440255,-0.06697422521019705,-0.04178002072007185,-0.03254560549643751,0.03431291358141404,0.019018261970514535,-0.012807818836264815,0.024060105874683418,-0.001567646300527664,0.028952326370756773,0.024191126110109894,0.010334188994485549,0.003444770689269308,-0.10483978837760212,-0.06795233381308621,-0.0015344142002637394,0.10811682078780452,0.026918452403613312,0.13392460139639373,0.06134912398063366,0.14061313914577925,0.05667184520782129
50.56195068359375,1.2884979248046875,0.20575882004449314,0.07579826811499077,-0.08195744603680491,-0.1802460661149111,-0.2199538100002661,0.17120191554316144,0.23952471801301425,0.089221766317073,-0.8623517863660438,-0.6462395443911362,0.1758453376476068,0.08209146315602257,-0.0522728078974864,-0.38213882411280503,-0.2689207433187005,-0.10129708695507163,0.003442966680585236,0.09228140682348544,-0.11647338884593515,0.10211471748115218,-0.01492658289617839,0.10678257072909841,-0.07492865334467848,-0.20968218315914272,-0.06304914689762664,0.0025557311769525155,-0.025091747768272707,-0.14562464179816334,0.036231846806481637,-0.00018635617237365305,0.10803276763273943,0.08613783256795475,0.16007911486285079,0.07082081025003611,-0.056688577530728514,0.07712465201722858,0.13325808715083792,-0.4175367108367042,-0.03882925205798718,-0.1959228249105912,-0.05009191615735686,-0.1010131836580834,0.027590544702972536,0.1803428812178346,-0.08471460929562244,0.12947915156310616,-0.2313589753273459,-0.19163779271875492,0.23976787246628584,0.28547484662878164,0.07115229671315676,-0.039481979001106476,-0.036679071785600606,0.1056643279703742,0.11657355217599266,0.20647688805505557,-0.21705741840399417,-0.21899848084996615,-0.011138009742705,0.1220944444439748,-0.0758678968187051,-0.04011486347537989,0.014051657113947333,-0.025158871745318147,-0.03640479408651594,0.0024779722838719352,0.07667220053883574,0.04513404732236925,-0.006934427165640341,-0.017905179105024566,0.09423921163914685,0.007758367075148094,-0.00930861152318562,-0.028816027636277317,0.002762051177456149,0.009868831166305719,0.08258597457648345,0.05910321702939661,0.021240768797412605,0.010961782748755599,0.09855652398761641,-0.009625691461792272,0.11231367447558212,0.026777995862635372,0.03034568644094293,0.03147102607425951,0.00586074312156736,-0.07708880611238003,0.00790488988125465,0.008675079614364315,-0.001665623127383972,0.03008093766325597,0.024995635505931972,-0.04777682880581413,0.029517511052394068,-0.03623866146654292,0.014869523975790885,0.04951815565126305,-0.04609604120960375,0.002801761543385812
51.85044860839844,1.2882003784179688,0.009123452677637225,-0.09206086215138819,0.09884714379489855,-0.1605441490572205,-0.14161108840531966,-0.014708191238048526,-0.019043373081285567,0.12655285592119195,-0.06176346866939101,0.1787273996082106,0.09402862661898324,-0.17135138029977837,0.23586449376443938,-0.11869374178445655,-0.06959804163848625,-0.191601618606965,-0.052158379304851045,0.09409437894555675,0.10734175670486146,-0.11728671037016078,-0.005330357067306788,-0.056376210769504484,-0.05965457436877222,-0.0011853588259998357,0.09965792524109085,0.10006542748219702,0.10376942687575101,-0.02369131616896211,0.11117037931124328,0.11572368459622694,0.028642622755711306,-0.018571307501951476,-0.0787741808010305,-0.014337440749658783,0.13080524828869577,-0.047220572156626,0.02227417122955729,-0.18177467536251973,-0.1780936235739135,-0.048038725869412296,-0.08066171487867176,0.03052406822381884,0.375625689170028,0.7915397590776345,0.1473430852366564,-0.21385237332615198,-0.06058240424876616,-0.10627891477501014,-0.05604904068286198,-0.06237462520954834,-0.21085453511120508,0.13594792466987576,0.16348932602488767,-0.1396064093420556,0.008693199034135842,-0.1277455218347608,-0.06820707803972091,0.14690516206979057,-0.08899997345771736,-0.06618468617853171,0.06466980707959727,0.019141321524326724,0.06766575654498136,-0.06904632787754322,0.02345789315519039,0.0069978723463723705,-0.005093829269672248,-0.00434281656717052,-0.01367024826754766,0.03213776227849876,-0.04561378728851649,-0.02896347619783524,0.0013113171594795433,0.039672873364552934,-0.0267165834048188,-0.06194775092479815,-0.02860111501239104,-0.03831396841936774,0.06859627137969997,0.006952810102662049,-0.0084576192055203,-0.007221305122820964,0.007364834218574078,0.016044603468058985,-0.03328028367289296,0.0735945389140635,0.041208286783333235,0.007857752319689682,-0.000904188426644296,0.06514181344208911,-0.011336107110991846,-0.04638362089006734,0.05771721140436748,0.059684497112686204,-7.636580239944301e-05,-0.08148752493854809,-0.0002718625287953455,-0.050814626045447696,0.04898420514370032,0.16862765455415954
53.138648986816406,1.3686027526855469,0.15622630171209745,0.03265019065190192,0.009213143758519698,-0.06468568685934448,0.14666284694122023,-0.14956620604188986,-0.1815820724154249,-0.12468473309018842,-0.15905965759466514,-0.011999629295075719,-0.10979738315004935,-0.44568991917163875,-0.14865778974888763,-0.30799109944360364,-0.07880065793140256,-0.0862142013959152,-0.039308309064917765,-0.2318622942086661,0.15706118276637449,0.04310060929371149,0.07335346858998743,-0.007349866249908754,-0.0034965649710541847,-0.04381296481590716,-0.033407836918949704,0.05581303162109629,-0.016286385145787667,-0.1489720696437234,0.0200379439460898,0.025981035585784934,0.021797608480429526,0.000597266850216163,-0.09908267251511309,-0.06936554008123161,0.006684135009359494,-0.08429615976853544,0.057177201492337806,0.2365376270993985,0.12172216662047532,-0.11113105318362582,0.08322353259070518,0.041182570062389415,0.0024111129845437807,-0.2122991982600561,-0.24949369559430723,0.11367131697239527,0.14842347670206496,-0.1444987798573443,-0.0544678100569532,0.2213626392297497,-0.05957732376013236,-0.05678563537268298,0.05118067086530082,-0.04736344524536643,0.055064343860936706,0.14873505989984215,0.023433112193326815,0.47038960253546613,-0.00804916473476916,-0.053120553916158296,-0.11483938943306383,0.08517283327270408,-0.017427006797348016,-0.01932481765171829,0.0044090532132737125,0.08642641035789654,-0.03385249534292434,-0.0032441184437205788,0.02343679843152949,-0.0482680185456469,-0.05174251960688007,0.010106417829468887,0.015218814563416075,0.04201007084620083,0.05061303920046143,0.05408917253335081,-0.010681639777153867,-0.014811366647603331,0.004940914669902993,-0.0013530078030900158,0.001228358074667558,-0.003100661144876257,-0.0029952803917577975,0.0003685721880526384,0.10810496858101683,-0.011443635854746555,-0.039271421072000004,-0.08940841492305865,0.009535732078349015,-0.0007079196673332156,-0.012099746595886637,-0.0002834529519988717,0.03692273793417302,0.05579335941782898,0.04754702909608153,-0.1343838081459502,-0.05078843710661769,0.04470395099299224,0.0006686651564079913,0.00018292776101205008
54.50725173950195,1.5281982421875,0.00504642702765233,-0.060917470375013265,0.07324884346163058,0.17526885390576372,0.18614967579617953,-0.09860358834082308,0.10495015504660611,0.2668562416404241,0.19899992978349987,0.45257081921923425,-0.08138086417032143,0.11430295088912673,0.27448867957472856,-0.1391625936613548,-0.23561212246225416,-0.228629882855599,0.17923082744951957,0.2581210527418851,0.1434749802809282,-0.09781814818958115,0.014820582369670307,0.025604316625022286,-0.021052712422029815,0.000322163678016657,-0.142313297825136,0.19525130961744366,-0.010352099805839288,0.00169710068616104,-0.014085118426862333,-0.07378368546884724,-0.012505489312015627,0.02699301255610273,-0.09241007769664863,0.059243217522355965,0.1962237973204288,0.05235087521362646,-0.018413687983350857,0.12190758893530634,-0.050732422768974036,0.015164727363876243,-0.017712187763642983,-0.08421046819578308,0.05810134734298116,0.21512825618652706,0.048561937320321824,0.10968252019607419,0.15115965169918183,0.2201678586167999,-0.07075841528117942,0.09098486014746925,-0.11434878695300806,0.03528929352628454,0.142964155168033,0.29827131161090453,-0.15950218495481716,-0.16336253219742927,-0.019967376537011028,-0.03745666541859807,0.0315699726610031,-0.012836420216861006,0.018490310997033382,0.010911672464043178,-0.1063405769139984,-0.09095743987142108,0.033035736121040694,-0.008521054852579372,0.01605681650377422,0.003087229517037289,0.04353266127227603,0.03722536114377995,-0.0003025814576761603,0.012036457263140725,-0.0021841785306864732,0.0017408769684414767,0.08186944217464764,-0.03147085781090735,-0.03726903850032091,-0.024570631104618226,-0.009847602029391323,-0.0004197782797029615,0.03683609652203546,-0.0037566259111835687,0.042511949039814936,0.004058229327713465,-0.01284904023041987,0.025910998155562276,-0.0006659572309993109,-0.031247439058406386,-0.01660742658529416,0.03188673737346115,0.0007175994113279197,0.028610997275378754,0.09650461138595343,0.025860635668871947,0.11757365499047986,-0.04936949714191129,0.017505228825936775,-0.010807517236313374,-0.007213257273552896,0.03215597718430236
58.79264831542969,1.2884025573730469,0.0780693424544498,0.10138278144395024,0.07625739397650658,0.014560192408386859,0.1137996408498784,-0.051769506390560785,0.030881257883405122,0.02879440145307739,0.0444217906769723,-0.20333715577386768,-0.3482350759226386,-0.055869524938276974,-0.22392066110886988,-0.17250219698035718,-0.08409808008528355,-0.035254034067045276,0.02235747987477907,0.11379777957272451,-0.037427833135297316,-0.05382994864010857,0.139332014876365,-0.023161971276281133,-0.15113334542803658,0.05650859764477264,-0.025104162897545065,-0.007993604766546213,0.04769854697776281,0.010411355019735197,0.005765959922959211,-0.007551514110549601,-0.016635441695693184,0.021324136592012224,0.0021020999473420226,-0.014721749525427704,-0.013836539540534225,-0.02832921283978419,0.07058109918485883,0.04895335721194725,0.033084295281833945,0.037886286691718896,0.04621988737212552,0.09096966951933985,0.02476575337482432,-0.17813902574629958,-0.062463619353750936,0.017767862852420213,-0.09940190716001253,-0.05219833882113146,-0.17055127063014636,0.05218849943429856,0.4851545802809004,0.2973135632892063,0.12686317623571086,0.09766958530310367,0.3275612099644492,0.04916260167105636,-0.05963396344496906,0.036269426564020255,0.046336762709631926,-0.11159609803572865,0.11501930626980271,0.04133363778517559,-0.0696130652467123,-0.006335819380210068,-0.03167164087979957,0.10069512655723462,0.041601994147804675,0.01999252624172561,0.012189845810987844,-0.0019449403384823706,-0.006947103824506777,-0.08264905779714755,0.03109826891199166,0.012216399554936605,-0.014240208007677271,0.014984985876325853,0.0029629621085150307,-0.05076035751092517,-0.0002603955263899361,0.05214257353624367,0.05713287110414296,0.05209804268730275,0.048945239097473836,-0.007046901800235171,0.0033710254665420196,0.03414831356269505,-0.013802701048810675,0.010335976421859,0.08658251199120282,0.005768081098396449,-0.11655214650156738,0.0376638802818792,-0.060520351449188006,-0.06341018705008594,0.05100011980313098,0.15550460425659568,0.039385523413139764,-0.03596717655943446,0.040636614946467156,-0.06800419663294854
60.081050872802734,1.2485008239746094,0.08521070092611432,-0.08644310870747456,0.0016507688491235219,-0.04264352749354447,-0.11132741962144982,0.13891858396697526,-0.14023705615987075,-0.13826025781757567,0.08479898161429893,0.318676268803778,0.015896836581178155,-0.07676166492951858,0.19970950741449148,0.4380193302365876,0.3737674478909759,0.009579752115559163,0.009476753278713737,0.02173969576169668,0.0003600181320750982,0.01557546939509791,-0.025385161822082548,0.0764433981164173,-0.037492214848703076,-0.002861838981828016,-0.00768215900621964,0.11070406661613655,-0.017229444621963068,-0.10629947347223301,-0.027119840196357416,-0.004472560516383558,0.028292041381567355,-0.00839890600858526,-0.04691868367058548,-0.10362835278964946,-0.07604950678992277,0.007834641670995741,0.07683051776193123,0.01013422440429355,-0.01673001893309159,0.004233539421449275,0.05546791344978044,0.1660801444817163,0.02153529857698322,-0.11268139543666403,0.04514086430443864,0.15556726560565828,0.04517016928553347,-0.11443540958586468,0.044550835519570064,0.23827469016815478,-0.02964757766991677,-0.06683800305634276,-0.141168505193823,-0.22702365740531255,-0.08911291150011291,0.22889353288788733,-0.02931329495450786,-0.24138426487577927,-0.11252192949628487,0.033024864607005815,-0.09594207793562173,-0.24549085283867061,0.06490609497049162,0.002420978526894724,-0.11196273689619035,-0.0005958849313702751,-0.09709473633068333,-0.0648600888522088,-0.0019391728164764631,0.053377197886251955,-0.06519239508409222,0.007760390896246321,-0.007910934228599358,0.016004750295604983,-0.039100397878748666,0.059413691908990485,-0.02223261465257144,-0.007555707846994419,0.0006793180933657865,0.05749156694840031,-0.09096272202633257,0.06497437950262273,-0.11107359000471359,-0.0054202689545817155,0.07945538577184852,-0.002867392533735076,-0.0016213392585866099,-0.01569527970031685,-0.015990562048055892,0.002200125750685577,-0.06403070634517348,-0.07462373757667567,-0.05205155592636045,-0.06504711881207847,-0.048514978772765435,-0.014040544010658977,0.08887295364763083,-0.11815618004530488,-0.07189885130826142,0.0587813233733647
61.329551696777344,1.2287979125976562,0.06812755409348896,0.11293365300374497,-0.020117774074636215,-0.03714129219200607,-0.02639729722097287,-0.0024698005010762164,0.011635836396440807,0.018561181160946762,0.06707429065130081,0.06323399143810352,-0.2916331204244348,-0.4316044997022891,-0.29420010646023964,0.09714445455171121,0.031481001331849945,0.11169668416166234,0.09232612424027756,0.20774214927209397,0.012775158494873907,0.014886537678023469,0.012448250696099188,0.019642744756676798,0.060462783208138776,-0.14415085753312315,-0.05327798891043933,0.10117921071695295,0.00016772103311956527,-0.03992711287012769,0.009093473030509901,-0.018724837746909275,-0.003665532699773569,-0.07234994243463433,0.09864982898605786,-0.006029471629424132,0.040933297419442516,-0.061811170827925574,0.06366990019433885,0.02288568282284341,-0.04532473689331804,-0.0020944076448674333,-0.052069295051147275,0.10516615978818192,0.08214874378827017,-0.023598674438450096,-0.09086126614563579,-0.09995061198008649,0.14805078877758351,-0.16612981456674453,0.048710954878514644,0.19417723077569402,-0.0014483031382871844,-0.2119824652848798,-0.14949885286971734,0.022635591452171908,-0.09120965761883175,-0.1631934216705047,-0.2307389709737067,-0.013887645996281296,-0.03848764090180152,0.015161523658789757,-0.03891230980631041,0.01618705561923659,0.0330815273551331,0.03676325203404951,0.009238752408113702,0.04864629984617606,-0.0036425223785549543,0.00207897414216601,0.004933500594340196,0.059545937273971845,0.08340012694692148,0.06471778799950018,-0.07013012012560423,-0.021018787598406537,-0.010316546510098177,-0.0415609500006059,0.016930321016462146,0.019565319484322292,0.0015739691321813628,-0.0018906777325223387,-0.0025470381935961406,-0.002385808139769506,-0.014918676325852632,0.03612014483668728,0.006124713123289983,-0.07926066356718027,-0.027785478963282817,0.010329332428263834,-0.018689994730089844,-0.014215470519563407,-0.020426596209843557,-0.007401644566429567,-0.09936712949117758,-0.0031947654487300787,-0.04676604276229811,-0.01397450090505177,0.0667573551205822,-0.028579180836662645,-0.09250634265962251,-0.05916973484369926
62.558349609375,1.288299560546875,-0.058146990804975596,0.13547512338215412,0.07861682287020473,-0.021346468153908348,-0.11329398417966796,-0.15937915367929562,-0.20451053459165208,0.2927293922026398,0.18401663762590753,-0.6728727239560238,0.23394602597434339,0.5766928401779112,0.42364730530701833,-0.13066130720481295,0.16631434203481257,0.016941294464075725,0.0005936037210405327,0.19779902621932702,-0.3116954401562768,-0.3494722523067121,0.07194894929488553,-0.010237818401925742,-0.027947091355407728,0.003204475027280107,0.02993228248962471,-0.01600411835415097,-0.008274825026564087,-0.03795321011071384,-0.05418074708441199,0.05702918403740545,-0.05497820700646668,-0.2022492694051203,0.01858943421004826,0.07811553292271083,0.025306771162275844,0.029091728383657825,0.11187357736293403,-0.11442075629245657,-0.04742474974531986,-0.0019050893212064351,-0.04149092170237857,-0.37805091276967334,-0.31135007406131043,0.13468550481237618,0.3470651081477701,0.5296400750160326,-0.08420187687830803,0.08153508786546641,0.007761369424753833,0.09035837739858832,0.26266613226612867,-0.0986633441633954,0.07448056083155843,0.19559490289573125,-0.08245935127958072,-0.09241825538174002,0.07649793205207694,-0.0684283836551794,0.07585699981776811,0.04419531386488452,0.3643780016250311,0.0876798097458498,-0.047557348393197835,0.1351568295487804,0.10050136189483949,0.0003145739458793352,0.25105006197090124,-0.2170500438006222,-0.0032587770615085986,0.014257991190726597,-0.0021570490379267055,-0.00733286741606859,-0.004375371226999308,-0.0025893837923670624,0.04473764449389074,0.010102523670291385,-0.04374957318334929,-0.06666545350141266,-0.024621065764533892,0.05601097496319236,-0.12030169915631458,-0.004115626119260437,0.0445122149239907,0.004830803651287258,-0.0345333848573125,-0.00618131706105558,0.040595991473073544,-0.03195306227726222,0.03754672011181803,-0.024526938856441933,0.051582767228833454,-0.026144010384127607,-0.0027089536445891846,0.006607658712006184,0.07010203552569665,-0.025358069611199387,0.010834993382086131,0.024810058279343572,0.03049713724802727,-0.0661060090731805
63.846649169921875,1.39849853515625,-0.04639871535004382,0.07654348948401313,0.009294903624718772,0.060775155863466004,0.4570816105033436,0.05879711458540972,-0.036796961148164664,0.0475127793649935,-0.16937924463162418,0.13447602379532284,0.23109406689575995,0.5121497988725539,-0.3072762145701161,-0.35923110947323655,-0.10016458491770318,-0.24425202180763694,-0.1220034337683656,0.19282317429023615,0.4402629165287884,-0.06257226691275782,-0.04294888705016019,-0.047021825415185306,-0.06554440200164123,-0.23615134130736415,-0.01599628032708385,0.21563128316967575,0.04772465563095338,-0.02546966951196863,-0.0476964767958898,-0.01555035917462562,-0.01860429289574916,-0.020079908427510347,-0.06657543346117756,-0.11204907611057124,-0.18597546946970422,0.02384349489828901,0.08710447410079358,0.09528087214862441,-0.18857619950328885,-0.25387066125075347,-0.16955987062316566,-0.10372462413920791,-0.44781658619430537,0.062119366978568145,0.1026374799904233,0.11042184616339973,-0.1588089387489347,0.0429351093886211,-0.16045358575806384,-0.07719687336374739,0.10048526694846974,0.1627864990239545,-0.2509442722755565,0.18185015031534235,0.05742150631213602,-0.08603516576186408,-0.025221036373737737,-0.035994584911779426,0.016168709456298593,0.07363254947717465,-0.01992516322512912,0.005749090677208701,0.017635002238730584,0.034965529949628926,-0.03726105306760582,-0.13171501245182116,0.019618775623278167,-0.01868569291481189,0.009967311055463342,0.007875146981224582,0.05878815944461865,-0.0036766021023205793,-0.0024313939865903376,0.07885600217178268,0.007313437618953956,-0.007201290245993686,-0.051995108072537745,-0.005307376059576587,0.06786952654612885,0.0024623969770960876,-0.013250260237578283,0.003161210626553062,-0.10015733019632903,-0.02013873104853619,0.0007561663556121651,-0.01195251756532614,0.06103841157055392,0.05483378453891394,-0.0044212620913434,-0.06140809537328154,0.0028492907872262763,0.0073609534199785675,0.009975830931916493,-0.006674365335513207,0.043785082122571706,0.019034450586888393,0.05274825870671879,0.005310958315286581,-0.047376859641794854,-0.01721337969577595
65.24514770507812,1.7280044555664062,-0.015938031770573926,-0.10614835685950197,0.0012905638665543437,-0.07485970818682222,-0.25114380422334404,0.04329136403255476,0.3597705579573954,-0.03119390697978077,0.17517781420521072,-0.020864879337276737,0.18629038375407847,0.0237846487649422,-0.07205621693860817,-0.12995303720983814,0.015594168977977572,0.04719526968158867,-0.1974127913357198,-0.12696476331986886,-0.15115019654376358,0.00873665211765092,0.03734881838272923,0.07267399358918526,0.18875946947629377,-0.01681290742291061,-0.0061444735900124834,0.015857160885750194,-0.013196147156262501,-0.03629712462018548,-0.10153566121183817,-0.1877093624455516,-0.16078580208639295,0.09576551917187268,0.11407802489462313,-0.08718382740778066,-0.04433140065790822,0.0014350583124565321,-0.050068710457728094,-0.02342593848948217,0.04650692079644381,-0.07170297836745143,-0.1003244689856303,-0.04256937168916225,-0.08132667067098792,-0.061250253908881,0.07042429900109655,0.039826986686433585,-0.03851976142161504,0.042229093336498914,0.014362283169964962,-0.17600186618140787,-0.060160624532956765,-0.16447948862468634,-0.12700516317743576,-0.11085572754728422,-0.16395320489783125,0.15884016313624952,0.04675556003104681,-0.044841318017717326,-0.16487812616580774,-0.0435960574808129,-0.207083165090252,-0.09331117889368523,-0.0794398383369546,-0.022758233035117894,-0.0008015072674858269,-0.015099203428636009,-0.0828352540112527,-0.05912326051642765,0.0039577280096700735,-0.08018690173123273,-0.0049960582845154766,-0.006235887894814125,0.01216676913551144,-0.008525219551565188,-0.02534754826275437,-0.006257158717840581,-0.00496605104530141,-0.0028535319223010084,-0.0013794160360932725,0.001144777305784464,-0.006952554777187426,-0.03823295566066997,-0.007814169912125003,0.03368782408380945,-0.028843079520812658,0.03374224196213785,0.004376621571923915,-0.029234634295881256,0.0066456638092600665,-0.058168952079270086,0.03374260747276656,0.03027831157651848,-0.04030034868963325,-0.019181659349422384,0.006043543718097746,0.022353218082074196,0.01948488950437417,0.05405384941846488,-0.01234728408793298,0.021157811631027708
69.91964721679688,1.3787002563476562,0.056952257621335184,-0.07747183760491805,-0.04452271130356221,0.02984875121822262,-0.055511078077674705,0.0014408762449929918,-0.0031021491557238295,0.1540609416954531,-0.04899600511119134,0.128619676250266,0.1291971032325313,-0.09889181573937147,-0.07101814966488168,0.026061291851336127,-0.04251318696695512,-0.21311069857738046,-0.0468450871201078,0.022070505503126267,-0.03404845922660745,0.011875678732471803,0.1156225303663973,0.1689574445539591,0.043001868687045836,-0.010084057133155392,-0.04636180456945877,-0.06208249717694021,-0.09128251639587008,0.030311690240956243,-0.07491926998542692,0.06186616229116008,0.012224407344587958,0.009101913853642441,0.04243232625268932,0.16144685109251744,-0.126965146378819,0.05185714792941444,0.15842525570099328,-0.08283564138482238,0.0844490687810441,0.08091924696861107,-0.22767064668723466,-0.2701929214024633,0.03440653436440208,-0.0993712268603253,0.06805790027358523,0.25096345456154384,-0.1465759290323564,-0.0049493223854144425,0.011243390986414175,0.23495156132951614,-0.4529279969370009,-0.4169099429375994,-0.027405663701899147,0.09658799867863974,0.05200052748126608,0.23359397934925685,-0.023097508559842408,0.024316392857360678,-0.08406091821879756,-0.006435436402306899,0.15528843245661006,-0.0012259664380478705,0.036724586421775146,0.04886102912155982,0.01575783739179115,0.0015842369364790824,0.018936230603300293,-0.04934508982119669,-0.00022830981312323487,-0.0588196204531051,-0.004910458975147087,-0.018150502589673073,0.058226913924853976,-0.08841428436515009,0.01670375354868058,-0.05982883767290137,-0.017712898152245617,-0.0010150286674133597,0.007245054465009725,0.023909105275419514,-0.023572980568877022,0.0019494583377884834,-9.465370012567354e-05,0.0025628595671175368,0.021799868627118295,-0.08639994057287573,0.04256937990152588,-0.04414768110429772,0.08748789214199448,0.06756118855039721,0.09500106870143457,-0.02364392214012129,-0.01957678560041881,0.04195182463762213,-0.012431949718464043,0.08194404477668157,0.08263360814351306,-0.020216709742133604,-0.15935038767204893,-0.07592575265207857
71.29834747314453,1.347900390625,-0.06559221317631615,-0.041693069296910724,-0.03357200311639415,-0.09757848089080601,-0.03967252907186779,0.02472950617816326,0.048446853102373844,-0.019041282392671242,0.034885255777977,0.16771067769181108,0.36129332523152596,0.0922814563852376,0.26380793243003087,-0.050608507692666505,0.1800493999665929,0.36490659842424555,0.04518369022770353,-0.06355556285055981,0.03307480992289063,0.048903259018353344,-0.10485796048449228,-0.11788591716845678,-0.061689496678517856,-0.09829275098259571,-0.04176650337414185,0.06566836378552512,0.009659609457989042,-0.010694465284766268,-0.0870995133215482,0.024786387596343957,0.034351852752751294,0.0969607471769328,0.007625140052527598,0.016368984315344975,0.007852842642846983,0.024686845885504464,-0.058025194527768026,0.11531760520038783,0.12879578815091763,-0.07329828447705249,-0.04012347622982438,0.027671402930420624,-0.02433182364117038,0.01811715564324748,0.014945645294211824,-0.055852028331464236,0.10461617509759052,-0.1834398017519514,-0.04849275941426806,-0.05835119522393084,-0.2245948980316072,-0.38536140303151134,0.08110840655612374,0.17278873794825184,-0.06442148705368705,-0.26375010832226425,-0.35983368401697813,-0.11275215066045116,0.13950968179822815,0.06049279531475214,-0.011646880914990235,0.0019336403570057135,0.026596840379600226,0.11333417370646523,-0.05249594556701396,0.05029368903862546,0.13553452611887293,0.0461945782272396,0.005166038654859604,-0.038971019739777214,-0.007135142407476603,-0.023909770070537323,-0.006924550561041987,-0.0009170353511507438,0.0007687154340844376,-0.0013382746828804679,-0.06621891382683041,0.055218438233183044,0.005066428760919218,-0.0010273590448483688,0.0042262193322097664,-0.0427083214185328,0.004980163688359471,-0.06470882959460192,0.014645963023389452,-0.020591656738435153,0.030396042992074525,0.040248648946453455,-0.04090258117790338,0.07196497883948896,0.004100020026123661,0.042097893619595,0.030361318804256132,-0.01090901620527177,-0.04665364311935884,-0.04818504231627685,-0.08244169313206978,-0.048266037535378725,0.0517873545119695,-0.049079722563801435
72.64624786376953,1.3189010620117188,-0.06914360552274273,-0.08805087182010506,0.14274894208372282,0.11929959495065975,0.014255803176469368,-0.023861371100854054,-0.09615982890974399,0.09666388628081513,0.010760309434642942,0.049630545127091114,0.046766480791533595,0.021682983401598636,0.22524787227146098,0.07781783525267658,-0.1832915551184917,-0.11096709565980498,-0.38301644683284014,-0.11669652162707622,0.03326889388149504,0.15773120940826457,0.188203040092355,0.0031119148225711712,0.040096794301504715,-0.08287981940765508,0.023957998788564527,-0.06944954579401406,0.025971888194196317,-0.1302087247596482,-0.062417138870177656,0.004493093025962526,0.0027116477108962674,-0.011019877139882332,0.027369510351349956,0.04674495080407667,-0.0013041704319545623,-0.041404340456716426,-0.012496300422729003,0.021785524918531692,0.010734791963601045,0.016333366619119875,0.04606124669642451,-0.0004007726044925504,-0.03891923807272279,-0.052322544422275054,0.004167414731298523,-0.06725495843853314,0.039016651900382025,0.10090432447496302,0.002389223268072147,0.06321414012237274,0.05303739348711481,-0.09751897216147518,-0.3449271559445785,-0.009494754082624658,-0.032237897544328924,-0.07719196087838612,-0.18999075799854323,-0.20023898959210387,-0.036840296698128334,0.008327905525060124,-0.09932064997038453,0.11794013683925554,-0.0307685780585571,-0.120318861073867,0.10946118361941512,-0.007425506585160339,-0.08086766869308018,0.14151679483460253,0.0025838554903509763,-0.06913583158898953,0.06062515187462297,-0.01872927362908409,-0.0136172430031477,0.01144076479865171,0.02445249505326765,0.0016357526673038561,-0.02574105310132098,0.09609187627151422,-0.004732322182913097,-0.032006977633864106,0.015652908104913738,0.005539350810790135,-0.00030544732643510153,-0.004962929437362289,0.03476556108481516,-0.06071862803264193,-0.02109000076128386,0.004504677337941009,0.0051722371933476535,-0.09897545743434318,0.032771815361925735,-0.04204418320510287,0.03339995795801032,0.055541588457439194,-0.01726444813583779,-0.05115580072073115,-0.10595213000792122,-0.056382475145454594,0.07618637253816052,-0.02623037088807112
73.96514892578125,1.3386001586914062,-0.03578133223167776,-0.01230189271604012,-0.1172380557915927,-0.1714727027503593,0.015021035203548305,-0.07079037848717985,-0.18813856848233906,-0.04681341173698736,0.20400969347412912,0.2986023837005559,0.28081211218922414,0.07931363249735927,-0.08649456664811392,-0.2727796444838883,0.10391239189284399,0.11719016850895965,-0.11277787336804385,0.019060201188411167,-0.04659094070844338,-0.1529964829318658,0.0007887071864650176,0.007301889659439426,0.13671629554331008,0.04301259218168685,-0.08061340719640525,0.10186795628512174,0.12536040352853148,0.03671099649868429,-0.004814168039139852,-0.030908277918606356,0.09118668880170157,0.04123775717429796,0.1516919940851393,0.007191979336237676,0.1349980715153309,0.13606613029057393,0.05274942435339744,-0.10128590670446494,-0.1681998881992659,-0.19574692540540972,-0.08751766786452465,0.07489901035895695,-0.036789555159671035,0.13999988580626907,0.030272446375755865,0.14676105598719535,-0.2737486643218655,-0.06856604202719901,0.16312834392265918,-0.2390377745447009,-0.23064781092983683,-0.33430886233340906,-0.017977154089066017,-0.06487075130973552,-0.1341734908668534,0.18442936120370573,0.2987385308523624,0.031683641434468654,0.0663937820034423,0.34836595410720633,0.03916860764983794,-0.07361408792508857,-0.010373864310087385,0.03178684282460872,0.03000352459047092,0.008755459246568792,0.042185458674241075,0.00708717364006535,0.008759860243015965,-0.009951755582954643,0.024550491572660323,0.005769015256378216,-0.030182815148058345,-0.05233778211433012,-0.00031498256747155445,0.0031039662364909025,-0.059745583594795315,-0.023742121044756224,-0.009030362610970274,-0.015208271618494569,-0.04454299253228149,0.01190564513238623,-0.04009345881723397,-0.04781823818582315,-0.006886546519814056,-0.005880514209817205,-0.047287940472501316,0.02145760803201123,0.043365950387463076,0.03068657605674974,-0.052884377141934655,0.008375609986765587,0.03328597534344108,0.022706282275892747,0.031852031378653736,0.08191086599803743,0.05572176530492945,0.09529905177624351,-0.06887523185091453,-0.07125090170698475
75.30374908447266,1.3084030151367188,-0.0695370799077826,0.020188692373653748,0.028588694885528954,-0.06661178575207138,-0.015966552787421345,0.19306522511510305,0.25953929745874604,0.09996948438843706,0.03223111143962637,0.0865647311480875,-0.0604520102711161,0.08567710668176513,-0.3549830325576644,-0.45144111693299926,-0.10930392386105289,0.12962561770620065,0.007718227186434116,-0.13286272298679075,-0.12980110547229295,-0.3583039058201491,-0.01647516124010019,0.3558183063412932,0.09399506156048265,-0.0977828889907185,-0.0006811569706045692,-0.08856692759212184,-0.2704385673477183,-0.2124625061729673,0.015393069811654902,-0.05932060997652998,-0.25999532432144185,-0.0729467756572764,0.0167297672214773,-0.0661903157530519,-0.15958555541178726,-0.13991868564916285,-0.034944387406305275,-0.02393907836441765,0.08858589260723101,0.04526667494642346,-0.011159579460162076,-0.08625127535524788,-0.06255414651280211,0.01516043055162356,-0.27405503965808886,-0.14826620361699822,0.1529673240362918,-0.04258085705611167,-0.13431787592603178,0.08991127647485356,0.08300032563991784,-0.014793892790826838,-0.15318052134838633,0.15125758304058579,0.15611361117553663,-0.06818012809923715,0.21645950868492622,0.0869800455953678,-0.02435812132045717,-0.2519438107226828,-0.06652271695833777,-0.038205402266418345,-0.10455486682653349,-0.03194593293464322,0.0006297441009296811,-0.03712002720984255,-0.09494820379631426,-0.025749280577020018,0.0032416332343927663,0.03880624525327282,-0.03305453800054913,-0.013826121156685488,-0.021662722920677314,0.05877003002385335,-0.05790077379633702,0.0023623129122886093,0.05266592298607668,0.025240820760774454,0.026936583209123635,0.013867028360967622,0.010688575931388406,-0.0074911838251070844,0.046420642502046236,0.04655109030522138,0.03866901612174112,-0.028565764930590147,-0.00042459413764615547,0.04046134206340589,-0.0005832410132243764,0.003500474238043949,0.00938247885800923,0.010924472358658613,0.04042151318676867,0.0991857942995108,-0.02620794687441536,-0.12443560667575516,-0.006444192213203282,-0.0035208207493115772,-0.03797019084761656,0.024065167471042315
76.61215209960938,1.3586959838867188,0.014917287134137217,-0.019688381913398445,-0.11494203083159384,-0.05386735972550661,0.044140243036336194,-0.08913821695985702,-0.3577307056766734,-0.3011401256033572,0.017456623469846586,-0.0781196223946255,-0.13657459503451053,-0.029980024965426788,-0.13464562748197845,0.24252129491944235,0.20853796282021614,0.028964967192604527,0.12496999025525608,0.2772772558242479,-0.08942943162312267,-0.11935617771588003,0.001395426760674575,-0.0911690063852259,-0.06312244069121718,0.08845130328555574,0.13448490927929826,-0.044797341481437505,-0.1243367132705433,-0.047794555988455625,0.00283791853354199,0.026492139975632746,0.11324583601337121,0.09176480897931448,-0.06679482289530643,-0.05568373157591656,-0.061673528980852474,0.013200402187747056,0.017613001164031524,-0.021532117631890738,-0.13808150745318115,-0.19189745824842874,-0.041672565621742146,0.14464536613659867,0.1640429267624761,0.02369356300586846,0.12712493483842874,0.08129326754083567,-0.029154053204304822,-0.04332039485979919,-0.4220627324019164,-0.2709377940387546,0.058167184089655675,-0.33497455367854606,-0.30271885208123656,0.128156489621625,0.055582644447133914,0.09804290730227769,-0.06261009382679046,-0.11000453111764595,0.024287535082336914,0.0033350638793777426,-0.048569495170610565,-0.12437067173677369,0.03178531412087092,-0.11944491753934816,-0.013457838359361112,0.0025621385652523114,0.0018728478269279675,0.012535377616076896,0.0031998724590779097,-0.021781931840058888,-0.07617153116302583,-0.004942516354938663,-0.08832150307384315,-0.01713486527887129,0.0239365830887885,-0.020889541748847523,0.008104177440546059,-0.02908207290350348,-0.013739554908135623,-0.024999918353493085,0.05323408127810113,-0.0030326005005434364,-0.04851073572124805,-0.0053371604066235895,-0.05563779479417239,0.05248987438322483,0.05485339192677813,-0.05173078079454814,-0.09458562198295811,-0.00651204709157637,-0.03799506751855936,0.061194727798390754,0.010948948959525978,-0.015210132493473635,-0.025415236084152408,-0.06681462491872726,-0.05157611113058559,-0.1711388468929246,-0.0536829528287303,-0.1346452204857496
81.68644714355469,1.3680038452148438,-0.027010948387322792,0.015284759647875415,0.002120270098920302,0.11023278412306098,0.21997896842219639,-0.13329329367418943,0.1496780297594102,0.05549223539498293,-0.0853469017750398,-0.043003683133448,0.3118120677993219,0.3848160630841046,0.3707431792253615,-0.05257714790833251,0.25600686201104317,0.20787973696743398,-0.008153207000172533,-0.18972060643782337,-0.21147845214629352,-0.040338301833412506,-0.017621775810804242,0.08140891934104723,0.016916646775657268,0.0370909039549145,-0.05628584778748813,0.05584365448272301,0.07637379082260132,0.03368345802410758,-0.016019745492033485,0.020481746355917235,-0.018702024742379163,-0.07376880957735599,-0.013000470590048293,-0.03555976986681803,-0.052244921240136646,0.03408849903332406,-0.0021779919637395463,-0.018613581288984375,-0.09924515551138238,-0.033157537962217785,0.04242129238317685,0.17324139237774003,-0.09430782330765033,-0.026682262729195994,0.10494714329493846,-0.06419060098577863,-0.18655774956983023,0.11106162385073876,0.37156923269202313,-0.0350584500769852,0.14212317232537378,0.13072648889188826,-0.004556627039742828,-0.021386810953149413,0.004813266249627093,0.007132142974348513,-0.017521267916957295,0.04869784397098671,0.011024511719203656,-0.0005892066353151633,0.018041882175230603,0.16761038732610556,0.2824439128393066,-0.005001219998324772,-0.08020377087527751,-0.09614693142642464,-0.011016998196053757,0.016824867037598647,-0.04430130683850657,0.012676286904446334,0.09165075685603431,0.004115864384446533,-0.0005839116952329347,0.028599942768477663,-0.07323442087542797,0.01496205988791224,-0.052343201439924464,-0.018152479659080144,0.0586033589546649,-0.0035111092044987293,0.005951868102024272,0.0023623404344506023,0.05762637004402917,-0.06165198071680284,-0.03138085182253591,-0.011786500419606195,0.021463320795657888,-0.005930103142946223,-0.0017607728873001206,0.1189588766617899,-0.0339229724078644,0.03486907790216623,0.000509590612438556,0.06376250528956273,-0.002179523513208823,-0.02517795360559435,0.016017096243488235,0.08081670263458732,-0.018869663115026455,-0.08148876062418481
83.05445098876953,1.319000244140625,-0.08220837732182937,0.004197920186084128,0.04119732162070638,-0.0014414895863856022,-0.04864172721490204,-0.013048040109979259,0.005532393185778639,0.03568021427745706,-0.0438016393985181,-0.12418350277878858,0.08783312232729479,0.26083769665444423,-0.25609665401131,-0.43158280500135165,-0.3342950227479484,-0.21620205375371315,-0.007836696831131695,-0.10157882397900338,-0.02272823753390405,0.36308104650437417,0.07127354448064022,-0.22689138942629808,-0.028459286241914232,0.0005644663703414515,0.01629003539205946,-0.10425708091063074,-0.06519832168741528,0.01603842506656844,0.03563916863457443,0.1436903791098563,0.1348533728291865,0.032371185117810924,0.0058651827116656605,-0.006282426313434661,0.062157282545089475,0.012848681691919255,-0.03568011239599653,0.11001399554159977,0.049612846347214724,0.02653408747831658,-0.08897101603929482,-0.08187455379754568,0.24820406192436847,0.03981534148911059,-0.020525118493858227,-0.07789524554031273,0.050401079639630336,0.04408663157794096,-0.004034428305714399,0.19104419053514568,-0.027403853077029406,-0.10510536800947964,-0.03061879790858474,-0.14326551291007422,-0.10261382684442866,0.08691499506661848,0.2733080907161227,-0.05749718972776276,-0.010104845106056439,-0.028752212686552016,0.007634395053799649,-0.028443878143688157,0.03275869837320036,0.004884479637686246,0.009893731661669004,-0.055290034389858626,0.0446174885800857,-0.0442144122063665,-0.010366562782277254,0.05531737706677793,0.017408139863990778,-0.0157598496774332,0.0663789362227669,0.0005309816264067878,-0.0006283951011306359,0.001718957066295018,-0.019550352958424746,-0.0767859255295171,-0.006156809384020509,0.0008414892908908552,-0.015919033668271496,0.028963846410656024,0.018764655413000347,0.09868310739895911,0.0144740286868872,-0.06541559879654173,0.07501098171603501,-0.07896020673276936,-0.0029591007246857672,0.041733358818595516,0.00589823651905336,0.03906088574515098,-0.008508336786179292,-0.07296964194304485,-0.037958142470204244,0.005087657361402868,0.09870966757003695,0.04369670527001577,-0.04029003150006684,0.18075803754373418
84.37345123291016,1.2780990600585938,0.06202462103618343,0.12092290547126672,-0.06684500927227525,-0.19210909500165707,-0.1585767455671525,0.02477977397003618,0.0812713793502533,0.014484279490425148,0.2283764883524095,0.15425116198021555,-0.043441796137222766,-0.12059801313067298,0.19136023861475743,0.0008083133759554176,-0.12589980876468598,-0.09323370691495471,0.06678386305409613,0.0883215865965772,0.07399143486397694,-0.0019794933774229945,-0.05453767610747117,-0.009273423027037514,0.06226204835477559,-0.05930890220032177,-0.018878597590414565,0.005268248061824202,0.04567924898418316,0.08152457149644662,0.07449544629958377,0.14468654445027354,0.009910092615512421,0.012052569872430259,0.014244086211184684,0.01771302365640954,-0.04909613293929477,-0.05396901965071878,-0.11350523412963867,-0.018377062266158373,0.04575010007934886,0.007872217298582805,-0.1165539448385981,-0.11073293789930476,0.035104977569398114,0.021355694857053256,0.05880665805834682,-0.012125990877551972,0.02274588090609375,0.027240557814095647,0.11797813055374476,0.2326834472863852,-0.03076014471125909,0.22288495148973667,0.1283507849639682,-0.04374506062195357,-0.16290669587667814,-0.20331320067312825,-0.13290493437951215,0.037884977076934494,0.04333464749755421,0.0391997065867658,-0.26881163744505643,0.21615938561896025,0.26296969714191865,-0.04905257229869986,-0.0408306534869463,-0.06815052681487385,-0.04490347301157768,0.050920723550078005,-0.08792376261620047,0.09086503851670516,-0.026343334123848983,-0.00529463314149102,-0.013849596620580995,0.004091351320008513,-0.008601362725715394,0.03251935041539551,-0.00040348010672813637,0.000718775446107685,-0.019138075113134388,0.020405603941760213,0.008814639625185612,-0.0007446627420277774,0.001345335668016585,-0.0013691484779661776,-0.013011510148595336,0.02468563139934595,0.03328932874264243,-0.046888738590949205,-0.03753173408855319,-0.011327514590341408,0.004700666015785143,-0.02220607692013808,-0.024598193140192962,-0.0132393075059554,-0.05083351557569164,-0.05369707076871518,-0.06161999920291239,0.01787668473801869,-0.04925138155867417,0.09407936815291161
85.65155029296875,1.3089981079101562,0.08230211968863738,-0.10170660057403436,-0.005425170435780769,0.04021739298686729,-0.05817875400405058,-0.04946306733188502,-0.03947604519874934,0.01564050044169527,-0.09817293484017625,-0.02096901076085847,0.10851272485977562,-0.08802957230289599,-0.10282627360152352,0.23642057324055696,0.07674783630703179,-0.025331755328264753,-0.018327125876878535,0.08519440397487048,0.007143548288970642,-0.2711478205519283,-0.07850817359664544,-0.00964816595989089,0.0007660493917364328,0.04599484702471222,0.003713476918218092,0.05369223368903595,-0.10715238769697631,-0.07883599951286747,0.02023353723596373,-0.07508306017691323,-0.15163235114345408,-0.01787806686287761,0.06862130920324588,0.034649831779758514,-0.010954049151433965,0.012972479596429144,-0.004103904562722901,0.0009881753391374898,0.0324697581298111,-0.008378528708146912,0.054706622537202335,0.006066931338515194,0.11563760367910175,-0.012501994168966087,-0.18468337425306736,0.04138124882872964,-0.008096443872645631,-0.11254715005863396,-0.04215730873160991,0.04524641217707878,-0.25855383844459856,-0.2520245161283803,0.15016666531416617,-0.037173686960417104,-0.11583705313315037,-0.23144610021462778,-0.1567308978648796,-0.18075039894295394,-0.08091889629127616,0.12173943706876174,-0.08494708999407707,-0.07307443644049995,0.004835938002743521,-0.029561274267154464,-0.004952808141225325,0.0007034394581302279,0.10582559725999804,0.005453874927569904,-0.007433167548398644,0.0012729229149739292,0.052559927374287704,-0.027223648639546294,-0.024999623645344065,0.00024294564235013088,-0.013326604098937603,-0.013072350949058604,0.026399892711241563,0.01696764929046795,0.021821221544137695,0.040282077823401624,0.07353478975274691,0.03924588493748505,0.012170310505592061,0.006595619241151818,-0.02579430175660031,-0.013922021798014007,-0.02765174372762863,0.0023706919323288967,-0.008160995102580048,0.011242165127427936,0.055652066261992636,0.05471110278566692,-0.027774660956190175,-0.035787405615966536,-0.0637750810251626,-0.07257335723764478,0.10514366848670076,-0.01708907789108419,-0.22324344937219817,-0.1146837534195759
86.9605484008789,1.3383026123046875,-0.09264351829747602,0.040225919845534176,0.002264615963670622,-0.14984890300829595,-0.04045607473296,0.024674346294528554,0.012547304840622284,-0.024870441575809654,0.29839619928242755,0.40444736257154945,0.2169944118743427,0.08282169625171865,-0.023017500406565184,0.05828622285661529,-0.04079026528712311,0.06327794255256547,0.008571097490573151,0.1496737210718911,0.22581864611402122,0.05576862015793431,0.033817486578603784,0.09188733249764411,0.015251556468265233,0.037810719328798814,0.0740048196246028,0.11686552738091933,-0.05435603183350975,0.07305604555780752,0.11310303277188787,-0.018758115548104914,-0.08688841931448747,0.07226009364887823,0.052877031063923656,-0.1511750919835958,0.09484674277820675,-0.03999145730131296,-0.10776473907553398,-0.05675199537926246,0.05555919948412638,0.1218800842034866,-0.04950738917719497,-0.03179055127330168,-0.09337142032394098,0.07550933748183453,-0.1254569529007442,-0.10813683340499367,-0.02467974913250663,0.162843067628118,0.2333499362229073,0.030422481033769516,-0.1309927906598326,-0.22627743012919574,-0.09170681080494461,-0.22409513896548253,0.03137114842261317,-0.14807962635422256,-0.05619954074729884,-0.033097689064688386,0.0600218058112863,-0.041138979198489085,-0.3240136728947432,-0.17299983541182906,-0.05120493698505264,0.13418233507387212,0.05443222161873493,0.055258433615046884,0.10313999792228831,-0.02457020020363654,-0.00029848525102789885,0.057903740405904576,0.00798268162379294,-0.017371596352980835,0.04581628488079201,-0.010171883134468748,-0.010043914521135512,0.006653578259962837,-0.005761898167934529,-0.07774268134557655,0.0029889357442541235,-4.941969625950992e-05,0.0014335181481554813,-0.028569554683558332,-0.005310533441183825,-0.008180116608524074,0.021390442563663774,0.06883575599306861,-0.0059161099276910595,0.002124091491925532,0.017904398529823642,0.06853728018849883,-0.008197556000947369,-0.012213953209527194,-0.06520941505564441,-0.028678708168901175,0.024190292708314208,0.02553580121353282,0.0638151781104172,0.04807827617043767,0.05820679859735414,0.07486425799967641
88.2988510131836,1.308197021484375,0.07609346470148542,-0.027252553248808903,0.0334895762978657,-0.040991889557325814,-0.02993799617562911,0.1164500826386372,0.006493575482175523,-0.09060891491398862,-0.1377060118244844,0.16007518961719092,0.04981682786802134,0.051785357966409894,-0.05821091851613096,0.1881349239434244,-0.020999572909561053,-0.08420937725577848,0.13237611913735786,-0.1113586134733832,0.004698654718512513,0.1897528418462332,0.02025708831424504,0.04380039198916275,0.07940175557764162,0.02537067713057521,-0.0582235241657618,-0.11601695438090602,-0.023254189633282085,-0.004866387476759826,-0.002376334752996831,0.021905724250163988,6.409486133273886e-05,0.07596100817127396,0.16887421282978693,-0.0044409669784982835,0.026882933562236342,-0.005086160319816328,0.09331567940552511,0.016452479386134734,-0.24986260268227684,0.058206987105691534,0.23783964310711905,0.18099006467865117,0.022462300914352015,0.08840857405387056,0.1067637336585607,0.2695668571640807,0.20062044152989839,-0.12133239890906557,0.28787473709929967,0.13099063352202323,0.22734823995468395,-0.2602122807064861,0.05025014672277278,-0.08609882708543973,-0.10128671172278159,0.07226833474724273,0.1675677241298289,0.16215757133392683,0.03527599247786864,0.0391808683872803,-0.19520851018693752,-0.05109231484451572,0.06179621322038789,-0.040121858926385465,0.04701885052941311,0.009923136793900458,0.029633625144109287,0.024554078368746762,0.012338753328399612,0.0010920233837159491,0.025083890197668452,0.02870451190401158,-0.06236562524256477,0.042161990160326665,-0.028012718770286434,0.02592988941388018,-0.01583760941757643,-0.010777075717143982,0.00689272969362359,0.012196723513742614,-0.0020717464736467297,0.00011742387934795932,0.052907940794618705,0.01713689067001585,-0.02216193482566632,-0.019711750042069293,-0.014101461155090471,-0.014554713323251166,0.010742757345041602,0.004544569547931225,0.05215613551933307,-0.08086258350352137,0.022144872550534378,0.01887676160188801,-0.0007841322511489487,0.023383885449623075,-0.0754831456555479,0.0004063653116255498,-0.10002790411552831,-0.06220817083228058
89.60704803466797,1.22900390625,-0.05700837552167283,0.02106440214494089,-0.07241152955704086,-0.15016268840199334,-0.14145816652065188,-0.10235420866340106,-0.6558206001636279,-0.3447781479845956,-0.47170360392787436,-0.43657503554055166,0.06029056653519375,0.6194835449606736,-0.05264901466735708,0.09920058935521381,-0.27016933364588314,0.059418281040621995,0.2188034357653618,0.008564536392977579,0.04400762070759277,0.09741816069121356,-0.1763510043546695,-0.17761461947011647,0.19769391438990072,0.26142987530537354,0.6743802636063041,-0.09910626134274685,-0.07091502156784374,-0.32190981850701067,-0.030634075693750484,-0.0012537911712493383,0.1919272567680984,0.3460453021765804,-0.020125427367031976,-0.026456072147276646,0.06417107547871213,-0.032698552184593305,-0.19432093767547806,0.10800209657658158,0.34622958715985663,0.12275772196547166,0.1582979994201286,-0.12734703078122522,0.5115536900367545,0.02206387520951092,0.3791102840083259,0.01303855413807998,-0.1460887526074936,0.11726760802284679,-0.04547006989810848,-0.3594982459938714,-0.4013027336050343,-0.11352086739451335,-0.009940082209783799,0.10341543131073362,-0.1278840229322641,-0.08784335279063736,-0.22008745997255585,-0.07773440374363799,-0.45196949219408616,-0.2206387806660332,-0.14311937244495943,-0.04963793464086745,-0.032701751253666984,-0.1235555558215685,-0.13883563563140355,-0.010837297854631792,0.051650941783192114,-0.026179494141914623,-0.02392926849640822,0.021178509162926826,0.005671679056406672,0.01735888769353161,-0.032744909005272826,0.012365036940142777,0.009691847526953679,0.008201907162693941,0.017020279386133208,0.04286262805945229,0.005119025394288478,-0.001126070943920567,-0.005299551849648459,-0.035067638741286225,0.013388428878740165,-0.02041424470887264,0.044001842216535095,-0.040415429818529615,0.05105967198087383,0.13040273369419014,0.03684276136945676,0.009510285989509162,-0.0001446655181190455,0.0033281586465145688,-0.029127152864852755,-0.024539458929494138,0.05760126224319742,-0.060049977245238965,-0.07917039422936942,0.0485897398157755,0.12472203080493452,-0.08253520205523962
95.02134704589844,1.298004150390625,-0.0808932515826062,-0.00440561237418884,0.03847701656408738,-0.04623664533409723,-0.0032146405410719415,0.1794552081964694,0.20460390212927054,0.19841463252755173,0.03510361504666799,-0.11560668166672766,0.35430731203085875,-0.09609113035573005,-0.045880227951666026,-0.18746974749539239,0.002510399228064411,0.21951956254240754,0.343989608101292,-0.06573748954925102,0.12011433929934365,0.28870930890073354,0.24414938855384782,0.28811805107575283,0.03764195065723229,-0.04723794726500283,0.23013141562408002,0.005371395380747532,-0.028586638759798663,0.0807950256909267,0.1022380673239963,-0.07037530492788714,0.006466882221446174,-0.01852832064162608,0.036460426832219256,0.0475318255048011,-0.006398652474103091,-0.004824864812481566,0.11223862849827315,0.1091406895021254,-0.19365011357826878,0.10177683538058639,0.12200070977546502,-0.09010404937580309,-0.13901381918512884,-0.1562723987703984,-0.07328903231327141,-0.027124230694924964,-0.13860692285501036,0.07324881119817309,0.1659609800492056,0.25822384175456214,0.21424869418059211,0.024909841648224088,-0.47404404611800366,-0.28019129669846776,-0.31212748270421664,-0.2084329249892865,-0.02451970460240948,0.16085033230665563,-0.037108621010108846,-0.011627701553998365,0.17813839609714105,0.5795305490456175,0.008305400181116493,-0.029542615503200823,0.001103247010471609,0.03461953066382077,-0.00714445623163221,-0.009018138363728752,-0.024645351041360154,0.0630693859176304,-0.0020570679853229934,-0.00426794096974714,0.020102046338249593,-0.11942492984161666,0.007456525455281935,-0.08684675477237182,0.022455750404190532,0.041732162973085414,0.006521943482475472,0.0041709958045641725,-0.001282370932928127,0.007058042802257101,-0.0116641919530404,-0.06371501169957534,0.02660961102954533,0.0733053591371575,0.012103789902372198,0.008814367517944021,0.029026145415250268,-0.02511038136978528,-0.008450564505401678,-0.002805038550942728,-0.003919487247128942,-0.06854882548464489,-0.10373035551410922,0.042793121194920236,-0.038546654508874456,-0.004474370217700795,-0.016919894278475303,0.15591525070036805
96.31935119628906,1.2891006469726562,0.026957349578875432,0.04580047953551566,-0.06589485457446495,-0.11003259521645234,0.07289114443498457,0.17145652146685417,0.2579174954109432,-0.04422429198243588,-0.012107936228808394,-0.3121014858329022,0.5959953811346181,0.7089905154961312,0.7735450091838272,0.17138634898783656,-0.2507553368832396,0.03738944847617788,0.04100870605571271,0.2585806247601821,0.2125359734177806,0.019541572413483484,0.08233065466785677,0.14911410302279557,0.029601914550543208,0.010442897046294634,0.02883422626302975,-0.0025054084231392443,-0.0219332135293536,-0.0031557141380626624,-0.05864958442538376,-0.0694045960177418,0.009133483455089639,0.046424687449206394,0.09085311211655739,0.197322001606859,0.07435673540830252,-0.009489876240170697,-0.3471110206948738,-0.26349638884460136,-0.07053573914910956,-0.021804428522336924,0.015919599302401923,0.018336854765625993,-0.11630272239318129,-0.03580492354316726,-0.14696283976848223,-0.23297948135915447,0.1582034221421738,-0.09275445134093388,-0.08440580348458684,-0.059925021548364,-0.017077408475302678,0.40479171883028536,-0.06058441004747274,-0.2550100068298286,-0.23885722456931513,0.08876979211254907,0.24202224035614756,-0.06720516538352467,-0.09962294414989782,-0.09253589462242731,0.01957906554714043,-0.09740785493550158,-0.02691001953955327,-0.11575969202555235,0.040562678513411034,0.006664485362585768,0.021828359235312567,-0.007309994250004891,0.028521943735796865,-0.013472693868306712,-0.007531852140551608,-0.00679333113480355,-0.004987768710400642,-0.00839576127440214,0.007054691357856508,-0.0004752512885826361,-0.006653480339516167,0.0011074849286880838,-0.00020940905425290363,6.618598727018516e-05,-0.09636967991420857,-0.013191968949601118,-0.017275199289168784,0.011168249252183786,-0.01463280662595454,-0.04826210541681557,0.025729822636508033,-0.05312787448872342,-0.07930454584630217,-0.05976311776837501,0.098300871184535,-0.03035222179968692,-0.06635067583043731,0.1686079260517005,0.18150525523415834,0.03872360171794192,-0.027713364353529144,-0.24436429647914734,-0.32117723664138703,-0.36506074069323596
97.60845184326172,1.3180999755859375,-0.364811538443334,-0.00798517101599941,0.12478450919851393,0.007507743620906643,-0.24531728032242436,-0.7288517817486939,-0.17255475578055474,0.3731650936067597,0.31136186211139294,-0.6571277729905339,-0.14486855291132097,-0.3343084256000447,-0.20637911097678374,-0.35994242310937136,0.1709538441960124,0.6369225491937672,0.017435517503215484,0.0768056351416306,0.024716224055486284,0.181534819353244,-0.14261147742607044,-0.04934529698585794,-0.049794757909618105,-0.031442671388689114,0.20401861530074794,0.30433430145993434,0.07662533045576488,-0.041642425486110496,0.06721866164566319,-0.05644348248044448,-0.07371632718449675,0.02693076817368999,0.06648703791397953,0.00148952413626364,-0.024208485440072293,0.08454010989653912,0.02379378934504188,0.1270266751880892,0.10041838571828017,0.14557787293084287,-0.03755686948518987,-0.032558026686495906,-0.31781243099236783,-0.06850165482328067,-0.17288312593114152,-0.17610190177184443,0.038284105965568645,-0.11940318126523666,0.22394803766248433,0.06662297680673325,0.14206030606973816,-0.05241959895444625,0.4612777615017668,-0.06301526841658639,0.0329867465807136,-0.007996847880241218,-0.13875979248048384,-0.055109382626322215,0.13083128745984035,-0.05395027186891209,0.044795526081528245,0.03712704605147922,-0.042028056981067256,-0.018262195449770455,-0.015875556564283123,0.020451675150523766,-0.002665036233155833,-0.008745873008956753,0.06674033340596944,-0.005161356911244778,-0.07357579877734427,0.00034220780002907367,0.036887800923787045,-0.004853045593127503,0.08451405243020346,0.015632203808470232,0.00047242899498419616,0.0010383325040544374,0.0029426676726782013,0.016112206299569432,0.011256682517704966,0.0010373767309791058,0.0004510243231225415,-0.02830395672120618,-0.00822336691966143,0.01874719916904337,0.0008622214536014204,-0.009559434081704149,0.010666403087480689,0.012095486197333508,0.03188397202995873,0.008795210077642437,0.05384374821640267,0.029830266086625562,0.04775530569930406,-0.0618017806239141,-0.05685705773734847,-0.11215163943217188,-0.3235940103556128,-0.1622999639319411
98.92655181884766,1.3292007446289062,-0.15195095320607516,0.027309029849871987,0.08657048881761559,0.015113504557119847,0.05402505608806187,-0.06010261571523384,-0.19794602525867172,-0.2376591816016348,0.0060168380639221974,-0.14383545388248106,0.5126948045710092,0.17212117455742718,0.12904255510337093,0.24779023400069605,-0.13107019610915857,-0.1843956629192556,-0.023641775712957044,0.008223542904433138,-0.015690045076378514,0.03790784527848406,0.001825141376026941,0.0024014399281873378,-0.08178671128048838,-0.021924553209622697,0.027568138728516395,0.2781935638628228,0.19194768553934297,-0.0004890060729069597,0.009785969864850839,0.06484747471464912,-0.005440346413133014,0.0045268088763261195,-0.03897333884429349,0.18065617843028262,0.047906307691091936,-0.049371149202426516,-0.051781680875797965,0.016094755708484763,-0.09977505404218165,-0.14998716494353675,0.061023554284569036,0.07429031303277092,0.03674068620720164,-0.15112281090832708,0.03973467053239778,-0.08431815646573523,0.07118523634843776,0.07767640018781576,-0.1657593516950493,-0.259676956178996,0.002398584052912857,-0.13865880824385884,-0.061257346268847525,-0.20279699414651353,0.061924678650445944,-0.031375668929190914,0.019217981443957494,0.018328068410634633,0.047614373787214524,-0.017853260620069217,-0.07331601951342778,-0.14430969420844536,-0.12568602566962117,0.06159859537726104,-0.12464777685103205,-0.0038224998436353526,-0.0038476276437530536,0.002440397476617071,-0.006030133920944187,-0.0911519939082488,-0.0015720017642203116,-0.005515712912232089,0.0018740735583212473,-0.0015433355753694039,-0.0008884932904702227,-0.00024266052036428336,-0.014817779069208165,0.003054293907784043,-0.044283093113159665,0.03607735412425588,-0.01545647865853676,0.023314434278251372,0.009523202509523857,-0.07034495721589919,-0.031144402005721432,-0.02140441736571023,0.001321919001804118,0.02642056394104454,0.08969818429411633,0.01303384301207724,0.003256269289096006,-0.018379205312817688,0.026433815615061862,0.008060641313910474,-0.07639571842432238,0.0071271379606786915,0.0749612573444349,0.09163812947823374,0.17328420327253494,-0.01166513780386625
100.25575256347656,1.607696533203125,0.0016679557767655118,-0.1001006510101085,-0.17065247298105815,-0.16656622108844987,-0.43026416008957663,0.015532733984563486,0.04317127414946546,-0.08220185439148045,-0.24705248047978337,-0.2280144855844099,0.0012627389471744008,0.12810920470912296,0.29791439352951565,-0.0029188129528302797,-0.17414697625784675,-0.15134480263922281,0.0019941728189090575,0.0028534641018542915,0.11112948283245618,0.00434401576061518,0.07565107744985317,0.003871230441166956,-0.0022978944648286825,-0.03333274370076287,0.055132636175959746,-0.03065573969126581,-0.057496154068937017,-0.03322665253975839,-0.11947246246079221,-0.10610033541605637,-0.06664611355191379,-0.08061023535691075,-0.019347924124391836,0.011878963714935279,-0.04365370679267647,0.007898172273544515,0.1081294957046806,0.3526010992822383,0.04744008698331449,-0.0006701339871782448,0.03847294915546088,-0.09771178449760023,-0.15508775228990526,0.05574385650363707,-0.15547333914858372,-0.18481113201846555,-0.09593202072095075,0.25242052948753374,0.19914653769757837,-0.13541115329470907,-0.02591447976762007,0.17226545895695544,0.0908212237488915,-0.035308992795239226,0.07617996295742294,0.2059957803109161,0.08779618969010909,-0.05530769263914957,0.15966655975506883,0.4486305860595773,0.4830100577284885,-0.05028674714347487,0.007163084819217316,-0.07037760302454232,0.006696651131502484,-0.009056301395312815,-0.007855338947579503,0.01057867220952757,0.0007365607632009025,-0.0036720144581275697,0.03033328886312731,0.016212562035374696,-0.0360104777343147,0.087791677772114,-0.04046798796524476,-0.00908794718205361,-0.006865149193070905,0.0026978514254448107,0.00015071787672116157,-0.02831662458085399,-0.001503312916479915,-0.01527311350157343,-0.00679474480154735,0.009439705881328465,-0.05836886617742774,-0.007053439147028204,-0.02413805150254557,-0.07459349250700478,-0.0034478449491889647,0.026866842821941697,-0.02246225243533985,0.0284760934590731,0.08216781708003133,-0.0029920679242580453,-0.008159985418261212,-0.010911761282733405,-0.023715427296387575,-0.02766969156748429,-0.020975713626802464,-0.050482520534238184
104.76024627685547,1.3385009765625,0.01851752778422415,-0.07795501439005718,0.07128533570000672,-0.10650850977430833,-0.07012353572321013,-0.06348714122864688,0.05163841099690161,-0.18251370991828975,-0.6175385070641493,-0.44917974797235327,-0.0586464585886965,-0.11056707488413507,0.249525224238782,0.7458379964631121,0.07108548274089697,-0.09992706851689502,0.20270500137372985,-0.10748859763919115,-0.08872755353575851,0.03937538718905284,-0.11416829488982488,-0.02822749675228019,-0.07842489759314301,0.010032056695595891,-0.12878646589058904,0.1020904764079506,0.028107307348790665,-0.05821593061317956,-0.02813229016026792,-0.0306886127706643,0.08089209228643346,-0.038572472095149045,-0.006842850659845086,0.09957539099116294,0.12242296981855492,0.05840224706539052,-0.01594826233726112,0.008887759172467653,-0.057473785967256004,-0.007093164069749131,-0.09006781779938278,-0.026776493565501602,0.01302355819543113,-0.09881219568129027,-0.1980165358993371,-0.07049901153553752,-0.07899227089950901,-0.4076174465549745,-0.3994778603383024,-0.044402559617461666,0.0006499525975834919,-0.15271512057490405,-0.10405539071341538,-0.06590015774062585,-0.17268519505640495,-0.26911117125133704,0.011110103470115582,0.06835261410231101,0.018476547610082234,-0.1409655875410953,0.1431323359338404,0.07111172282007022,0.07539875354482889,-0.004543731620418294,-0.06829551396485557,-0.01546727294134934,0.005643285890400265,-0.060301293502119144,0.04753526527764404,-0.03335217916272428,0.03338662605353544,0.016872575039942567,0.003540357083261982,0.009604837766537944,-0.11321087483496517,-0.004903285659207594,-0.003592449674173401,0.0646281792431884,0.024789617618637783,-0.00454184601643601,-0.015322357953240459,0.013162792369608198,-0.10866283419133398,-0.037057244727657396,-0.008776165668528279,0.021112430935882547,0.04066371218386978,0.02003955865276455,-0.03205773692293292,-0.0036463658188101676,0.1055345632935435,0.0866417503690323,0.0026960209146083417,0.002965004282324188,-0.02250814630216896,-0.06802019627225889,0.022791493231077858,0.024567067855936292,-0.026003134991546613,-0.00591342158105037
106.09874725341797,1.2982025146484375,-0.0013017172260606103,0.07067523736647022,0.0450142515513649,0.03361539442014038,-0.07072027371516551,0.140656598069352,0.11763779609753054,0.14842186128730223,-0.15101654074501675,-0.09746382323105425,0.13607771852341533,-0.13842392300856865,0.026867862251200803,0.08963769165234664,-0.186711256332288,-0.0795170162645957,0.13074579953132548,0.07611743337587931,0.2358130365282366,0.259297225004061,-0.05675176486707763,0.0863979613907889,-0.15244735560676798,-0.09588969720040143,0.030596022436741924,-0.03917922698981065,0.16103103753924952,0.08950579711183415,-0.04008524479330508,-0.010340705927356222,-0.0606308047501754,-0.01800820702129651,-0.07265537237817092,-0.08744310788934703,-0.017094827109589154,0.03067732446806097,-0.02707384043259427,-0.15496038740785298,-0.016309266875054088,0.03977049758989445,0.1409155476099108,-0.1077061456833415,-0.05134294597664678,-0.10253896574699371,-0.017530005227298563,-0.014111323153779923,-0.03613917291240297,0.04347063503175404,0.1368924486884477,0.13696098434638762,0.1672203352503484,-0.023049571462347783,0.018531596989612355,0.029379879403068493,-0.18756408794043966,0.16734851056705516,-0.1041838928187214,0.035506109753495566,0.05754956528253492,0.04728890403922681,-0.04199759997180221,0.004786985655543835,0.32450747920410566,0.34683465505225075,0.06839746197285125,-0.030976421205853047,0.0011592822770607157,0.009719574293422175,0.008823977880230616,-0.010848270758420948,0.047183579788228354,0.02615041965740534,-0.05962676551891765,0.04179056067806348,-0.07355096012722324,-0.030231069270287726,-0.03758331141010514,0.04362586201718056,0.0035493356615730804,0.007810947445485568,0.06098322209132496,-0.005156541031054528,-0.035155425115363154,0.030602243705035486,-0.019893187632275294,-0.03798701054069947,0.016745835374142273,0.004792155178865401,-0.04339292271695918,0.00892319970773418,-0.0022303983076423176,0.0090427094408422,0.0702094332751092,0.0071461580955820975,-0.008028660937465747,0.040496500165481265,0.0932511462894176,0.10663864975548147,-0.02320119392732236,0.031127836806658878
107.3969497680664,1.35870361328125,0.041677957680702094,0.052048302765693936,0.018139610646157205,0.21496765564371736,-0.0137340435397912,-0.3904235819012755,-0.0631276756435162,0.19391116403809616,0.606021871272344,0.042779360391953736,0.3131655082896154,0.16637573163413472,0.04026975291525935,-0.024524738781492993,-0.4195971008254173,0.19218725552700067,0.10252286706780171,0.09504544046595254,0.14442900851242793,0.09153730981144176,-0.01247988109030812,-0.1456923881809105,-0.018209771410776864,-0.009705739518633502,-0.054695769738046754,0.03241115783325417,0.018717911856078656,0.04248129600451472,-0.002124121308621027,0.03942901648748392,0.10781310391317743,-0.13417446175948228,-0.13436292159962318,-0.09135666527665338,0.05131000994274347,-0.06400898912072417,-0.17051768711432794,0.01615826620669146,-0.06029976697632687,0.07400993274949473,-0.09136608730414403,-0.16778912301618917,0.19568374955405218,0.06070612778413961,0.1480664657355688,0.24636326426657665,-0.3148994250405108,-0.18051344388543078,0.10718559060620342,0.5370662046966047,0.5646236682884999,-0.10248839811727654,-0.16210651569151174,0.1485283620035781,0.15883185892182242,-0.05249199656432382,-0.043424955847878345,0.007421759055460424,0.0180433083458722,-0.10118212371017797,0.041252127666697294,0.016068863922004028,0.05839183483810643,-0.0026576313957735725,0.07183241587184966,0.007616286852632817,-0.044534415939299896,0.0057331444744921686,-0.014697087678725738,0.0034694113693149254,-0.04974161259751904,-0.00037233846656752273,-0.003667322075725508,0.042073689611435046,0.06402015243965554,0.06308515469872314,-0.010763635529649334,-0.04217001349971616,-0.01879718060480206,0.00720000453002125,0.007280254807079184,0.02563218728188002,-0.10213951670995636,0.026958550227310585,-0.05547962491046037,0.03908236101929359,-0.05801935365808517,-0.003988803684590689,-0.012057730457212354,1.8439608023599003e-05,0.06762269850735678,0.02344762772864814,-0.06964337289952877,-0.019427623152393957,-0.005154667646679718,0.0522359294452844,0.009554644781608508,0.07605557302478184,0.11828067512486416,0.09878209542292435
108.75565338134766,1.3685989379882812,0.09772505660240204,0.04010719562034122,-0.01764996739283843,-0.026970363801201908,0.0483643976535693,0.030102294924068355,0.09082305610667074,-0.04043920814342108,0.009962651189858396,-0.00805805105460114,-0.12597033094720242,-0.16910094015364496,-0.007345416254979475,0.1862406529564246,-0.037344969306068204,-0.044900623428282646,-0.057204713084752314,0.03513947496057506,-0.012128031189767699,0.008056371936407018,-0.005466704631086862,-0.039937110529211436,-0.09155709633161564,-0.02128650948732548,-0.018618111933914216,0.009704865463168682,-0.018851088130295013,-0.009291707436927234,0.020333735879888126,0.01324775772386102,-0.0522719144613375,-0.0052443895693647154,-0.031138529130097053,-0.031102099776242693,-0.00842343909387478,0.001307941056470474,0.027855443225788853,0.017544692508678492,0.11428687159457458,-0.06871271630605023,-0.12473963071589843,-0.02794375699838963,0.1085198087020461,0.1622079671672907,0.22979170464022344,-0.16176487420919852,-0.16294587090431928,-0.067825538530929,-0.1666814310413638,-0.206852649644818,0.17051047389352564,-0.23564767200590062,-0.20395284208469044,-0.3496972393256527,-0.29750079583099115,0.11632120604001317,-0.01380863329573307,-0.038637170938650836,0.006100265635054667,-0.009449494517392645,-0.12653407718450257,0.23343298524543787,0.03263375227451201,-0.026319931659465168,0.09804507584138651,0.0600966527377903,-0.01684912759430898,-0.019912772804970925,-0.0064719443080325356,-0.0027748068808673555,0.0013065563872653536,0.02257865988217001,0.019356545762341526,0.014213379429633298,-0.10015558185551682,-0.0300798821471861,0.04641230040315404,0.024252742006273247,-0.0016566961555020132,0.0004661147309280283,0.03696654190011807,0.03695120550354362,0.0008284119038283712,0.0015852241947744792,0.08463983253359754,0.07561596537511558,-0.052673009082326055,0.00554261757238847,-0.01982765670263102,0.034694794036772704,-0.03103641411301044,0.0035977914462241196,0.023045768516290553,-0.016914547867858273,0.05678948739744239,0.035398876977856486,-0.06452363596748047,-0.055981103083969225,0.056003304437322335,-0.03487462442089583
110.12425231933594,1.4182968139648438,-0.027148248228896735,-0.0921962245425847,-0.02137116434498406,-0.04058075551674492,-0.02164718303728028,-0.11150508675669345,-0.004060473111615822,-0.10979520934757486,-0.08793733442978013,-0.1864434546302265,-0.2046552668441217,-0.12539434767282517,-0.09515010144340844,0.10284248405661346,0.11968761597632768,-0.23793972897674864,-0.009543474558825843,-0.05033334455455415,-0.048523140603772566,-0.08196756193206454,0.13324854278599432,0.014482094641134063,-0.015481281716329025,-0.005411904022164805,-0.01409704354153523,-0.07025195743062002,-0.04225176730570734,-0.020935016737688786,0.0005318859064304821,0.002931899609570735,-0.08860344277498157,0.028649805333116594,-0.009300490826981974,0.16830182354648923,-0.09510191203083357,-0.10536343149999072,-0.052887860295676575,0.16277008254879388,-0.020483565443894416,0.009495619359115505,0.15426975802679868,0.10264586951262349,0.10279112710048331,-0.04534668306358931,0.06318692264072999,0.04825005841636382,-0.05818194528531169,-0.1601488269941398,-0.2032965937972959,-0.14798036744932425,0.12372268668434801,0.5468041430773015,0.31757891843330655,-0.0437716907603933,-0.04574243473424462,-0.05096108305903626,-0.4679538256455668,-0.08685978229884346,0.018388002264511254,0.000696514440356101,-0.0019010641208624941,-0.11913194679118193,-0.1240332610202746,-0.13116470074368508,0.1403195210496342,0.010345456200436342,-0.07864674857401212,-0.00983546390049747,-0.014437681301760041,-0.018253462297420656,0.020080903716530644,0.018755740766391124,-0.00020843586695070207,-0.024896900020617747,-0.02756398825850663,-0.020335749332630142,0.0014135001409513062,0.000803757170516559,-0.023350831381711446,0.018865532019103744,-0.0024278625406881703,0.003275385093085968,-0.03977999708943516,-0.005791734103700865,0.016502562703166395,0.03004683149091759,0.008934231753080606,-0.009696164370688973,-0.002991685349579774,0.04738227873405193,-0.005560987983360349,0.005902832318597186,-0.006777861131210478,0.10687628722345166,-0.026350493169657145,-0.03576053772628325,-0.012268573032463587,-0.05353027305626967,0.009434578788842267,-0.06655778117662159
111.54254913330078,1.6781005859375,-0.06426101452206043,-0.08027326055367155,-0.011882726046131761,-0.0624332309658406,-0.17696486475892576,-0.17054279603398845,-0.16009588009292966,-0.12751489359092083,0.4125809959882526,0.13997481754666147,0.0211097081820584,-0.00856750651570975,-0.03512491086827622,-0.2608179512052737,0.05702092044410864,0.24293808810350098,-0.0008329054724658582,0.0029361828696698295,-0.017891770801705068,0.05127920886543235,0.020656078023786176,0.09924355277787852,0.06939581411241093,0.013429474564519144,-0.05645008080385713,-0.01377631451629478,0.09616280632301592,-0.0228473733879933,-0.008664864492138743,-0.02253127018919783,-0.03847283098452482,-0.00038845399980546853,-0.02949847589602518,-0.0036517456567290016,0.04521396592219163,0.010010199935681727,0.10489228642450674,0.04474313169311667,0.07663479697123245,0.0065617992350985145,0.11939651485408545,0.07061620821567718,0.028749722545474955,0.008585315230786905,0.1221282924660855,0.07436245410541478,0.18632076479958273,0.04677448521736406,-0.03076899838849688,-0.33321005257218306,0.014741918495125456,0.015173337110859851,0.05535262197940295,-0.45928096460959394,-0.44672620072336056,0.042681795602586656,-0.14392672433860135,-0.03183483622433214,-0.06947142272209607,-0.25078994894304085,-0.15339393384285951,0.02482400105683667,0.07754291070355485,0.057367411847469706,0.07270488381938288,0.09648279238582208,0.01053303994462414,0.0010201176855256986,0.071590377600984,0.004032869658960605,-0.03767161491779361,-0.01715818787744512,0.0014809790993376938,0.017439576756877857,-0.023242418560296147,-0.030785096653212177,0.03306163914993654,0.01828710181967688,-0.07395583490320093,-0.008271067231780532,0.018489016712153666,0.06024416528289354,-0.06398539292957227,0.07325816863537905,0.0022488415831578568,-0.019998778827458957,0.013148494045707603,-0.015997601302901454,0.00472020457112592,0.07609057747488852,0.028845477539968266,-0.04655409820177869,-0.10515866811916048,0.02197810321545727,0.041482885592910315,-0.08727302476748752,0.11234219217560022,0.022937687092658088,-0.01981267136648667,0.009288063234918688
116.17735290527344,1.43829345703125,-0.1446075284324142,0.03360588172075716,-0.11770583824857428,0.012676730115445744,-0.0014904947759974557,0.00076919286836666,0.021524862107059825,0.15870883841599223,0.059159220084445005,0.13923752742262774,0.14868882630664007,0.05494171859033002,-0.05494236596061385,-0.04246894218153423,0.4066541230989822,0.11999617286084371,-0.011382849004034511,-0.07111458329179747,-0.03712438813604345,0.04483075418155965,0.010428027777231098,-0.023736695599558634,-0.08537707782505075,0.02228487031292032,-0.03161041466180334,-0.14074695855332478,-0.03380554279740613,0.07186723656009679,0.09065204428889684,0.021561033839960664,0.0398366235165685,0.012287651594891032,-0.0026127567030183874,-0.02275151281363837,-0.013610598022382507,-0.023593314448538967,-0.036628250815056704,0.10596413499568716,0.07244312139806704,0.08193279090497649,0.16791887693170998,-0.022168863179192453,-0.017180310727087696,0.08642876212838266,0.16682917591942503,0.03387675786496572,-0.13021873271788764,0.1957833060042955,0.21734338619542232,-0.14838345530694966,-0.11754107855350933,-0.32988134813729475,-0.13391180393649926,0.08200967315535225,-0.045252585767847436,0.022261587595955416,-0.015552706339808039,0.10693171889925332,-0.012108858176264841,-0.11908638259182172,-0.04612652014996978,-0.17492119974119202,0.0020765887733008807,-0.04242665198134303,-0.051943354079335036,-0.030727708030569165,-0.029469323126020824,0.00013116371390556173,0.009730303988519077,0.029599130087050115,0.009679133803479971,0.023735922984470404,0.0074398424056647825,0.00036942567559202996,-0.007059373524113884,0.008893943008995535,0.0005905884249298998,0.04271852358982798,0.027897172489562992,0.06603296505505754,0.04832773845292114,-0.006356429957610231,-0.03884241713485729,-0.011313785845262603,0.006977161911237363,0.04565799746081595,0.05104922943588417,0.00436213631465404,0.009034840538886934,-0.00462172090651918,-0.003265566498988965,0.025319611904243707,0.008365521690292935,-0.0008038073481570762,-0.032144225339528675,-0.0033853929698315355,0.0011126055953660481,0.04881873621420385,0.07748805137583208,0.07059824808287211
117.61564636230469,1.398406982421875,0.06292990489790773,-0.08028959838878236,-0.051595309799646945,-0.18041471200756842,-0.14081725441412735,0.044025478678479946,0.11984556992551225,-0.1561186432347162,-0.09074331421654849,0.25932705026572994,0.005479779049505664,-0.09254189912483933,0.04924511937557141,0.12342711838628419,0.045230826124457085,-0.032184312030244966,0.18036457469931141,0.03979598111160288,0.02034806467979855,-0.02500822615785623,0.025611982513854423,0.048184626705162915,0.1592160504163199,-0.035345106344684275,-0.1467902190777945,-0.07940267438540613,0.04071056760381677,0.04393259766527818,0.006715259704647478,-0.01022876642467957,-0.011202960701028221,0.07113959388211963,-0.0014678138176037795,-0.05778522812622779,0.04479096929212611,0.1512931306877612,0.1321237413947552,0.13254255204025261,0.040698059715796486,-0.09287517224736425,0.06141734116872598,0.40510815167004827,-0.089813649810953,0.2015438284380584,-0.19310513247304328,0.03965233215493309,0.11622794476434924,0.025610218188341714,-0.181165938355626,-0.09870584161743051,0.06377727355314654,-0.05273123035539344,-0.28910243356512705,-0.0571948401656861,-0.21749182553501534,-0.1208069393128714,-0.1992573376457036,-0.27971691845692176,-0.11871059177774457,-0.024918797410771812,-0.053863526666130604,-0.06841781601122127,-0.023719349144169295,-0.013837634236428711,0.006695296734945566,0.009390658468066578,-0.018522080728021417,0.0025168285989285687,-0.006645164303299617,-0.05209156457695035,-0.007917578443599192,0.028217689754749063,0.0007008307716421599,0.00026501012780589845,0.0035368222424817545,0.05033239319072062,-0.005655997146313864,-0.037691501511461355,-0.024862739955951594,0.016525720052544015,0.05814589166859538,-0.09329932069760834,-0.07454727247461129,0.03279776983315656,0.02501949398571442,0.014698423899748512,-0.01528287339430536,0.021830175557277523,-0.011676176447630037,-0.03300924021303311,-0.029115456202759234,-0.011188940403557049,0.015923198425719175,-0.027910101493152213,-0.0702818979854063,-0.057597596923510935,-0.016751223218893174,-0.035912807004807375,0.14105573560849086,-0.14155344190148697
119.01405334472656,1.447998046875,-0.01042274562713591,-0.1534452848453259,0.04236165137423065,0.0762594193811382,0.06967448317750241,-0.029203611080400392,-0.07214129535856387,-0.04162041822083371,-0.24546410525099294,-0.00887522549866182,0.08751853702939061,0.0734514423445492,0.08935261903038273,-0.17612968365565979,-0.20138588638783256,-0.023959849879413218,-0.052108234130610075,-0.03289933219348934,-0.054351840786356076,0.03853882701423596,-0.04168961240906558,0.03098330003531634,0.04964079759952136,0.0452221467745884,0.04733341337569013,0.024350093694800935,0.02730666581443586,0.1353334256990783,0.05858631751748668,0.013256542144596133,-0.010342849503848596,-0.020008888825979478,0.07272782008350107,0.03651482836228933,0.07686070555715291,-0.040994275712034345,0.02767099272468589,-0.004492229719109064,0.04223820550705197,0.04835922238581021,0.11499612455522516,-0.00448605819357472,0.008549522087426265,-0.0481383513577224,-0.15069907781531594,-0.011178934780374138,0.11934274923558975,0.24436021307711803,0.13853779172505837,0.05163237396234382,-0.0033064823779589414,-0.006849126187888643,-0.17708867151223895,-0.061000639866470974,0.15990970688597855,-0.20973820881873614,-0.03401673906286143,-0.15761270151751522,0.10477380830094482,0.014244464629596859,-0.17729951280188108,0.030606182526680837,0.053592331187594634,-0.08537673252647977,-0.01376122274566681,0.053691316856854264,-0.018884588088146262,-0.004646931200384797,-0.023399137741510458,0.006509452095272219,-0.0025593180821788294,-0.01492029099988039,0.0016974049663726946,-0.004715299384916432,-0.02596880879229363,-0.043536725469667865,-0.039456501031284,-0.011538347999403849,0.008741133094104894,-0.0010338550579153897,0.0037149697164206774,0.04181024969130168,-0.009955817987699801,0.004017123588274285,0.017968687615058085,0.03846022966047717,0.009950817068835485,-0.004159084759826088,0.014768012378185742,-0.058372165511783924,0.07174060796133347,-0.04601228123148679,-0.03308135384927445,0.047644013010843256,0.046249026417360485,-0.01632180729051182,0.06183037189402362,0.025031842939819027,-0.07116826972592183,-0.03708926135565553
120.46205139160156,1.4086990356445312,-0.033890340474257916,0.003774650712155797,-0.0002557384144092564,0.035203376127470445,0.09077884932212758,0.07919575775347251,0.12588463172366127,-0.011804533545170666,-0.09165844234879991,0.019917736572114413,0.10464203452007179,-0.0003063956457568511,-0.1318893407348991,0.01155285408122939,-0.05122114368877333,-0.027918595390608467,0.006410914436286734,0.018362023375386956,-0.02867906583094619,-0.03343144494145299,0.09950928188391335,0.08230245689410634,-0.0023865360367166097,0.016432417520571063,0.044979442784928186,-0.07026812963172276,0.007907131218611113,-0.07297704882684182,0.005811277119468508,0.13955503500950314,0.047545530027329266,-0.018633674253296165,-0.06927867246666108,-0.010277885900500015,-0.08307778897963763,-0.03403073589247113,-0.1051648269755515,0.014157223664655341,-0.09292227458856622,-0.04816131442217469,0.003412787809416997,-0.10239037008494413,-0.08866517848292414,0.09505326487307314,0.06671014304634301,0.030551065847155168,0.11593088061292538,-0.0468247618099986,-0.11676409454104697,0.0004481232963276516,0.013537575960583848,0.17636287591206076,0.17968562272780725,-0.020461435501599665,-0.10009377155144455,0.09224725996287955,0.036126735925892814,0.07649582212976143,-0.24586705259817881,0.1385862714136372,0.17126642340253553,-0.030737586580859573,0.08819665686589079,-0.02897617471161597,-0.01401737701676784,-0.02424962006117928,-0.04619059081873064,-0.006114971439009834,0.07135382832985486,0.04016809113965765,-0.03112781964223546,0.0002534762432691018,-0.00041527610631171677,0.0012831599641946283,-0.029258594608460003,-0.009113865912551254,-0.08866255533593731,0.012122391847303557,0.0018334607769564446,0.008195969060997616,0.005003789176312393,0.0003005196455583059,-0.01878295832302226,0.07061485103060682,0.02427758453737039,0.0002997131107956762,0.06639184288139348,0.016174182000420558,-0.010659168692058739,0.001205658397755827,0.035411624757307456,0.0037918467025140805,-0.037716054103844196,0.06627934833057583,0.019269687145825422,0.05517435995251572,-0.0024129135371598505,-0.0675732396312542,0.008671778474732258,-0.15389801676025805
121.8707504272461,1.3983993530273438,0.0023175521821584,-0.28910548254117524,-0.06579822909419222,-0.08690969211644882,0.003477175467301325,-0.030920535709786312,-0.13710430232322393,-0.17158373609537853,-0.14444827987869596,0.12858348594093588,0.17394614182344936,-0.055061371392435186,-0.23712395083510956,0.3368047964128026,0.07951957246735855,-0.08066011082884478,0.024177534989678232,-0.0314598292492238,0.0306732347391246,-0.07385992293822405,-0.0827297493585061,-0.03004230317319807,-0.020846637877557552,0.0056490152466460945,0.01679996380922146,0.08229955015390164,0.011525483842062272,-0.048671244615591754,0.002483197048118076,-0.0645007686055384,0.001963631141780691,-0.0140585624600282,-0.09551682531873797,-0.08300849577042446,0.05109842631547731,0.022623328949069533,0.024865352553683134,0.04522198530839723,-0.1386363249516869,-0.005668977912933745,-0.046668428809185813,-0.029780262613754355,0.22569818639129294,0.11435169861925623,0.10172247176215364,0.05622904791750821,0.08197381955263273,-0.010322325796400486,0.23708581545009705,0.32268994828140757,-0.07925806287092557,-0.08685516877738467,-0.3306196633112428,0.14167705484823118,0.33562720419821324,0.06283264771730696,0.08603874857545302,0.04861883651189412,-0.19147191349724854,0.06384128735003898,0.07742251026989827,0.15856286990438961,0.16020367492684107,-0.048505572582769885,-0.03831142926048922,-0.03564025639740794,-0.006151864422635893,-0.02274316674724914,0.015576623872155863,-0.0021830245297534026,-0.09033103710323884,-0.0606642439923884,0.0002706585283200109,-0.006437823683383203,0.00227291534466875,0.0035271662243478636,-0.08439612110035749,-0.03352759274483125,-0.03917195113024822,-0.0018435534917688639,-0.02155230657733072,-0.03805234896455657,-0.0035072555757054164,0.009472655020007777,-0.007762822280891299,0.004448602371974018,0.05719248068019858,-0.002030297947948548,-0.04053038300194482,0.006020218935618099,-0.024082746443155015,-0.06316020066576263,0.025402771643637957,-0.010658629815750484,0.006248353551446749,-0.05361873497872249,0.12641758885112314,0.13014508738977013,0.24958876510301675,0.20710054282220902
123.26914978027344,1.318603515625,0.20368242356481675,0.09354196422475225,-0.20110875435236678,0.02128435979319173,0.3192795461727125,0.11972187336973562,0.09125618066037686,-0.012234361623537506,-0.3648251920887971,-0.002054971561400453,-0.47713894955416447,-0.33393185453493285,0.11298186064409069,-0.08716606675190787,0.070316938177996,-0.09134241313375525,0.06261290757046478,0.05996460795465726,-0.012843252268845131,0.12204033535526823,-0.07112205722434899,-0.19434420335768438,0.034361262780538714,-0.09746533892887123,-0.015589033220272257,-0.10320374405728196,0.12368347524204752,0.13045981303929918,-0.016457948031743375,-0.027678416685437465,-0.061450449982036665,-0.11043262666105062,-0.1425116953540093,-0.004133129941444824,-0.06691514132109337,-0.04590366911280088,-0.04902345966024098,-0.13585578184761243,0.17602610871220425,0.21253980696106162,-0.019228350451092217,0.007566400652363084,-0.06617245979552051,0.4612262201891705,0.03546198296968037,0.07303083637958058,0.08284794528762104,-0.016133854716965882,0.11246283042347054,-0.05376658459355829,-0.13233927805977538,-0.29230019222164155,0.09901427723265785,-0.012548784008099901,-0.11745431466481641,0.0683103297044793,-0.03568199468860888,-0.10103015384795139,-0.062398161281294585,-0.21576452116509554,-0.12328382511127378,0.018542716898765098,-0.04974255663213258,0.018226636305811308,-0.0035369789664880975,0.10889523945007909,0.023902446672099197,-0.0115396499808639,0.032929969126219163,0.009404233182588186,-0.009812952858523493,-0.013293525426832565,-0.002150046453066995,-0.011629254609718313,-0.01719011838132243,-0.004802719428549723,0.00650742990213309,0.08221129852156614,0.047280323969396604,0.03466424118439866,0.04513303277704046,0.008550672194345847,-0.03424473196010517,-0.005837371520479516,-0.059957640821956856,0.01573574304454322,0.009426341079980655,-0.07186751651779268,0.010202346575948887,0.12114313582834764,-0.02021365641334786,-0.04917147073751459,0.08221453415232534,0.05439794235274832,-0.0008821841287307199,-0.036234420880530624,-0.06310885994184218,-0.0038588033378848443,-0.060992925415150535,0.003039168582794633
128.5830535888672,1.448394775390625,0.06681196433873982,0.029220088256682607,-0.058808992506393626,0.012178464920231918,0.1456984244001872,0.12503700952648056,0.08046680019907251,0.010476894432681738,0.004396838086169081,-0.09789501278683141,-0.09980789879879587,-0.16287198766929784,0.24817933820303464,-0.14304723390818522,-0.30398740414800596,-0.16196549131112925,0.2548666911421633,-0.12637830960016982,-0.03943218632840991,-0.10029804145229285,-0.04896031380711591,-0.037831954496007326,-0.019057349822940148,0.07538967393754438,0.08070403575014815,-0.0073543341342137,-0.04003774408670116,-0.035646388326293105,0.01146406809610978,-0.05502378166106411,0.006010136470131161,0.03274988294298756,0.055013062597006716,-0.019480418704165885,-0.04048332848884265,-0.10667798945405343,0.01575585588003863,-0.15793670329748755,-0.07592399045071627,0.31346682488596656,0.13826591264408514,0.0658955052293055,0.024330388771139588,0.04530497973964639,-0.23329652855917962,-0.4211410077364021,-0.10355025690367754,-0.027221096512341433,-0.04853324427189885,0.1791151253232974,0.23043286039351035,0.02047846486484367,-0.046512640938885144,0.016204272363365774,0.044823734518212116,0.09764698405520242,0.01663696874230756,-0.16583361729298296,-0.04720560923771127,-0.05729420196477979,0.025683732767519042,0.02827089598327453,0.05774967376200236,-0.0005060370754084893,0.05579607094971381,-0.03282335625803925,-0.0318669192678819,-0.03472061978819938,0.039988465540595285,0.03854853189747375,0.043049603553451395,-0.010704972424312426,0.008195465003033623,-5.024608208553487e-05,0.008962053546476929,-0.0006641438455136741,-7.303735181274362e-05,0.002814225543845993,-0.00559109600144618,-0.07513805021580003,-0.0007061103950382897,-0.00456106064216331,0.09070984208337819,-0.04103466987558539,0.07295807548352706,0.0617235744459213,-0.015757459930087946,-0.03572311570200205,-0.005020658564228407,-0.1223930317803882,0.02001276748261678,0.025781820870883022,0.04306723171060416,-0.014759549074319284,-0.05717888686846876,0.044452125459933,0.02426160140223264,-0.030163481169559678,0.07029671204314134,-0.014590234377501753
130.0314483642578,1.368499755859375,-0.016747085217128685,0.05259379256457618,0.16950331749785763,0.05859990233080676,-0.05284695073101322,-0.021507662404994625,-0.06133214790786097,0.15341754533691324,-0.04269775818630406,-0.19263095549749715,-0.45880280778323645,-0.3887334927879122,-0.31074227166772717,-0.2694201644115309,0.04359245164608446,0.04410260603419505,0.08012763982481709,-0.08798832961457001,0.059106104160576795,-0.06328912454197713,0.0019093436694532057,-0.04496214562956648,0.12539210772735676,-0.00900481754641848,-0.18317893826863127,-0.10003365009852419,0.009558136658500617,-0.023101918968593697,-0.1287028237472379,0.008706370949788975,0.01244701605298473,-0.001065636378872532,0.016280143917176096,0.011431282068009696,-0.20977637000289656,0.002449699574092654,0.10497330963523605,-0.030106942062122628,0.034903795200932,0.01530311204515284,-0.15376335883680337,-0.09733336532811886,0.0007144018211055958,0.0016632570467795087,0.03099500597055573,-0.034600077298617075,-0.07530241865839464,-0.24172049884700147,-0.04735187070094826,-0.03794482366879854,-0.12617728803061778,-0.16249677426934,0.15978941761567966,-0.29181030311361134,-0.14975608684565056,-0.17781732476137052,-0.026332839399635204,-0.05212027606538662,0.08290311468525308,-0.06408005602682454,0.125771319674225,-0.27384933761498126,0.04685826905033412,-0.023637781573770916,-0.01679864311954531,0.0022224546743281094,-0.04108378181580476,0.013869921434843696,0.02589198865502271,-0.011834562074806943,-0.08578859147760043,0.007908015351652226,-0.024574254676592126,-0.031778703747557244,-0.09597631936668959,0.0024816296022213686,-0.0010218450966327061,-0.011382755980315757,0.008025725974600825,-0.0069094694394748,-0.00044485849126304426,0.0010907186138092043,-0.003560973317718035,-0.0004713019091214808,0.0074430814810401,-0.08622975346838922,-0.012279221362126957,0.003953401378183514,0.0017352333320303057,-0.0051503613136139785,0.06616525008508475,-0.004869634618501464,0.020887360657143805,0.021183018523090413,-0.05385114025019634,-0.08463368597355916,-0.0224300494521006,0.005770645660716965,-0.006727717934197831,-0.08703653107218554
131.3999481201172,1.338409423828125,-0.09213848977980645,-0.08372517453201518,-0.022084269407928216,-0.04912090397020946,-0.04953554978104058,0.13356246171413058,0.15964915553457348,0.1130588663597142,0.0066524295474037175,-0.01862807450936986,-0.025255291646820294,-0.15940132084392378,-0.08274208758966856,0.14219361007800885,0.15153431162737666,-0.059280476220712565,-0.08860748052336452,-0.11538101557119179,0.004931617100964514,0.026625299471671183,0.04213887355144874,-0.004157358729212876,-0.09872578325877346,-0.0724473842541468,-0.04520269945512144,-0.0025996808147020615,0.051782922523369995,-0.015592025562516678,0.059991223804563,0.06133699605304803,0.0331018695036469,-0.03516578499487369,0.02011846974972028,0.042180272230054404,0.012173200450166418,-0.005097295967483498,-0.16012776111017915,0.017741961668706046,0.11489266182463415,0.06810570218968238,-0.0020655861372984815,-0.09818674069877452,-0.012389195753840782,0.010533681129828219,-0.007008072745686104,-0.09139775431536458,0.09603097097794329,0.11013792046034361,0.2854515223091233,0.4043673221905774,0.14408090877723262,0.1131239615489292,-0.01957830199292215,0.15065142375694968,0.10544513430315959,0.005609869816022456,-0.18307933114676234,-0.21689385222466964,-0.05383618639920911,0.12140433776519652,-0.1336128453037038,0.049951061146727004,0.15575062609059084,-0.0884392774506579,-0.013159095178350316,0.11273729490047413,-0.005419636859313812,-0.05260483637018695,0.017181415677794472,-0.006040599421904405,-0.025832186269231304,-0.009202545255037591,-0.11373133632686294,0.08031012278766839,0.0806651333284077,0.029252512684337255,-0.004277774728387754,-0.00032905560123609555,0.052206911036738746,-0.07179672793453798,0.06582268964988906,0.011911599690012983,0.0038842239680616313,0.044511134686569837,-0.04075116372363932,-0.014817046801785546,0.009304950874222246,0.004361347014449885,0.0016214976860817374,0.048107316191832145,-0.010173889562677714,-0.003765681988444483,-0.06885661304563934,0.042912167354684845,0.027354257258033966,0.07944428259817475,0.0016357115761231403,0.051645734304570784,-0.0095200128593669,0.21186053529553578
132.7383575439453,1.3384857177734375,0.19432066701211498,-0.0791469477334909,0.13024646547699364,0.0026071080155477266,0.1607456546827256,0.05480658823208954,-0.21669891266416386,0.128305333281701,0.00798218358536959,0.10024427178531983,0.35697995250788433,-0.23679243734906466,-0.15816381735578264,-0.045376041116419956,0.22989811678401836,0.44275544406596284,-0.04256340991471617,-0.2138163369246583,-0.03181998770183267,0.2473476741022596,-0.11286232333003432,-0.019536576278062073,-0.055532143891226314,0.05133607548771379,-0.02693723670333591,0.0382161005970659,0.02626631743842109,0.030948009177906008,-0.1439553278091875,0.025325583042517513,-0.03332920604394797,0.0437694630391894,0.03370119178321162,-0.012940921402235427,-0.052114872975044566,-0.04041361435914245,-0.05311899511905473,0.14927992586229824,0.25969146222869055,-0.07434295869905255,0.14817183393542713,0.21218675747151577,-0.06081830185741824,-0.12363254033217574,-0.040986241329871144,0.06861952089535442,0.17206209027395333,0.09970667577405928,0.11480834049029384,0.09517161359222179,0.1263748115434401,0.31980447899632186,0.10639688056047611,-0.30915667075131664,-0.09070460627958037,0.12595701569021783,-0.1140067829175363,-0.04431244471395377,0.11258640015551795,-0.2346519888578288,-0.11779611772250542,0.09365187892367774,0.01681953386617376,0.009546581574390964,-0.02063332525153306,-0.03406262072811635,0.01701848340345738,0.01596525317756314,-0.0014431870102515592,-0.0016500936760422682,0.010496676060076662,0.036592717715303855,0.0565940482674397,-0.0031206594017643995,-0.004312286066210583,-0.003560061821219366,0.019323420948171573,-0.0012953533645028038,-0.013173744823777282,-0.02655365267092213,-0.028972956903710365,0.06062899614115098,0.005865640692203685,0.07563560674590578,0.003974011890730112,0.01289139707633542,0.023427728161500155,-0.003971419746105145,0.0024314989296373374,-0.005460210325379701,0.006716599974557136,0.037640324075217384,0.011381975745184863,-0.001289598866723561,-0.028741025253378964,0.03394192804124286,0.057813301441196355,0.09066504803811311,-0.005358219852204107,0.0004006388053744876
134.07684326171875,1.3485107421875,0.0005658088641223771,0.08114580683336083,-0.022426396989292732,-0.11286503084406294,-0.05079782405321127,0.031083694168010004,0.018287778322399646,-0.10918128540573742,-0.02958775441017132,0.11481166228767267,0.214114884083866,0.2034996020564384,-0.04724478248401933,-0.36936143890037826,-0.19486683797916732,-0.291380175428213,0.029757927855360022,-0.007002057686575891,-0.07695393698885922,0.058159170718875934,0.26068137250731155,0.01080188144084021,0.2545851699246733,-0.0539451543085842,-0.01376214274225543,-0.003691323705478879,-0.030854061735611865,-0.004692240865640268,0.026566260028990533,0.06383143276787971,0.02105408801628842,-0.02220317236562752,-0.04365538153935577,-0.07118782110517605,0.004962402023609341,0.1431935313528982,0.013626049543411109,0.03601971328946166,-0.18540228581308305,-0.3933615237064501,-0.11096555882924887,-0.03009175248698298,0.13077865132428018,0.05160132697105343,-0.06041977998996011,0.02112505563487288,0.11148039694829415,0.21163301910797436,-0.1097912750457922,-0.16806320059506524,0.07450551937759607,0.13807777894201886,-0.0477168365362404,-0.0420741000482261,-0.026474817722875847,0.021789856734150192,0.13791000146872254,-0.07539978722834922,0.007401962632413949,-0.09454572997232266,-0.048712009708386544,-0.012705990142726744,0.16482522999833443,0.07509130386083625,-0.023463616365010213,-0.17596373507308552,0.0018384143944068728,-0.05613788988517585,-0.014892130575900844,-0.0033535369114809917,-0.032844991530467424,-0.03394530061212067,-0.025437909426260147,0.039147519708877046,0.010174950653035537,-0.005777464672260235,-0.0033092361153731218,-0.024422940489549835,-0.049878995466890175,0.04737718294968492,0.04629669390162993,0.005473746290978049,0.00969449715100044,0.0038758137362218397,-0.02013345538175673,0.028772962252357766,-0.00461640604374652,-0.00270273010065622,0.045951760121954566,0.02731746902623485,0.018519179011801903,-0.01097257108628123,0.05689178464523331,0.04739844266382626,0.00046420001025774095,-0.03526125182413707,-0.02369448893235977,-0.006380295584009288,-0.026860370232069684,-0.037123153880143256
135.42535400390625,1.61810302734375,-0.02753165247265369,0.04642499022638953,-0.03543740026637419,-0.04416395533131122,-0.008686004381846898,0.03181721249741725,0.10555822541918672,-0.04668313168476107,0.01068335611402557,0.14910048674000814,-0.26536678882630943,-0.4178286291016185,0.28191010390895005,0.14597093432656055,-0.08541869645547182,0.07277599700504099,0.11524748447413254,-0.04476235698349894,-0.15733520970735984,0.029689002344663887,-0.046374591487484865,-0.340296375896075,-0.10610812703011363,0.04071261884394334,0.013098146320418275,0.0528041358527101,-0.022210656743892623,-0.11266520596337971,0.061185574902224274,-0.049987756890251596,-0.10974299267912749,0.08029841838796141,0.06830229617203142,0.004155219712143267,0.0013596671860368055,0.04365764781453645,0.07864015856692577,-0.057741029836491556,-0.014159532225326232,0.13635286568905025,-0.02081218995971865,-0.06851340624582204,-0.16229850734245488,0.024762934802577352,-0.10895494762263387,0.02145333065536953,0.0140320037789777,-0.2341679461565885,-0.05835700737609937,-0.20075185232850634,0.19045617278159122,0.12204775605741061,0.2367763260005576,-0.07712181272263163,-0.011724728228353397,0.019655407951939957,0.23594728611149715,-0.15433772076806745,-0.030357938101618576,-0.04290816249815041,-0.0947846527809076,-0.0028284798288685815,0.09969151414599983,0.0008409233351578399,-0.04144389892804243,0.020000912496154273,0.001187340656023547,-0.05561330102294881,0.0235992744360721,0.0035987525478979616,-0.036024676962570154,0.053950383502356314,-0.04899677592991687,-0.04426062293807363,0.011730775200807241,0.007887359812227395,-0.025419418787096165,-0.01761817422842009,-0.009086173923158532,0.07647101949113685,0.016169108408376074,0.009143198970418237,0.027927100923332365,0.0037371332171253413,0.047566676222531704,-0.0025198805127387247,-0.027044830963639844,-0.06041617294377461,-0.07359720401069586,0.012544081233401139,-0.018707969834862392,0.0034257635106607095,0.05676354421133624,-0.01253642970862895,-0.012268085744699009,0.012914011765743562,-0.06974974107581844,0.004902029063811857,0.0086260788367629,0.10659294637572897
140.02964782714844,1.358795166015625,-0.010754369695751456,0.01653206547192055,-0.13445624877274664,-0.11857163441584015,-0.03571459296593616,0.05754667460758514,-0.08616514887355547,-0.06395899761914797,-0.013726372520170851,-0.21226362967270926,-0.0768039418541204,0.10416070858320242,-0.10099620027330243,-0.19594634790926,-0.16321828710952144,-0.12978642260813392,0.11495591102719954,-0.013903648833884103,0.0748581476661747,0.03016217404058653,0.008514777100497903,-0.1359509583739352,-0.01817252491127205,-0.06477169952304491,0.10144960520355244,0.09732713192696452,-0.0004798706441450565,0.04109882161626675,0.03477564037105732,-0.06154984796642419,0.0329500757721535,0.08750193014801681,-0.01184286204875967,-0.04796681975799033,0.004789819836424354,0.03156076977678577,-0.03136273480738813,-0.015949359314973897,-0.06840795047622165,0.014991827429714442,-0.06449902849143545,-0.028569354485924937,-0.2926210604176535,-0.03517889203551598,0.17871404041854103,0.3306836410053281,-0.043783914274884525,0.06921751738930788,-0.11066712594329138,-0.02126503386994536,0.07698657713003668,0.11397961493917869,0.006719104802325675,-0.09985066145060043,0.13498214065041314,0.09448846977569116,0.42385682566432203,0.016868705697818526,-0.10541868038258101,-0.02721615235734626,-0.05548614047786839,-0.11693939377734569,-0.013744193811703026,-0.0074280475129900716,0.07857042729711736,-0.0074910384483723,0.0063021640729626,0.06102313866184003,0.020570015358393264,-0.0015495273780561855,0.01211489266392691,-0.003166124914308783,-0.06101682471509237,0.005627704321848737,0.01338499844258066,-0.012246829498117456,-0.057795801600436174,0.00017235494810568294,-0.013732634018366092,0.008293052970964714,-0.014176540642448008,-0.002601035082305038,0.010161405009900079,-0.0010348701609153741,0.04294435981068943,-0.0023865607810919487,0.0010252628994480723,0.021867677352906567,0.0067137383151001755,0.05367751696097606,-0.006181731099705943,-0.040639133557984805,-0.04363564032855557,-0.035327739737578134,-0.03820708894386234,0.06994552630877263,-0.03626208595807952,0.0747900582519338,0.11706977119370558,-0.11174968450463048
141.38844299316406,1.318603515625,-0.10252931655051423,0.02132632507920429,0.05896010567432256,0.01915591938332487,0.10588543280295226,0.09340216596677425,-0.14113662959099654,0.045894500291470894,0.4154057358375294,-0.24627588936026676,-0.42368733581184664,-0.2615950360468565,-0.18707186636047293,-0.05931695768579068,-0.3185257632785935,-0.11408235530887381,-0.09429386079066776,-0.39404827500694284,-0.1230127521377518,0.29944031268650595,-0.025600252637952785,-0.1395043923137255,-0.08830550941804698,-0.0056719286036074215,0.08586175195611283,0.2859011188183276,0.06463040457816202,-0.017523599974872496,-0.0283259095839492,0.05757554369427504,0.028119779901458943,0.035927205160545476,-0.12701877865614356,-0.08904479189682957,-0.025964744580429758,0.029409691718097902,-0.00087437291726945,0.03163789432930527,0.013959231019597373,-0.09482382048972844,-0.10327082547218519,-0.022672905108213494,0.07655489556572807,0.053433793023102916,-0.10304503546520484,-0.06459974687774041,0.20292084637420066,-0.1801208084375152,-0.30695102185434603,-0.4053154818022992,-0.1193488963336767,0.099274228949023,0.23745390022229906,0.09333151666429389,0.002136962717182056,0.12528047610131593,-0.025205775088187034,0.006819538263304252,-0.1546276791889205,-0.04548402642979138,0.07738360181382399,-0.15660914474666707,-0.10199636558796989,0.06208752652317842,-0.007796372976839313,-0.06476090547901825,-0.060862283090535346,0.0166171628022899,0.001409122791214523,-0.009009449686054547,-0.01179076930592873,-0.000708387490322473,-0.012057686642472084,0.05465985065777085,0.018536084186282657,0.010618408122510987,-0.04293597575771822,0.006121848292439346,-0.0013025341614405577,0.0029635793022721245,0.0065487698661288035,0.0029719552641861123,-0.02483809853549783,0.07318776316741563,0.010011362302023711,-0.01499646939674659,0.015204372120840044,0.04284458118896402,0.067755712614671,0.009174989826588901,0.0065785322702496115,0.03268678392840603,-0.019054010018476442,-0.10681490245377613,0.02364379584244789,0.017723430944826236,0.1341608021851079,0.15138041587227571,-0.017271498264275043,-0.05653188811011632
