start,duration,0,1,2,3,4,5,6,7,8,9,10,11,12,13,14,15,16,17,18,19,20,21,22,23,24,25,26,27,28,29,30,31,32,33,34,35,36,37,38,39,40,41,42,43,44,45,46,47,48,49,50,51,52,53,54,55,56,57,58,59,60,61,62,63,64,65,66,67,68,69,70,71,72,73,74,75,76,77,78,79,80,81,82,83,84,85,86,87,88,89,90,91,92,93,94,95,96,97,98,99
14.82390022277832,1.7880001068115234,-0.26488790137369456,-0.30622881815821135,-0.08887406149294066,-0.06904549704040103,0.14483172273915226,-0.1982631794746995,-0.0890646597804263,-0.031785626014882024,0.004469884025065035,-0.04247476408719626,0.2630312639853334,-0.0494380850623251,-0.08386200323767654,0.042448293814879974,-0.001574991980003656,0.04287986040656278,-0.002802907687854455,0.0913663247818814,0.06832568463829419,0.02084335185965551,-0.008701338682730654,0.03139977568208998,0.09691827858595939,-0.12987990989188222,0.18247625068968965,-0.08641027346584476,0.0944045586206094,0.026489446573706246,0.10648933488949512,0.1920673019464457,0.037248656682800696,-0.060602136830182854,-0.0256894787387539,-0.05925627263039142,-0.07432527732343398,0.09581059765173086,-0.002642013208632727,-0.001672801799902843,0.011001351466620514,0.00873492043025697,0.011413261937581558,-0.002020099849683268,-0.03191236344578606,-0.0009262163997482713,0.00017991006223824473,-0.0011071805188875735,0.007238916398545271,-0.00017895321855445462,0.0141376374491688,0.009342796873834087,0.02078854032875203,0.03488752596037495,0.05425216645386042,0.012921486297240022,0.00029192452369327694,0.04825024468413323,0.025561002076004268,0.015439140800993845,-0.0004554776219985902,0.0009912665372134649,0.012582534237202446,-0.032197903690601104,-0.002000362417237299,-0.04620673204381574,-0.07395148207603806,0.0021345991039683127,0.0005893217342396967,-0.03847401062676244,-0.07498986949007314,0.0023196287467925243,0.016076938932305072,-0.07540209610705906,0.002930240019298286,-0.021174351832831645,-0.03509212464904751,-0.06193270572155259,0.0046375814120097215,0.011754954293030445,-0.06514272001700862,-0.05000285402450234,0.0015873037698557867,0.08577197254103634,0.021258948383027932,-0.0015984125845715993,-0.008094128907835445,-0.07603649299376952,-1.6440377490609977e-05,-0.07331348601049985,-0.020303664055931592,0.007639212670089461,0.13591575464111127,0.10158212029812855,-0.027597413151595775,-0.025752434006832716,-0.03635883514109027,-0.007575534924641358,-0.1811114261356832,-0.06956598423346538,-0.03203480726885443,-0.011192558491115199
16.611900329589844,1.8479995727539062,-0.007302510642876153,-0.06331655573324033,-0.09622302540878679,-0.03630545037786548,-0.16756738417018568,-0.5083397332357042,0.22186016892805305,-0.18928900127705717,-0.01458129044896822,0.033932199001327386,0.01889517207382221,0.3092009779468933,-0.26696830707791314,0.065034223584921,0.07315787316596063,-0.02929191744075122,-0.2474326109055716,0.0011324802912073989,-0.12947231185559255,-0.07414823864838269,0.3192192014714551,-0.0013701369505051166,0.0031259021455512584,-0.11904554338473915,-0.02655357930068404,0.129524654514102,0.11293285235152642,-0.07239218842685329,0.012078256015171351,0.06083397795752551,-0.032633915973868735,-0.08389342300802048,-0.01644998171107461,-0.0009124589635778856,0.10899931624289833,-0.0007550285853662551,-0.005617053065299079,0.04195197527183717,-0.05049413884850639,0.12282256673918342,-0.03974928132428275,-0.005746308552793078,-0.0006452199410160475,0.008925478476000424,0.04153521954838656,0.02108604306145548,-0.05446392035857153,-0.038498726940997235,-0.08982171520517146,0.11933382396138406,-0.036268595428667845,-0.012474412647146951,-0.0010693188714450408,0.00898627039417511,0.022912379740619035,0.0013942865118641264,-0.006471404079681213,0.008321246623830974,-0.00023593833682241609,0.013787046014442857,-0.0026004144268996004,-0.06410424269336944,-0.20808424675897869,-0.024636765077952164,-0.01867972842129458,0.08087739740313692,-0.004127546281918733,0.0076932608038881595,7.387610435926825e-05,0.01584657028040797,0.004180230907668164,-0.0016169763300131507,-0.021018264582059472,0.12952809281308836,-0.058757272744519924,0.014229913203623004,-0.00793910522210765,-0.05226396948757006,0.006055188793203885,0.031099202705878307,-0.1170034696865112,-0.05489920137010989,-0.17503964905514602,-0.09283681078415514,-0.019734196352456546,0.0424466640708061,-0.143576577297031,0.034494444326699465,-0.09147373346917181,-0.008229071474217576,0.12235629334747017,-0.03583268020572988,0.036103380219504974,0.02259913718027652,-0.023235709705893125,-0.009925879021916592,-0.31519150685797237,0.16216122383235043,-0.22208037569540057,0.1149887926414713
18.45989990234375,2.087800979614258,-0.03554562212362028,-0.08292684886364393,0.003696597060007259,-0.30216566295653163,0.05033699538061223,0.05014196953085932,-0.06596230491219557,0.16878739322951883,0.029997620474172634,-0.10280896767085435,0.08773896817578651,0.051764857792640895,0.005069110603093514,-0.020241184753162597,0.018935372936096102,0.023894116445303645,0.06505403593218252,0.035564339319019346,0.06033479133717121,0.03558235265936297,0.09882079410263894,-0.156065741137231,0.19238746811357535,-0.015781599709560046,0.17490733619403817,0.2760885309711651,-0.05481745283996303,0.006970015002475965,-0.09735279970540439,0.0876297591396374,-0.020157673270629332,0.01205006446098942,0.012664991051414193,-0.0005854940394003686,0.0018506642904839426,0.02505058880755566,0.004106769463765789,-0.09740567427155827,-0.05290346334433004,-0.1290129879845418,-0.0012036657816213417,-0.00013853685696654677,0.007078958296131958,-0.0006361517619070737,-0.0006926732124637093,-0.053504400878154806,0.07790523925220094,-0.0643777213745464,0.004868489189264342,-0.0008672374948539979,0.06254448395998188,-0.037872577614546106,-0.033795025566542035,-0.004542490530737492,0.10721773163905722,-0.08660821756946964,-0.10483967769595681,0.03655121647613328,-0.06059738641952426,0.09558567472976394,0.0027274862397793087,0.06522505924472204,-0.3327737063631475,0.11601802787104361,0.07562188634630877,0.005757958083983114,-0.005128381959210178,0.021227766863157027,-0.005564579774725674,-0.009232371877567678,0.01571457789029367,-0.002789455608539905,0.06023284400275347,-0.02911586108207064,0.028069732928093838,0.0027953206852944315,-0.012271173814946613,-0.0665233511911346,0.0005412999375491647,0.0033268843416949,0.04166913962498772,-0.04724532059732457,0.007295404792725098,-0.06710545926822517,-0.05812553325893998,-0.034672069737177486,-0.026249605930194916,0.03291074546890295,0.05612737131914229,0.003300860403588251,0.06416902427951675,-0.02908530053004558,0.008240929160133414,-0.009223948641988229,-0.04692532851783825,0.009298345000605092,0.009423757431099753,0.0004171606088201649,-0.0061919073937170945,-0.0039355645929287815
20.547700881958008,1.6979999542236328,-0.0041705986841429135,-0.0029994403132646385,0.010943685985311393,0.015491202169986997,0.04729745133515532,-0.012688830793834337,-0.07796393782917171,-0.039386208824879726,-0.41078715643706143,-0.18938175796344717,-0.08551019143161906,0.06123118744165543,0.09568910445488936,-0.2890319556950566,0.06312561725753273,-0.20858404354100127,0.7370111612438723,-0.09669321452591617,0.08658653164742042,0.1314305520378122,0.00045987372567528155,0.0617459973540468,-0.01849437819928181,-0.018866849126148093,0.06382081271218713,0.03390066702176252,0.058362777588901196,0.022712185737598024,0.07478359606892702,-0.16407490809491526,0.04674644879467804,0.03402912246153364,-0.1717389028680047,-0.11976177429190325,0.004206344719296166,0.12110280548175881,-0.12655011535987973,-0.04399825299116535,0.007096540694582241,0.07234671073726134,-0.01677618375055559,-0.006193235903125614,0.053663847540591794,0.0059167180556069805,0.04492938166080466,0.0025987955187125344,0.03924967711125194,0.02226861039890416,-0.0010215554312039345,0.0035975075239166178,0.021897552859653745,0.019367217053869925,-0.01575426938472113,-0.005281057372145238,0.08469132728335658,-0.0008381347548356899,0.01974657050671259,0.018567984262244177,0.027202140093728896,-0.03678199879693727,-0.007561109064414412,0.03328820430153186,-0.049385618988007814,0.12961867355954168,-0.1306278899027664,-0.03996463564373749,-0.21028139018911307,-1.6704180228587129,0.5447358501631158,0.08454452005653354,-0.05468279494337624,-0.06276070058674392,0.03408105188720528,0.03700807528955384,0.017474614328213813,-0.01434014358584845,-0.0072153361488884295,0.018229956867475146,0.00393864257185627,-0.20192339430142595,-0.015062845693652929,-0.018171931392467547,-0.05441719084071663,0.022359348996692837,0.0649933631526991,-0.021337440850917433,-0.001495139556221465,-0.07830134025939992,-0.012415175302136842,0.007619812846609068,-0.006789226724728259,-0.01116876874243754,-0.024836363042021904,0.005966346243432497,-0.004423853424549278,0.007671814259493252,-0.0015829447473893477,0.040807856018234626,-0.06836491619861679,0.12378752987904357
22.24570083618164,1.5385990142822266,-0.01961482301162898,0.028248250942067437,0.10959477158721957,-0.2623604258509685,0.10934217707616817,-0.3272056963329309,-0.4268855698508405,0.08154757539545375,-0.027512118522531347,0.12185192637183202,-0.016904680589287138,0.016519595032576075,0.0304014450164451,-0.00372769977683952,0.04793234543646659,-0.056932806414009565,0.01661950424737442,0.009477546707873754,0.0019935929498539617,-0.06296683151460819,-0.1246124316528139,-0.002065428768149986,-0.00031944998251421796,-6.101731366780027e-05,0.0018227016966282056,0.007415646525565417,-0.04515924407743008,-0.009083842835758159,0.0005306124324267692,-0.007325144034173808,-0.02291464793993501,0.06893574943968127,0.04619335420046755,-0.07415545415156093,0.05761417653484697,-0.005445285723200648,0.10471225205985338,-0.014102678240547669,-0.05950756755246689,0.022179448457143966,-0.02062623691389686,-1.4358390540978043e-05,0.0059793734630098185,0.0004338516484664634,0.0013759885711588093,0.025566716099265658,0.09780045675145113,0.010978603127641581,0.002662305560563273,0.006253338318587475,0.01650031855000049,0.05383784920075019,-0.006552826677993491,-0.0014913246762751086,-0.0005405984464150966,0.03572641627517315,0.0007217867797778448,-0.0013585016385266931,-0.028952065862239935,0.0603419475092536,0.062275670593585054,-0.06912595040055339,-0.06474795980727469,0.0028622800797937224,0.027002890414288258,-0.0037735934106817794,-0.037559754893239754,-0.012922583043108985,-0.0013290351082725631,-0.02131271348629593,0.03277836301854538,0.0013466180574616435,-0.020981377194037195,-0.05134866702469522,0.016197005680321598,-0.015255658604587389,-0.05752297123198862,0.08873243670101438,0.02746191174655721,-0.029776950770262142,0.10175911392933576,0.04829618100276458,0.11180117598350886,0.10007884275343316,-0.009730256451475074,0.013160076165476348,0.008090579314850185,0.015336886456243025,-0.13303465602869932,0.479228130442955,-0.01699058069598074,0.0003089371571311423,0.06499118751078668,-0.04435576494819144,-0.02493770416708881,-0.06338206473406006,0.026536598204974414,-0.11315379251279653,-0.042482949251128874,0.08887639104276561
23.784299850463867,2.4771995544433594,-0.052151142100233416,0.3441470620771862,0.03871412073111219,0.03286517826461383,0.08377942161831538,0.16365471634494586,0.059808022803988795,0.10547573664624962,0.020625759825924968,-0.03726534164275053,-0.12222463887325566,-0.038516420905730035,0.011184432203672896,-0.029726090317481215,0.0603377424808379,-0.00948067751038326,0.024241826205733456,0.012478418871977244,0.06035962354554784,0.001392211881858202,0.00238370747400167,-0.014421220293980725,-0.006329646223316904,0.054964156287024946,-0.0013657491824954071,-0.05800691820423584,-0.029137304995915055,-0.007404037489001448,0.02302974510204999,0.017768299563334044,-0.06417456539232023,0.10330454744560351,-0.0015227151543942838,0.011231592677040055,0.007446786838929513,-0.0013185717658562737,0.008657392717741916,-0.008065439056785112,0.010514729610910649,-0.0054202311068878,0.04134756629010031,-0.07740209846839691,-0.006424750561415457,0.004949514749761762,0.006692736580820443,-0.006693391386444335,0.0010715687736925492,0.0030517965879940066,0.00031698841996701633,0.0022379930428315375,0.0016829535680953902,0.00048394738024937103,0.004508134837408308,-0.055845101400738874,0.02328561217939009,0.008063045909211334,-0.025857208680722457,0.01699503297215471,0.0006608211647794837,-0.007334267551335976,-0.0046818976295008525,-0.018355851531704978,-0.0013637624942425288,0.03861372739164101,-0.04055650219706601,-0.0012338570469098491,-0.06723582931671744,-0.013920964715705858,0.007591704445779373,-0.0025997138353765353,0.002512867428068646,-0.002748733763496074,-0.004307555012484185,0.002175014331821856,0.0016419539764266347,0.005226305437140081,-0.000890904355305506,-0.010183608818068634,-0.007102854809335456,-0.0577905733231336,-0.003590711201850748,-0.004261892614049306,-0.016333913683249747,-0.043020750514170286,-0.08309206072863304,0.006798084619490548,-0.021011684710705643,-0.03178287247636424,-0.02261825667711562,-0.0994668828062719,-0.11664026096470709,0.07009728437245935,0.10957822295768815,0.02856404535625776,0.04359379822697104,0.02648341600766335,-0.03311637863929924,-0.05234874330519437,-0.15646991308129657,-0.018665868462010606
29.547500610351562,1.7084999084472656,-0.03793332735258988,0.027331371179535116,0.05322077537050766,0.16705249322593335,-0.1090430259774974,-0.2631188005791147,0.16769551936593502,0.00915857322124632,0.14767425112251753,0.22278157282152902,0.045669452353853515,0.017149001528191397,-0.018123745883131103,-0.025060524431265392,-0.0260904938589665,0.02406028697388911,-0.0009149915411371963,0.009692549911701168,0.05868735546528639,-0.06006896392976737,0.0037678094782798498,0.005080779265193422,0.0035137263471338867,0.0005917895154263597,0.02364599846004105,-0.05022570507429196,0.027352281195475676,-0.01831056411164291,0.003563243326916556,-0.03204892124068121,-0.03352023496650154,-0.006369585898117365,-0.002088384380583258,-0.11239944407098872,-0.023179034205362017,-0.0045055172190234275,0.008730895369438895,0.02090331491429195,0.052756640592240125,0.04322796066771864,-0.08832154504003914,0.028040745986488327,-0.008777684274150422,-0.010772235076357784,0.05215883224186586,0.006632256349985892,0.03543151941516795,-0.03527160050123744,0.06867464426464502,-0.010999197259943994,0.0006575008581315971,0.0554893507423328,0.0446671142493045,-0.1727540939265111,-0.08043479499502908,0.008742793771984654,-0.003749295256361964,0.00037526067899296025,-0.010856282076381287,0.047979740589497076,-0.11379599319097085,-0.023489814811867914,-0.04886937891295036,-0.092695429306787,0.015051190640129483,-0.011409386645542939,0.020052064248259716,0.048306306765577144,0.0008519600187023161,0.02882928062711498,-0.020641046783943094,0.048169101896230436,0.007252066415508386,0.040905006474101405,-0.01643537537579801,0.0022637884804303223,-0.07211012765695231,-0.09532158483993931,0.003745159356214869,-0.007264481936107194,-0.021124443060492392,0.0006310126916204501,0.019432409179060514,0.0023526840391673402,0.02153241791764309,-0.056352847772026766,-0.019342433968965685,0.02753833130905167,-0.003375070162290822,-0.025490688181236114,-0.19349235882016244,0.01708186026843848,-0.032955199450156625,-0.1553192885103421,-0.01045488357102925,0.06932251909282619,0.00589913173056285,-0.04937677124033479,-0.055704004104646196,0.1525513020625993
31.256000518798828,1.6879997253417969,0.1524201527026781,0.12070965289312383,0.006325586932282953,-0.08474620922404051,1.0166514642127686,0.14635666033988495,-0.11567110188893887,0.2353654561429843,-0.3158179513278546,-0.01839897877115053,0.07348793385879011,0.17032796201197065,-0.36001956957134734,-0.2959419340551742,-0.11419389911420678,0.06269732617736906,-0.528603521008791,-0.04477286081034948,0.09331223916451888,-0.021377327782336943,0.028124547518524994,-0.07239861971788607,-0.07863859102563214,-0.17859951175692299,-0.06905458467082301,-0.044652589040347676,0.04627178457810565,0.1295683890547285,-0.002935300684993037,0.0552969945910461,-0.0158979766349675,-0.009073831057264347,0.057300928051689036,0.0031503277037701043,-0.0029002336671594517,0.013029518652792508,-0.07034198146728696,0.1000520220692632,0.07479761535623058,0.0019403005529610683,-0.00045478351786417884,0.007041993477472433,0.0344858097376434,-0.031555129349698285,0.0012590377629469155,0.001024294803362845,0.05284770954447081,-0.0033105458265525367,-0.0001745547486732261,0.0006682543940735282,0.0032782509177471096,0.005223737808021993,0.0017514103022756005,0.05296874607159668,0.0883012083541808,0.009356018511944198,0.008960214104892776,0.007976421146927993,0.013657436375785988,0.0248060293916068,0.005220791315770654,-0.0003386677417605536,0.0014520821920738372,-0.0060412483523432925,0.009418526071435375,0.0022327358515442965,-0.060543840672682925,0.0022951170333283324,0.034902410695730954,0.08699417623917306,-0.08465008843394689,-0.007386905941690509,0.0018100257196414825,-0.014335759707124586,0.07781838280581627,-0.04400379201091631,0.015090775083670266,0.0783749605949324,-0.012623238152774182,-0.03636813865486102,0.00368557973682617,-0.06453173682473184,-0.06537830796002372,0.08992050145716282,0.03284360561881564,0.005818811554212927,0.009829799802040849,0.04232051277980174,0.05893285192681623,-0.03228599916356468,-0.003399213227582693,0.10186913861565497,0.04543155416609748,-0.09164701844926408,0.09225334145731286,-0.004619588991716403,-0.10617821005803187,-0.08116111691978362,0.0028938516102642725,0.09588775571585739
32.944000244140625,1.5684013366699219,-0.04483480509726028,0.00782597942088535,-0.1808432803173632,-0.1195349796358638,-0.16701302742043178,0.5012817131974994,-0.20668635002791158,0.46302220695089275,0.0452506367435479,0.13360055323602354,0.13626606468174268,0.02476913954395525,0.10462669517369659,0.10873704817478733,-0.023557523263458363,-0.10264431994111567,-0.013612080137094792,0.06802385562081636,0.07480113267750875,-0.018687682894365648,0.08903339666764065,0.026911265460069837,-0.014392000439016131,-0.061202025000804,-0.0034957116282217787,-0.05404493519064756,-0.0038319383908907226,-0.00634383842376022,0.04577037371706948,0.007843881503243668,-0.009803929314740223,-0.03145038208490718,0.012185536977449372,0.05257949310290611,0.006180299332618661,0.02759060944337588,-0.026715918723415565,0.001495306070533904,0.04881269176377874,-0.01165455870749852,-0.0010508493482634914,-0.010452080367664384,-0.015082749114864628,0.021810075512127443,-0.03511039384848702,-0.006805621625033698,-0.020324763813814532,0.013482368712823501,-3.58508253133149e-05,0.00808729504564573,0.03759070266534691,0.0025965532195457493,0.0004525207880566323,-0.013907841944561876,0.1455835311417851,0.1972138251710308,0.040641430444520565,0.2148068358506106,-0.0018270797428962433,-0.016325455909127692,0.061034456576961146,-0.013983750096744865,-0.03785928936241331,-0.03482279901133278,0.022151418857899632,0.00339788240091422,0.026050865966586553,-0.06122380736613055,-0.010829149548674987,-0.013565666151268922,-0.05000256092363088,0.0027023346474085116,-0.025483318520087228,-0.045993320986204,-0.019282247927286517,-0.005053930358627234,-0.03795175079999573,-0.021143019841429647,0.059661636023441905,-0.02037852331425989,0.030989900842669168,0.026954260502164887,0.037878929102390546,-0.0006826659262145268,0.00394781673921063,0.011803133037188437,0.0179349946653709,-0.03079642948076986,0.02013631043240359,-0.02782658288782587,0.09289631832201599,-0.05909397096462937,0.04779886259698019,0.014948874476783867,0.0686065593294107,0.06344383242479398,-0.056428969093055635,-0.14268747126089396,0.036300635160017476,-0.0009442378733337253
34.51240158081055,1.627899169921875,0.016781980397174295,0.17054550659649642,-0.157194048870165,0.24072305605259398,0.045448180323966025,-0.20537856603161353,0.09712154513085161,-0.18313783270942363,0.10508870978294801,0.08548321968523333,-0.36082369514939405,0.12341547295253917,0.18852621331454802,-0.1470500260130934,-0.03978121619239684,0.1949415948315587,0.506734430634826,0.07512173161686164,-0.1598488423634825,-0.0018752397154825995,0.017378147139375667,-0.15293551668368602,-0.1577907213420261,-0.10435430243878113,0.005097468820643519,-0.0011703412234744526,0.017326876019539472,-0.037004751274013495,0.0590803814466654,-0.003504247235486039,0.057390578971440745,0.13057031859200174,0.0576223883556644,0.07282189549893701,-0.0018108524352160472,0.07154291289804823,-0.009359597940292499,-0.0010852689435737468,0.01934054973558187,-0.06594961732115182,0.03501646467369445,0.012189353321636386,0.0833114051423161,0.013169289571472651,0.0010438888375543375,-0.003982130950595664,0.0391451193681978,-0.006465400192493181,0.010544653936344642,0.026628413470174386,-0.0015304637616844184,0.01979844351820814,-0.018880802729047446,-0.005586230846055095,-0.0019532422731325183,0.020164658189775628,0.14308023372796835,0.02263880716750494,0.05616086564416308,-0.06776858659875529,-0.029403008789500733,0.018459502862879777,-0.08862206223123358,0.014116353500006094,0.05907040418888897,0.07760169074531338,-0.002744104596446164,-0.011144337723805756,-0.01717238538517538,-0.08727660424012265,-0.00028970753185928637,0.0022524554287013253,0.009198481356481806,-0.03179514918648889,-0.07636633852092599,-0.0022954073074156448,0.018931000780143793,-0.00244447452955268,-0.04973816415559073,-0.058633735098455916,-0.016065351502563725,-0.03242210015470782,-0.012503765761415684,0.08708475347347758,0.01974517907972064,0.08485367112966223,0.06646050898151272,0.009972883285933359,0.06515701850297183,0.017829125740456968,0.026492957768869833,-0.015372389158740236,-0.0004302497327840736,-0.06827721278736434,-0.3082183869047296,0.0011133777236966291,-0.0034671426465658454,-0.012152655091314765,0.02960532245089386,-0.03581341441116834
36.14030075073242,1.5186996459960938,-0.17770231338050005,-0.07016577320375572,-0.4386831419070158,0.0754324756933085,0.13705620301910432,0.237418677531693,-0.0016197959116542593,-0.23195699547992107,0.027482083346265646,-0.017629196560789803,-0.012651895880160682,-0.011077017486243838,0.13669226747938387,0.07655660193264416,0.02157686956492597,-0.010016341943223532,-0.015382703986574417,-0.10762850947617457,-0.01050078975294491,-0.12200926848314224,-0.06150134445449966,-0.09255707192572683,-0.029722700438125825,0.09366152357740666,-0.06137770691042731,0.025151436317688937,0.06315193693768188,-0.068056108568606,-0.08508146503572181,-0.051347364896607205,-0.04058043609769811,0.11589686497831161,0.009352405949323994,0.009598510000468831,0.01238569355711823,0.007074666946335828,-0.13120317893601308,0.06422072888082249,0.046325079353621734,0.0024378108021737466,0.00017178775636915965,0.012339997275972459,-0.10719387144409548,0.03946294580467511,0.013344633989155398,0.007968397349396764,0.0011391841659879024,0.058859446456784814,0.0053413892783112284,-0.031114170023464227,0.05998766332287011,0.05602436012480503,-0.03864419444523495,-5.9552915158447546e-05,0.02515096283022302,-0.004217956167311969,-0.0034357067200322753,0.059374167865687694,0.02975347249527852,-0.017428938905919213,0.00836973821148669,-0.03286716171078813,-0.001796949201937955,-0.08175439848250694,0.003368263473221656,0.005665278663542975,0.054747068085740896,0.052158189710776084,-0.05679206471446827,-0.08810441239378455,-0.03540919887481178,0.09768218716026361,0.00483380532391907,7.615736517917822e-05,0.024980095927774656,0.006207183814901302,-0.009109398883671635,-0.04322260563176459,-0.0038412705472601278,-0.0315947643938615,0.0040973148448585125,0.10255072660826559,0.003504702997026178,0.020037132600011213,0.023854094705950384,0.003438659821085315,-0.005918719363845679,-0.09161700534708847,-0.007325841000027845,-0.012841820421037056,-0.001370379011028858,0.08575555780706205,-0.024349661745231403,-0.037885872851102814,0.038317676483069676,0.0021348923402385255,-0.005792686688349355,-0.05839432394500232,0.1819966048169568,0.2118431109768315
37.659000396728516,1.5081977844238281,0.0671182004816226,0.08339366222747116,-0.09719192438794708,-0.3607995961797609,0.12259420200087345,0.18048400730335112,-0.03236680529012715,0.12021425934130056,-0.05957362700651174,0.0323796800958316,0.057976769450746535,-0.028064976939396285,0.019560389463857394,0.02513037077917718,-0.031897006226348334,0.011631864609750027,-0.028554950609571653,-0.06935122720922648,0.062018502796998005,-0.004653399246533824,0.0034232441829926998,-0.11534452917779836,-0.006001296559618814,0.016700031934972527,0.003163950576505984,0.0003640841187760881,0.0171725869311343,0.025244144604577058,0.0032992561361546457,0.0006121428704856715,0.05800545838342164,0.08391336289720351,0.0025489474317849487,-0.004329367669211774,0.0036448381281360795,0.02338783300609596,0.13524728596518246,-0.021593715376964542,0.09400688148826228,-0.03475616975434735,0.07134959397371526,-0.03396285148260192,0.016916144797471916,0.0017344587662264795,-0.04107163491545175,-0.0006433422686392923,0.026298367772821598,0.004142440254312285,0.0446502512388126,0.0005230488503266265,0.0012219413434078079,-0.004579837947572194,-0.022426052185382673,0.014516542795884449,-0.07788653219445373,0.009913059874680216,0.003949146001141927,0.0353257090463892,0.012836804820444109,0.00043080962715310125,-0.00024451332134343317,0.007024181955026373,0.0029881536545879476,-0.003972172434187307,-0.012292786722629975,-0.0016188706375864434,-0.004689366861758857,0.011961435559821695,0.010096410910398857,-0.011776317631875456,0.016871214208834456,0.0052612734746777644,0.037239804659674726,0.005745286371090848,0.002421875210985409,-0.020714910480785494,0.02299420246724823,0.006225347000792248,-0.07085937938510303,0.0055178639800101854,-0.01219568652806989,0.02822090378156391,0.005960963896175571,-0.000991913364339559,-0.006705432694196351,-0.04361022021915221,0.04546754637660681,0.008196424990884705,0.0008063029017284552,0.06410152748186201,0.023473726649429004,0.03686899022378772,0.004250521980393454,0.011973344053015117,0.038947164340909765,-0.07652649776685296,-0.009885788299072008,-0.006572020608838247,0.003749039848225363,0.056658073352036875
44.36170196533203,1.7677993774414062,0.14682522617276572,0.018938433457443206,0.1240210931060044,0.02820924609186827,0.10378650734935224,-0.18163699540339592,0.023299991830537124,-0.0157638629785431,0.0263416569815394,0.0021204902463228805,-0.029216748925881313,-0.02025651403344908,-0.10627996411075191,-0.008716147867578985,0.0001998496839147672,0.09288852182556526,-0.004145811234507272,-0.018695190575934856,0.01966256892316591,-0.03862649528298536,-0.064931374061246,-0.07107501775419833,0.06999761955798593,0.002501771973927161,-0.03764303825064324,0.00020417282207070846,0.003486343272466055,-0.04443168692030625,0.05296890004847199,-0.05406686631749327,0.03235449775252056,-0.0033815916630306636,-0.003532745894994513,-0.00010986213274813083,0.024444200956176353,-0.03414072051891567,-0.030312889380821377,-0.0059966995669575055,-0.004094958554053608,0.0019816363604545644,0.07017360611291051,-0.004368628950476704,-0.012882802038832582,-0.0789139877597322,0.006238042258168416,0.024962796560692332,0.0031177884997674503,0.008608996378536743,0.009614166953781454,9.584809852546746e-05,-0.007896615058419876,-0.09617425079656412,-0.03762418248384925,0.001259427940672575,-0.12346826245749526,0.01302802904365454,-0.056655486608781905,0.02922058839843278,-0.080459659237448,0.012717144008042974,-0.05921137378347661,0.03308838032803556,-0.0226800333647063,0.0653580089169369,-0.021215768308514807,0.08035623878961246,0.04585909249969683,0.1076395864199412,0.0669694500836025,0.010230609207565347,-0.0011494725488355203,-1.17386143115033e-05,-0.0021053384040143753,-0.02105122240025465,0.016393760375495864,-0.0011987357284190966,0.009220269547414874,0.004627572728725202,-0.09744663174871926,0.02096830696722437,0.09161257841596689,0.017578608530330473,0.0007322113430076049,-0.03103899413291618,-0.0007835798602928332,0.0033049451485562425,-0.047175509751368916,0.002206958486542801,-0.0054893934741368465,0.13170524886159315,-0.01628964770745428,0.0064744825546577955,-0.038353655842937776,0.05896704420349439,-0.021113769480859447,0.0015239478715710056,0.00031007569411140734,-0.00024017208658754115,-0.006271638367203223,0.0005188895571371387
46.12950134277344,1.7777976989746094,0.0003243034298113052,-0.00020063292817304917,-0.007107440075286316,-0.015034640052910563,-0.1857625257874675,0.21253154638120839,-0.10827102416253637,0.34131885968715536,0.07613314044297258,0.026416410629540657,-0.6549176825621303,-0.21579662844030645,0.1116587510524379,0.3254746760720842,-0.10996776930906875,-0.17003665216831862,-0.0692130184575814,0.09351399867055991,-0.6823589054354964,0.03616738741016104,-0.00064070954142592,0.05378108682347427,-0.07127054265301601,-0.01630366211919517,0.10476472829094009,0.1658013006296508,-0.1325353759602675,0.1485492828486954,-0.008775069440619404,-0.12231517482771981,0.007134748921836337,-0.013362880578072759,-0.17089845233860265,-0.04505423801383862,-0.002144159660085618,-0.00746015142980277,-0.06450252358966675,-0.08694761006524308,0.0012918356105638376,-0.008334317166392163,-0.017327549950970217,-0.007295491879437877,-0.003279420328890047,0.02648642810652105,-0.004101229668151714,4.3397905007571194e-05,0.06372993419134254,-0.00274527131787126,0.0036378635438727557,0.024436659045789202,0.07759404972798727,-0.0009317506932630344,-0.002606654129380826,0.01889345608666325,0.015514058039935968,0.20502196371619072,0.02452239838014815,0.09194135280623941,-0.02569692666447304,-0.2824061653917544,-0.0022820371656188335,0.03786327485507475,-0.010145443922037006,-0.13580982511158882,0.0035000960469258203,-0.16341691208304565,-0.16475189475699034,0.30473451345351554,0.15551352756059178,0.024758318369615333,0.09652191487933699,-0.0036307853270228507,-0.06155714006825535,-0.0010368740662426612,-0.04797919482090044,-0.07190007002666814,-0.0007145327061468527,-0.01744644168578538,0.02921816770316825,0.0019126052168328478,-0.07098603844562447,0.025314113427983804,-0.008033697429189761,0.006844169373073732,0.01847109598231087,0.119013111244736,0.02693044039699298,-0.004472405156750194,-0.03461619934944185,0.0006974524653332866,0.05250547204355917,-0.027978024114340482,0.07317754847254979,-0.011395066237892881,-0.0600806718846872,-0.017993949120655064,0.07209860754466721,-0.010598932652642598,0.058121359621817865,0.003266585590801327
47.90729904174805,1.688201904296875,0.0024241827307306535,0.09622375921503565,0.08169013020862177,-0.004676159955380161,-0.17731583176804877,0.1418179167399504,0.14427995210608408,0.2832339888740395,0.17929854929441166,0.1173583895848822,0.060675946894321736,-0.044405399410841644,-0.07150838941748641,0.013186106975381319,0.10443709771415181,-0.14501890257727088,0.05596263577469915,-0.047520708046574,0.009494817821073183,-0.0008911892197479436,-0.0020026565821423493,0.10120288336661008,0.016821588393406698,0.021215469474005055,0.07133173000527389,-0.04837048544582168,-0.013079832398227168,0.0020362356270403874,0.01685113152077887,0.08506969602561679,-0.007051788126572607,-0.0003357780707991717,-0.028118703057061583,-0.0044991244758999915,0.058631963452236216,-0.00776331108955323,0.028231218457788358,-0.013374293054273324,-0.0043817173785431155,0.06967817088710823,0.0014616361015073465,-0.10771864724623136,0.03833502923024606,0.0671345393525564,0.0027767323183474427,-0.007494544230914866,-0.03248090979844839,0.0038418153903566205,0.031128102943621616,-0.10890680329739189,0.019894831805528444,0.006191951572980175,0.07357446964214244,0.02491452680611747,-0.0011883262281644897,-0.07394438832612944,0.004887162888790015,-0.0033776365069398957,-0.04222614324766723,-0.0545999138110543,-0.008942582651272218,0.051758515162825675,0.002750778166543743,0.09150022125235688,0.10099301916389737,0.0025600685985952844,0.03837691165387142,0.0037113301111895065,-0.004736948059247482,-0.05462080526016789,-0.10599354366340302,0.005664406280034603,0.023435199428559365,0.007347094998114887,0.0006268406022957463,0.0156646130520824,0.04564516938451661,-0.07192827137153554,-0.023455459903637992,0.016843936505180544,-0.2098635236388936,0.07289565926193048,-0.30396087151274703,0.035323113944729555,0.0016454899303257082,0.01748805199233189,0.001532682276735142,0.032140656892870656,0.1326279747273979,0.04611167802595639,-0.12467561629415595,0.010308023859043537,0.046003241063016696,0.086088724699168,0.07367983959906164,-0.27069439693751585,-0.007488286597562657,0.03788334581824567,0.15367611918498744,0.17946029712571215
49.59550094604492,1.5984001159667969,0.03206745635683847,0.10511171685068113,-0.13102372866346207,-0.011303385566358558,-0.0076090032938510715,-0.2237735952248888,0.03035745863379663,-0.0454300119887394,0.00018294521251977777,-0.014942423761202243,-0.08651583820787144,0.004508774489988233,0.0814602040873675,0.030498693294244067,0.04448894474129671,-0.0024297598620907617,-0.009083623409835536,-0.0009249146574930635,-0.05186335810654245,0.021007117694324322,0.04871238989391763,-0.09959514454898251,0.007733583647534071,0.004038764341821471,0.0071861129241037325,0.0005492715260144998,-0.005115791093669661,-0.00051546696588942,0.010693019273267601,-0.02623068205763017,-0.019742237099479663,0.0025221527088430487,-0.0833291867398625,0.08107963639351573,0.0009814816742708655,0.018163195828375743,-0.00823858665035318,-0.013663548712413187,-0.0010201923558769406,0.01551040901254871,0.024997508735948862,-0.02430531142321897,0.016041929634270938,-0.014418709000678251,0.00196428822329735,-5.923229174076271e-05,-0.0021262915798037577,0.03553089076745519,0.06883985178645488,-0.06589933464593487,-0.0019401652261048193,0.004740425835511365,-0.03389830329653039,0.02309677598139808,0.0030393380602998926,0.017097708846030304,0.009929825810007911,-0.0666712385250284,0.008972229848903583,-0.10653308973847446,0.003363639036417423,0.005225198157051832,-0.015918947714893203,-0.0013297182933302912,0.0009425538152490604,-0.0038461790235754913,-0.07065906626695474,0.015179065926510284,-0.0020802031510499994,0.04078614892418028,0.021861170664598233,-0.03563378847467716,0.014653290523399498,-0.02699285264135061,-0.00022389949025144394,-0.01426284263037278,-0.07545848362198362,0.04505247516721151,0.008134252373189278,0.005384613851783981,0.08323977751067371,0.00741546683515176,-0.05467251008267267,-0.0010512205867641209,-0.022126134145942042,-0.06387865309869202,-0.044550273985434,-0.004403253235666368,-0.03282954080265492,0.05750104651636966,-0.0017459986524192524,0.06300097867016184,0.027197490248933264,0.02584283739999705,-0.01510437644789094,-0.0116245743475079,0.12888125449554216,-0.03933791933428806,-0.00503656667819186,0.06910080115289201
51.19390106201172,1.678497314453125,-0.0686525983169349,0.008654550834495105,0.03007349555283938,-0.021490380118317075,-0.04021197889306358,-0.2571061659812859,0.0089201166620906,0.0008489762579929304,0.056488134505282714,0.03756514915728297,0.013633768693902967,0.10851781226132014,-0.025600928949785034,0.10834308678754676,0.0055424439379693794,0.10732194397999355,-0.03943138930175037,-0.1285361472347407,-0.028390900186380616,0.01849321916010183,-0.09126643300311106,-0.04139940356930527,0.015763306247639535,0.005769267293542595,0.019141482704972637,0.010598248659147338,0.010234830592415839,0.005482258237631751,0.09631927769108836,-0.006957233986133968,-0.002110697291015053,0.014581250156111192,-0.0024079064296009733,0.015493937976844487,0.028083286094281734,0.03981312754979334,0.08539970887323635,-0.004526175448507973,-0.02306087985591392,-0.011421835568244033,-0.07910132086417804,0.005195668295825397,2.1108787324422575e-05,-0.029025537056502636,0.06750364861839105,-0.04508234687156454,0.055553555747455394,0.015710988613020876,-0.09153348154353055,-0.015379675175755544,-2.338271784700047e-05,-0.025820972000148077,-0.02750780560197386,0.01974465457743975,-0.00029259082697889727,-0.0035918465562836646,-0.0805005136018418,0.0016113418722936833,0.03860672645770591,0.012545752633551012,-0.00042327531757975945,0.021244258753694335,0.03516136911433681,-0.005273411306162597,0.003832989325477123,-0.023806012950893022,0.00022873776041969386,0.03157954335733809,-0.08441393621022758,-0.09771107768595608,0.029392128208586173,0.014620626486937434,0.0025099565164671,-0.0013405351254959874,-0.02071573577014635,0.08190779790086322,0.04176272852276603,0.006128096143854463,-0.001274580246143124,-0.005153574048817123,0.08303432234506843,0.0018087063480106082,0.0011760049052411577,-0.02396087091015482,0.004209397771110233,0.006822707764161795,-0.003011409156879544,-0.05991324311740244,-0.05572941454056974,-0.0005095137903611821,-0.006691762589441194,0.0383396092113978,0.005828109382131215,0.02713541441023684,-0.06583136923745751,-0.006352633065866293,-0.04008842618915276,0.014133086217371346,0.06989417557671564,-0.014334976392561606
57.926700592041016,1.5885009765625,-0.20972612851839187,0.23422500530761126,0.12374588082905685,0.3789252102112437,0.014246973380214634,0.12588744659646095,-0.14420304828376332,0.01775767220154012,0.03892782644615567,0.2354120855002322,-0.09816990903094555,0.001519934124593844,0.0762497267661769,0.09371154938365811,0.04939985433263711,-0.01818612823777355,-0.03172444026946363,0.07085012883748232,0.023992743927716036,-0.016028830684987592,0.03782874184348897,-0.01529603543077504,0.05295122950604259,-0.06296699647718272,-0.009778461745565781,-0.01619134047422751,-0.004538705308041215,-0.05505767919806633,0.01936557045762334,0.0664557173596287,-0.0053753484555460135,-0.0038610581464916904,-0.012949014774620668,0.011174807923169217,0.023963136588345996,0.06497552700138332,0.0010193911585947288,-0.00049695605814623,0.0004925441096425932,0.009675505388937689,0.00842319763189551,-0.0013449385579413222,0.035221225653069496,-0.005486154388917558,-0.01834126390367991,-0.006889407265275079,0.034687157610455904,0.03422231382996042,0.01936887525875079,0.0029007837556745885,-0.03787937781221678,0.09762380877370462,-0.0014472656653237684,0.07057038042166486,0.010489972021125315,0.015024997873756673,-0.033638155179179716,-0.016247044688241865,-0.03332248543557032,-0.012363040628483285,-0.043194862391323974,-0.004656557078899171,0.03891951964874214,0.0013549229762637087,0.016975712651997314,-0.00821527915791375,-0.04785167305579128,-0.05394610378263452,-0.10628205354041034,0.007539115782664039,-4.4780166583878976e-05,0.031808656768584735,0.038956378732296015,0.04244325928636016,0.000965250055225256,-0.01300051278314604,-0.12089843688028945,-0.007364037424971756,-0.09954755132622173,0.0060464140689716825,-0.016798850908733044,-0.0029131697910882316,-0.016033035483394527,-0.005636758364363822,-0.0029419969549495965,-0.01313815821776531,0.0005612656309368819,0.01440922925732473,-0.041945524430869865,-0.03419143610188125,0.07963721859225119,0.013976904743399042,-0.05980379921185083,0.023938958367727862,-0.16979721237639717,-0.009762931402500615,-0.11379072761446125,-0.26897988546624574,-0.056246194661251366,0.35547450135589126
59.515201568603516,1.6479988098144531,0.5105515928579396,-0.02336359580572834,0.30322401401778476,0.07257235320588733,-0.0015542738076244657,0.065221301532961,0.0866889879832757,-0.027504464201693085,0.03383544105629391,0.011053642096568207,-0.01330803759434239,-0.008076786716592725,0.04547943867680924,-0.012937252755560597,0.015845050511559846,0.02304554709923496,-0.021155401595613996,0.05884087025950635,-0.058880644669334084,-0.00261217369423188,-0.0044826753370015805,-0.009881683802360678,0.06514311983694614,-0.004571951286516677,0.009342946948434601,-0.034364754780169794,0.04357883006319527,-0.006393952254759768,0.0036967845605395543,-0.05925355173498071,-0.02393394862795186,-0.04762890057104079,0.016719633978512824,-0.004724047502418366,-0.03219714336976274,-0.0002131703730362673,0.00027769765384198834,-0.00010698380350275369,-0.022078637419519723,0.01639393966955385,0.10715160973235668,0.07731199354157399,-0.08728118188303849,0.09366211127012777,0.02650002329071779,0.0005656303919979358,-0.0005156307504597312,0.004695433149867075,-0.006256894088300244,-0.022508514277020452,-0.0045653835603441375,-0.023631189380712434,-0.0632700263866939,-0.013591487474918305,0.049204479069735796,0.08276399973252084,0.09541166031629511,0.023966859431244207,-0.4196175028950092,0.026312711824549917,0.003007366625621769,-0.01895618678367864,-0.02878760838766116,-0.00011319942143698311,0.01738641666254515,0.013469837913084355,0.0003391862866674746,0.0051802593649666545,-0.01196925468803825,-0.04595452881244455,0.006486311904076632,-0.07881280036797048,-0.00629608857187968,-0.020834181977244015,0.06394098525734797,0.026531181472521953,-0.016013484167106823,0.010694814024308642,-0.06782344433068609,0.038817947623669684,0.009991649240545675,-0.009550307534351082,0.11812138920458606,0.0415794866749392,0.07018955882432733,-0.029742913316387943,0.13882475636991157,-0.0014952751857551286,-0.030251889201429804,-0.08904057676253416,0.14987352590004852,0.01696005505010139,0.03253623733210135,0.03589868436329336,0.04751577744970457,0.06889086915976286,0.1258702998432487,-0.02418351822956378,-0.019356981136676384,0.09224827261208347
61.16320037841797,1.6282997131347656,-0.054060293861510414,-0.038189116133900414,0.21597904375118882,-0.17123587992220354,-0.11964085640464231,-0.016475396804756137,0.02189942472485313,-0.02555346844893551,-0.039799223050174026,-0.1338328692847944,-0.023432827211636652,0.01130278491803216,-0.0006818441200385944,0.06119395219593628,0.06975510100122363,0.034795050096439864,-0.0013591919174080278,-0.002860083080244609,-0.038004195221572036,-0.02741173849076818,-0.006201877928725688,0.040501370298717594,-0.01966661830349323,-0.011050054811745313,0.06770275580569038,0.0017659044987848142,0.0005681593630119108,-0.06788159830573627,-0.0042130846687749735,0.0005766234723853752,-0.034085459133758315,0.09036147500477548,-0.00592383495672155,-0.01949611854139227,0.007962693655564295,-0.0005495814105805651,0.0012263053800839418,0.018256383863393733,-0.0007613387378008716,0.0023693329555678684,0.0014217699636632421,-0.005620892630960476,0.00038677390745299635,0.0031811862935703272,-0.0483145311920246,0.023722401825081247,0.014012780503665766,0.010887827427699732,0.09623356885268558,0.11736634896748782,0.03206086042573412,-0.05685870262678189,0.013393114250132511,0.0063402153500449285,-0.0007831894255575255,-0.008330907356205067,-0.0027308577134833316,0.026342971888942607,-0.02218207016922756,0.005838661458338479,0.004655497698303734,-0.0005209887869000246,0.00629557919515773,-0.0014240882747201475,-0.04889683748110547,-0.05434093937623166,0.03236022328979783,-0.01033243648700737,-0.013510671311608175,-0.037026300579825686,0.01809247946738355,-0.06593501828682126,0.01680249894833747,0.08927697813198111,-0.06011421118858564,-0.10309774506193124,-0.05154991503039616,0.01935982033227042,-0.018149455874948667,0.04191765538809529,0.0008856926598983469,0.0032764010790064663,-0.001422505214011001,-0.0031087979375644583,0.0006754287947104493,0.02725893102573744,-0.11939053131552078,0.013456882435762943,-0.03825111861169256,-0.17350981707709645,0.03998547112238988,-0.006711867149614173,-0.02277588822071781,0.015634079482916636,0.21830706909367906,-0.05850352402313012,-0.00796001980267839,-0.037972296103746375,0.2030129774417489,0.15839915717007838
62.791500091552734,1.3680000305175781,0.16756738030593987,0.11483162679153434,0.007022370294684386,0.038348550330794436,-0.07810552223660812,0.012101799087226243,0.007598434430040562,0.004955198800959754,-0.09322977347641288,0.05100019207146794,0.08013163331897366,-0.018354809390787943,-0.007993762688960385,0.05127681080912115,-0.003766879075355282,0.013235811074720036,0.0009113538716247593,0.02490867449065535,0.08370365688472449,-0.08484315984200659,-0.003165568903616809,-0.06230396086191763,0.04884206785261453,-0.08201970702347125,-0.006728068803596957,-0.00627574020197645,0.01204754789453142,0.05887708253217999,-0.012035542120133021,-0.0007504321965557762,-0.020933830637900892,-0.009487428583993079,-0.0011875193101533127,-0.0887354836063069,0.018141305015948128,-3.5426111954324794e-05,-0.08273371675904384,-0.00279131678691403,0.024023569739646047,0.0004519382182030491,-0.10234061817640738,0.04976098013280123,-0.012669146817804561,-0.0014664151936632413,-0.0007526145107504892,0.0013501480404488715,-0.008803178080285098,-0.007135946071015843,-0.002061987787492874,-0.048433724366817615,0.003082529975868106,0.0010186679014931505,0.008877532119800358,0.0002593520515692283,-0.007516404689634792,-0.05988174120955169,-0.016678625185200052,-0.08068866466002664,0.05112834067832364,-0.002289741302340026,-0.009859377998392713,0.002291816347314331,-0.007053069377652761,0.007669940645664865,0.08015799983611777,0.04747398595728265,-0.00807460249205364,0.006946164353481974,-0.034957688301651274,0.029551675992635848,0.0018197900756437369,-0.006992613386904102,-0.02300218600912049,0.009164556458578789,0.02858191133106873,-0.028288948221418076,0.03373671809948891,0.003640476543916917,-0.07327859837009433,0.05434671340535782,-0.07720642973807897,0.012106139374193862,-0.00757162126129925,0.0019687936133041036,-0.006771815911212087,0.003099262932431847,0.0007143935898969503,-0.11249769406075008,0.023843694826529503,0.02812103004733863,-0.06454266728423363,-0.1371062500911138,-0.2147747976349345,0.1173946694871332,0.07333761576692227,-0.09141206471784341,-0.23859206144642434,0.03809938983067595,-0.019271243726174694,-0.009003979995408598
69.12449645996094,1.52850341796875,-0.057436813218121704,-0.035402384350037744,0.006915064817165986,-0.04605228698503187,0.08727056754818827,0.08230661957103642,0.041891199201073606,0.03285329102948513,0.07296854511419712,-0.1277949922322056,0.12634815656198545,-0.07039582187430443,-0.03241042331888691,-0.021003107050593568,0.0441368123800259,0.18730094858853877,-0.007066312543247566,0.006512642856438901,-0.031470414387879855,-0.029820129562092748,-0.004765597153895903,0.05835258251363037,0.07412005061918411,0.015262784534527379,-0.07829026448270428,-0.020397494361929922,-0.00013509523401251247,0.017845377143169843,-0.024387155030783987,-0.0002616289111191186,0.06441485945642617,-0.00856456069961147,-0.042452534811443024,-0.0025279079391158452,0.017112334547872143,-0.03196733820935295,0.09089861714523591,0.0008582875396819089,-0.04396038832317095,-0.022999530056099237,0.018667779604068745,0.06536073095461814,0.012776465253313172,-0.0007852132344365678,-0.00013059974297301928,0.0011864615767058098,-0.004744171024031391,-0.007915080186133128,0.004416940082086075,0.10688167620581841,0.030451295459086734,0.013633803952369655,0.005415279061837042,-0.00296602963766245,-0.05288424316262334,-0.02588435769589002,0.057922197126743534,-0.0836557661831465,-0.04226153105142855,-0.040812675442271996,-0.0014201460861729704,-0.0036819114482848684,-0.04777098955538907,-0.004761631308376975,-0.0005169811254944677,-0.04257620235573561,0.006476523132482587,0.008031994365393882,-0.057820296855665525,-0.007647648285167027,-0.008735499798559178,0.04952099782948409,-0.0132959654830078,0.015500897181981017,-0.0093645906930162,-0.003276951195619374,-0.018941122913582624,0.004919801972285226,0.07688736619422648,0.008974452804687037,-0.01676505685400368,-0.038467433398092915,0.043689724015195976,0.007990927141844772,0.0004901144089715145,0.018553056718687816,-0.001361840371827136,-0.004454169848324566,0.033542930178476434,-0.0020702334546328187,-0.09779090943408765,-0.007075539935156742,-0.07759597156087598,-0.04155808563744549,-0.0394701502594075,0.14657272671753313,-0.017422455424622688,-0.04664649432717402,-0.10585413406834264,0.07054412616082245
70.65299987792969,1.5980987548828125,-0.06794754427350927,-0.17915434675422479,0.16113621494396216,0.13922128165306774,0.14983124281808063,-0.1277184420603389,0.051532240759278744,0.06258717430325385,0.012825571249234773,0.025040586706496025,0.07196794675786926,0.04610471631527366,-0.05292951415018602,-0.007475586154791578,0.011069295936116691,0.024248799921851194,0.029251000928887935,0.033969916704762355,-0.0006299031988065232,-0.01285286220740305,0.04823503445320432,-0.052503753772144716,0.025420863447024242,-0.10943626308742868,0.024400942230001894,0.0472838790013563,0.020700445196328625,0.00912242591620885,0.0734664500913148,0.007631807516695852,-0.08031464886256279,0.009258361271289024,0.01646927520865178,0.049282642315290025,0.10619323835758993,-0.00599461299347834,0.00204384360435875,-0.0025791075375547036,0.03825433516837684,-0.035295604480022044,0.07374715491524501,-0.03598268386667139,0.02174170237052092,0.056528700428167156,0.08993529409155424,-0.010537764794371744,-0.009817942105744756,0.0061987434193107194,0.00597159631524629,0.09742245749131452,-0.004969381979548312,-0.05459193717901521,-0.025043662335507567,0.041706949601715504,0.03224206845020574,0.021509655827930806,0.0072808467752226505,-0.00030334218656933616,0.0013384703534902642,0.0019770209175350023,0.00043130328566885886,0.00029501542668813327,-0.013599307989257145,-0.0153745271097382,0.005425546128069474,-0.011902013458222215,0.012584846567795696,-0.0029393285423262513,-0.0026079031718281476,-0.055505298555661525,-0.00040025046679556346,0.00814923836766969,0.023093131190093152,0.0009204203660872108,-0.00949700991067875,0.012696686507919505,0.032969648443863186,0.0034359562537710307,-0.02640007519959842,0.008561265246371989,0.019310148265158145,-0.009104875495279868,-0.05633280389966059,-0.0032363435397008665,0.0017704707191708237,0.015822432317396693,-0.0380561672801365,-0.12840828023174689,-0.1083877134834359,0.09651223953587426,-0.0006089851055469152,-0.05896523095895834,-0.008131942677207835,-0.163551718771883,0.14413079090158734,0.09755449796721359,0.21573251530340035,-0.09466044142631658,-0.04293772838098363,-0.07304135254425806
72.2510986328125,1.7282028198242188,0.06349871265943946,-0.03372230207415847,0.03984323092541032,-0.051300176361425816,0.010208886865137861,-0.03887960252487076,0.14854986346392407,0.10293205630149972,0.07411150508879695,-0.01848275612023341,-0.0499297407395843,0.004458512678588086,0.14330380285548555,-0.0017203413693931552,-0.019446798985178135,0.16820178258356622,0.09786303420004162,0.08988320071092182,-0.10709070055879023,-0.17995776186846443,0.06961331846858831,-0.00842734169827214,-0.054484598539856585,0.05603274604006362,-0.013238225845045446,-0.06188823320570496,-0.13726872606686072,0.09003625373275319,-0.1176296944656829,0.0041948574916844655,0.009684607821877043,-0.03323577109162069,-0.043987635387638106,-0.0029952459398296482,-0.005174348282508596,0.009808001919273055,0.007558946327432254,0.06095724621994273,0.06934669415665017,-0.011835453432417523,-0.010678000019164444,0.11359600372896504,-0.03412915892298798,0.02479580271027855,0.00619952388911597,0.005134557527754294,-0.030231172460312684,0.05415753845898724,-0.01220426659386116,0.00041011075159089465,0.08277108235310617,-0.130271664553277,-0.003974066548449836,-0.1996048917463831,0.15377517188540848,0.4157493804347743,-0.05431251276653499,-0.4562898272099855,0.025776488697718595,0.007573617963168635,0.08540728370148165,0.0022770539082857255,-0.007581392740427018,-0.06797817103189191,0.014301586728610462,-0.009271602639580568,0.01357994764124116,-0.014496061247434463,0.03910416739294171,-0.03738684342898586,-0.0518292824411699,-0.003819810350121819,0.007015160923620601,0.05983107220670067,0.11978851270341882,0.0017076462279918539,-0.017279420210052188,0.03348287632390341,0.020794605124082648,-0.008530866309483508,0.01408980573887438,0.0035435023760205845,0.055062992316416016,-0.052779907573217745,0.0008972044752403183,-0.0487927721743256,0.08036037588321523,0.0010255670050226566,0.0011184283835923886,0.018326927200462306,-0.007995947750359153,-0.0032700347301928617,0.0029762979302693894,5.397243391151707e-05,0.02870304982594176,-0.05770353041235401,-0.059201816336394195,0.021366406822478524,-0.28517611613931393,0.03635429131356063
73.97930145263672,1.6381988525390625,-0.10721767039972305,-0.08390066275895865,0.12911817229188238,0.09618772585273395,0.0687947105944666,-0.16385164009084568,0.015480210027992148,-0.14619405610672695,0.009065048799458898,-0.008178257571104748,-0.09810926290001006,-0.008852091356690291,-0.00894560246696967,-0.0008318585179152452,-0.0012685465422993553,0.11046836406318832,0.013530935272922352,0.032081571562847244,-0.07248285448488746,0.03265277235390051,0.023649905266531674,-0.05976243670933542,0.005938763436268965,-0.03315386870353239,0.044841121105270304,-0.05994656195331703,-0.009993083725593543,-0.02340238150218326,-0.0011141639343325853,0.01067183489052906,-0.0895535418835912,0.07166161033754856,0.0023335308853156237,0.0008842546803064392,0.013794374524538506,0.005097454505095417,0.0495043174837293,0.05947458866945184,0.05639281278131672,-0.0014554071704624071,-0.005667590400087657,-0.004058796311271608,8.778690023366255e-05,0.04413772907700955,-0.0006430317808318244,-0.04975032996549251,0.020525787070777318,0.012139893965831254,0.0066276945371871645,0.009684190086535687,0.010009699154224814,0.0011466606013924303,-1.3322324414123307e-05,0.0002748809752520827,0.0024943037568465535,-0.05388787555499413,-0.021736599505369117,0.02963586902180141,-0.0035518039872107668,-0.001633364896775324,-0.0047558737180339265,-0.04180412637481661,-0.015439098414018523,0.02984512232796601,-0.06455850470584142,0.009965245578045356,-0.015553068700962822,0.0018107411794703403,0.02129744891798392,-0.003659168735890415,-0.045379486198929016,-0.005988396199484192,0.014915971836895275,0.004611905011382551,-0.009771963625520236,0.023336982683631838,0.13113196909334446,-0.03683426959601431,0.010998324133335534,0.0025407830662556473,-0.031617403711311914,-0.023040183669145203,-0.04251925933954138,-0.00454032302414546,0.021985274033401395,-0.08769849958346082,0.06684669926132837,-0.011312110295285761,-0.011935355756075778,0.08363457280503152,0.100179793485476,0.025549046825593558,0.06840938954051586,0.013459169003162613,0.14147212941009835,-0.330454448255808,-0.09584168347573985,0.05313958848582295,0.03778708450184512,-0.013886611119654578
75.61750030517578,1.5381011962890625,-0.014075374639889927,0.0034900000881908314,0.04602437379410025,-0.005390129137814802,0.06709684098432493,-0.030468195072450834,-0.0889490773344041,0.013248832098248309,-0.01994874224400664,-0.10073961912825267,0.003588257772792985,-0.011368239984775291,0.05303120474148433,-0.06551679126754265,0.006589677061556715,0.014624723701402026,-0.01809983084605546,-0.013752359902549582,-0.01775640555613914,-0.020717878563037414,0.0564040265099383,0.027458384196404933,0.04383270682485857,0.13240973602830605,-0.06870804979982735,0.019856514282068798,0.009572535263232887,-0.006060605223719817,-0.02087386094190112,0.05294668513097514,0.0012045120956595918,0.0005754261532614444,0.008331644077277971,0.022311651404468422,0.02035465604670369,-0.0007978906016564563,-0.016747108750467546,0.02804232466434819,0.007711192554242437,0.007724236101528227,0.019955824567806313,0.01891305338990549,-0.012341745823677752,0.08667064241596191,-0.062034866392187235,-0.02431757076838608,-0.03908856253311137,-0.06329682510918125,0.03003105150767682,0.0014849906035750992,-0.013168351964956717,-0.00446617631288944,-0.015628380472887515,-0.055030589021843636,-0.04220610758275044,0.06344025999691734,0.07773318896901278,-0.03747354714161186,-0.001509974632219389,0.005886341899821296,0.007999955841277925,0.0050098372522389325,-0.09019414231929113,0.026614309731790575,0.0007183394839392019,-0.00616522443577848,-0.004518800173242754,-0.016377135276253913,0.05172389418759192,0.0468506628339041,0.0010784974337775702,0.025628674348941574,0.008632263522603809,-0.0043287060582350816,0.0031235380964303844,0.0070038713612603914,-0.02648470303292625,0.026211510419851584,-0.01728253955546068,-0.009727773659387023,-0.01964900773992751,0.023522655208934422,0.001401087279590578,-0.0515240206121352,0.053673758998542404,0.007764076554870221,-0.0057793359333317374,0.0109428792136803,-0.006005913541177031,0.03362692910881498,0.021853189450861156,-0.08775871365261387,0.1275326414629204,0.03920890286800311,-0.0309136689143696,-0.006116894602676906,-0.05219874452944292,0.011061556218864853,-0.09300309135679327,-0.004478627466659746
77.15560150146484,1.3886947631835938,-0.003045938163989627,0.1757599368032263,-0.21280885320260814,0.0203437053545487,-0.04391104553398691,0.0005311611004574094,0.09527385094850441,-0.20725744697919507,-0.06510691807466826,-0.07662609908768411,-0.010537019018292446,0.04374699224987399,-0.029290933078988304,-0.1345366547462124,-0.03834673239273645,-0.04393585029464539,0.004872565511688031,-0.04969371861338148,0.03953658029410144,0.0011900736673453984,-0.013946651603089125,-0.015250200074087263,-0.03592379318474551,-0.032140104794308795,-0.037827626724084934,0.022468577731233237,0.012764319011327838,0.006007276983064722,-0.09252718619607911,0.05139867303820392,-0.0007698329051111173,0.010184840086480127,-0.022115970064228677,-0.0452080801020597,-0.015518081998338065,-0.0018665576896567714,0.022450435896410926,0.017988954796066492,0.00430907011547614,0.00043407193713357686,0.041044970903280444,-0.004753707017866167,0.01712396354842387,-0.046856369150131555,-0.02060139012753451,-0.010649132006389022,-0.006306604711088956,0.11034067873933295,-0.07462195184052649,0.026912375357092202,0.025154185767405787,0.0048982886159174835,-0.009752467111567955,0.10554360201208193,-0.06000628906303198,-1.8534577513717033e-05,0.0034075466976378347,0.0023241567592566332,0.06545121090780052,0.017450702235976938,0.029315883733282262,0.036033162803120175,0.04395914184996206,0.010632017953888424,-0.06671046252850714,0.005450766454209893,0.052928133346943226,-0.000892543363740578,0.0027794627338911275,0.005466599196525951,0.10213702375763453,-0.02651011380833061,0.009793894828518066,-0.022199874679375748,0.06516453817497309,0.011049056955510311,-0.0038672876786503803,-0.03396604671708077,0.00267242126183794,-0.08330647147082851,-0.007232254542901978,-0.03443665476047745,0.07441282730447146,-0.005754951977438427,-0.04686386725479917,0.02352766925957746,-0.009257573585148796,-0.026419412693799424,-0.08505173122935236,0.011058151431074512,0.08913277063296762,0.04059987441587546,0.04369496696382016,-0.026977883272567334,0.16428221438390408,0.17354318565077026,0.038669532240599554,0.050679238900759344,-0.032603819199265575,-0.011085078369965154
83.8386001586914,1.6977996826171875,0.028884258436624913,-0.0927911998134731,0.24108943427126014,-0.14442693576245966,-0.05056666848960712,-0.023265099096518395,0.04628039445507123,0.01983512390407989,-0.002369186636232019,0.00661516888479825,-0.007711286727078573,-0.01457309120281818,0.08525931010295046,0.03868754456997562,-0.07085073016419238,0.047555585270067834,-0.07406800432923835,-0.008432937373292279,-0.025939496617398628,-0.028724085121037808,0.00298563030852934,-0.02074188961987599,-0.014450043017108912,0.004557034474785133,0.016665378628057673,-0.0052927891540780975,-0.004270441462193196,-0.09906745718173404,0.026866466776383855,0.023312169157103636,-0.06269488928955044,0.034322613963546265,0.017302593949867672,0.022288375486963028,0.04570167085441488,-0.01909925431849059,-0.04218791085994342,0.06425199952334532,-0.013153245324375945,-0.008756309115708122,-0.004527146734397879,0.09758451186796716,0.001334620123539315,0.0005123932186703033,0.0007179664787254175,-0.09374750910622381,0.0029034056974776633,-0.01540603772445816,0.0038296603196207174,0.0017832219618853073,0.006560373151568569,0.005231588365234775,0.05852686112507601,-0.00039314652793894504,-0.022164088761742674,0.053525176077535846,0.017467920968994532,0.017864225664754638,0.011476958620910901,0.0030297584147982518,-0.10579433114464057,0.01517137128280984,0.010422764805173646,-0.0005277750076604913,-0.05461938619303171,-0.0002222991502010998,-9.76858445333264e-06,-0.00043536245594151876,0.01996691443985002,0.016841042302152318,-0.09568057660676163,0.09786846560931241,0.01568658218778238,-0.030654171995982353,0.03288217213599445,0.008645845867910545,0.01200922129797291,0.0028702886528931826,-0.003570966977916039,-0.055389620133669555,-0.03312388325456495,-0.018325756607116044,-0.06382415271757164,-0.04446570276210381,-0.0008765134670415035,0.07568904417261912,0.12323269175923623,0.018670330819084077,-0.046297944167090765,0.02930379013366926,0.003972548332239048,-0.012911911995981294,0.030800178892229767,0.009243118005710406,0.015727551006598867,0.1674217105632362,-0.0401568634363373,0.07095615250133486,0.0063896443531875425,0.09340794511574646
85.5363998413086,1.7982025146484375,0.08086207993790212,-0.05892827480443421,-0.03006024084883091,0.20109811208669856,0.19558156002872779,-0.08650758132378808,0.0746903299093773,-0.14597720030639844,0.018099050980496023,-0.0007985938357571109,-0.0930134070706153,-0.014422928859428679,0.10427046733936773,-0.03744656139234995,-0.003629138115452124,-0.040270729641028805,0.07284946197385221,-0.005220931956152494,-0.0400132159170149,0.10254898108593509,-0.04125125208170951,0.0502849990607454,-0.08519186330968175,-0.005081800282233853,-0.009751989120831677,-0.029608649670017834,-0.020990422605522155,-0.018308315037909827,-0.0014286917343176617,0.012577471817075418,-0.049031826338437806,0.0021512700204108226,-0.01510668827516059,0.000248777057027225,0.0029765978321093997,-0.022808778533913318,-0.0025753312273546214,-0.0016616624852907576,0.0330609567707192,0.04096753781266903,-0.02779161390693482,-0.003021635482997481,0.07243525625227652,0.012093884535397871,-0.0001559410947532082,0.0005975451299972853,-0.002144718023606492,0.02997877628994383,0.018798016724560256,0.022597110121169862,0.0007932406545800011,0.03483999207307278,0.04979005186554372,0.07917909001100173,-0.11126615506574349,-0.005099203318605157,-0.0060927702937646835,-0.08810067738654623,-0.051254419151236914,0.005965103302842108,-0.0025125686530437586,0.0005182060319957001,-0.017140787206514588,-0.0014673542264343428,-0.004532097768084935,-0.043813432755842506,0.042747262197711605,-0.053822349405332454,-0.07525050915366761,0.05560478955697744,0.033628257693170446,0.11100217491376355,0.043297355049736946,0.004088486321041771,-0.02102048173124693,0.07469645065691558,0.011625644450354768,0.005071117485201384,0.0006060634428348115,-0.0026190322834439644,-0.01128298538406114,0.0013208193659560122,-0.00018653662498351064,-0.10576469592254581,0.04535026531600032,0.11317685588168801,0.0066700274645291645,0.07967292714606064,-0.005679651594591388,0.10034363596069427,0.009600381964781649,0.050675638647361326,0.03218376406047317,-0.0017918434977857195,0.011201565919123321,0.07559377279024812,-0.015692741036477026,-0.007532566756872368,-0.005813838331419495,-0.043541380996537066
87.33460235595703,1.6783981323242188,-0.045651045467071265,0.01829028161795516,-0.03491793094630774,-0.014144957555883637,-0.22463446504095053,0.05208135821607345,-0.11928055263459991,0.07155698353609416,0.011341401535712392,0.016293280431052107,-0.07789084212093504,0.06409890146722913,-0.0539289601081845,-0.08413214196872665,-0.011294923459126376,0.04901695168821636,-0.009520840725248739,0.0007827668886610387,-0.003771037346012737,-0.003600311240991753,-0.12312954807953791,-0.0030062940436755446,-0.015571517671131423,-0.014950805664120282,-0.004223357314616318,0.0005699197847350053,0.0019816938287555955,0.002590200353437862,0.004362043593432879,-0.016550555528587373,-0.026508488604946853,0.008229454712748259,-0.003797210259022743,-0.023317941067929827,-0.0017503699181612069,-0.07747680561570089,-0.003979468562640673,-0.0030520965101229662,0.06112663391071088,0.008884148077594458,-0.07268350130119279,-0.00259579987087662,-0.052228183685253386,0.08005176611618453,0.017402808097473143,-0.0012281071134550067,-0.0006107752033435267,-0.002741301374110757,-0.0003382789557329508,0.0013787775406611097,0.07528926582827239,-0.04012095975125394,-0.0654085773510824,-0.024830578020942115,-0.008606060944236922,-0.016170096304727655,0.0410994273479825,0.012350715746651343,-0.003082048695125711,0.06788517348682037,0.04430480476182409,-0.005533600301931104,0.060902137289275536,-0.05270431056639508,0.05725259524263181,-0.010565030372336894,-0.04545120760376819,-0.045740525676757154,0.03622224988863163,0.011118754133373076,0.008465679837505185,0.006815937947606421,-0.035879512409551687,0.006899819837119497,0.008891757646318605,-0.01848539939080644,0.014914837059981055,-0.02145584424825841,0.014604313450999974,0.00370622296903077,0.006537441526835632,-0.06247369292616985,-0.04965563881174984,0.01471436793368525,0.03258040234569066,0.027934282883346748,0.004708409806711393,0.0021771722619205263,0.06092903299573221,-0.005351935664571062,-0.054524109821638835,0.04504910393923695,-0.05465958252305417,0.019500758612631078,-0.007331541296118056,-0.01558798673015284,0.044382183715157654,0.015256150909900281,-0.0077740248697358285,-0.11803060680818052
89.01300048828125,1.518096923828125,-0.12290613267856026,0.08115612322422638,0.09896474998044073,-0.11059999023733091,0.4079887188749347,-0.22088246032264264,0.14495869440563236,0.11085134677959904,-0.09483903521389228,0.14720755673523828,0.1512561368497349,-0.15492121612614132,0.004760263433192066,-0.17657759084376942,0.003822551436900965,0.0856855282311231,-0.006665150273219511,0.0406068749864619,0.0005277003162188975,0.06651641228078016,0.02054349973740025,-0.00398425090198031,-0.017563941201217244,0.026158521922484877,-0.006749744279511355,0.03412116921723631,-0.08187513353336823,0.047335103838662504,-0.008598379939851967,-0.0008693799273824562,-0.0036550898016619406,0.038672350446430775,-0.02161209464380854,-0.0001449700870624186,-0.09344637028003339,-0.0016671329814670907,-0.08308309319757863,0.035747091483843016,-0.005351877985845255,-0.03766493826354861,0.012421363091911266,-0.0021615811650666566,-0.0022221442371203543,0.012993401505006646,0.0004367517660135388,-0.11442770690378318,0.020591223099496073,-0.017491754198260524,-0.029994792251666895,0.0739710548520072,-0.035058528518791016,0.035528707181816645,0.04199624761585146,0.001074068956856111,-0.016396991718048717,-0.0609440196437849,0.006511179357155752,0.0024730818258983022,-0.029104833132327756,0.013104958300376003,0.004035245565716994,0.019835526493880734,-0.057605110976845855,0.01594506852010663,-0.09681577803658732,0.025200310976157235,0.001842562047628963,0.0006417629385979882,-0.004439498575845739,-0.007849117200206333,0.010020840167010875,0.017038773137427018,0.013918346755387506,0.06737409136120154,-0.003796391428930028,0.008443818004412044,-0.007198591203512551,-0.038547337956293844,-0.009433039125161611,0.01833957656500014,0.004624576330110016,-0.07761392609506546,0.02108043179178733,0.012266234477866891,-0.011488880210792661,-0.045143662499736184,-0.01781920530270821,-0.08380958827705635,-0.004450653680244851,0.2861578421942931,0.08720239275265164,0.09737271396505127,-0.3576583285687813,-0.1719529880031646,-0.014198158734504585,0.009729461694371722,-0.019598255441070855,0.0667097846157864,-0.08024399587844122,-0.05192896685617626
90.53109741210938,1.6082992553710938,-0.07882049573449862,-0.14159818556006404,0.23427232327631445,-0.024404852343012158,-0.15874837071313105,0.14926688472847452,-0.05440280919251186,0.044928646793447685,-0.20710905745987604,-0.05542246471880507,0.08833052267994561,0.07713805696508011,0.015077468891287079,-0.02558101038219095,0.024528011261108096,-0.009239821987646848,-0.0004409132590282856,-0.024971517784558073,-0.007824807691581531,-0.0005023286470800245,0.07450278682279565,0.04412295090282768,-0.03378788795749293,-0.023683932930873765,-0.006253851627888793,0.00042294911170072695,-0.0009348453689163832,-0.029818781360045,0.07905121099611312,-0.002764810527076592,0.03996182005869321,-0.015439580207954245,0.0003096984597138892,0.018493594651133018,0.05924431637258301,0.0031178583178995715,0.011304392242684112,-0.006351655275217831,0.05915275161371584,0.011226807429358547,0.017969731442500646,0.01160592361624229,-0.08192430651081717,-0.028642074439179654,-0.056622272505015336,0.009895538667271303,0.02143561206923598,-0.012653448491410651,0.0009966859344622415,-0.06273721789359425,0.0019369669934791167,-0.007357434424403947,-0.01736728445934627,0.10557388730837935,0.04194794800164824,0.039010475952120156,-0.002546469748851261,0.0024634932156852416,0.07749671571011629,0.04159816559378349,-0.0007130397745437135,0.0005592568348361219,-0.003933548059879293,-0.023235074491213228,0.06299354905389565,-0.016742242210620914,-0.001826177228061108,0.0008344537829951815,-0.04991496015123098,0.06658605492208274,0.006174790572944833,0.018571138134853716,-0.002630475978936244,-0.02739515071683772,-0.10006357608565558,-0.004309177705202331,0.07846380424007993,0.03942830045072669,-5.5447821954232596e-05,-0.04624683877296861,0.02073754910908101,-0.0022610797156133356,-0.06640911748943512,0.05763160146720966,0.049388931116747505,0.09246518098790608,-0.011980266855370382,-0.038819467405328684,-0.005297766539380383,0.031077359242448158,0.0029778433227866663,0.051392391888605005,-0.2142870100456189,-0.14343444605748318,0.12557558309405917,0.07537723544458383,0.1244029436341782,0.006987653797386105,0.0028442550878893754,-0.07898451163402564
97.33390045166016,1.7479019165039062,0.022489546483954237,-0.029597996010916006,0.1726149920251893,-0.19352933697366953,-0.22628337052318095,-0.026878046366432852,0.0036890697434775535,-0.019464318045742942,-0.08879472867114369,0.048925739486748075,0.14667079463025842,0.06216940130712328,-0.00595285931719853,0.02691411020344534,-0.08523298104528355,0.005521260477515592,0.03651297496250814,-0.022027584454625968,-0.007865051117661642,0.07721425979725305,0.09355171968674847,-0.00022497639856144496,0.0003819957969329288,-0.06939114158121944,2.851276483570688e-05,0.019077919366502865,-0.020674780731872816,-0.05262354609701947,0.006145879081060983,-0.006793270777721481,-0.071113412639429,0.005804073358583805,-0.006576874190755098,0.04722553092181166,-0.004547232385342831,-0.0235199235290931,-0.03501719971272087,-0.0001730617262507919,0.006825407900658276,-0.0008904364872681972,0.012615040585341814,-0.004068328277282849,-0.04004430413000339,-0.0015542924728055242,0.0013341207753660156,0.009652645335636825,-0.016875582375697216,0.00327068337555715,0.002947390088770538,-0.05853124071061836,0.042335821403033554,-0.0033334772704938552,-0.010669066387481661,-0.04622546817291196,-0.02119537653277724,-0.001156106204193274,0.0005572890039403347,0.03959905932337548,0.04908867881391099,0.07247517217131652,-0.02557506904078768,0.0015482182545689931,0.0028154706698915464,0.0011213406858236877,0.031460617939340574,0.0016083025569019963,0.018963075323233537,0.002606696445518605,0.07937890678623606,0.0010375288816913437,-0.04970877255388512,-0.008111791864274335,-0.018120621594783386,-0.028255174707319405,-0.0591451540054744,0.02499939764467242,-0.07070595961679157,-0.0037404717412123363,0.026976927276214577,0.03994044330162336,0.02374711390948291,0.008771806431132694,-0.041777085154400054,-0.04403572399054336,-0.11759668704232902,-0.11279888378186492,0.0024048763719379538,0.07971202959808493,-0.0059944824520126215,-0.043511234011001765,-0.13299960344664674,0.022590470824192854,0.006595928843783921,-0.1226274559865191,0.056745695314548934,-0.19496311080312537,-0.090599544114567,0.0519170008164003,-0.08513166161417682,0.06385667387333412
99.08180236816406,1.768096923828125,0.2085472976137248,0.11054040191845096,-0.04626819509376627,0.11348744501090641,0.013747071740481552,-0.2823847933677476,-0.05767393083771644,-0.1035545710846783,-0.06331315292292462,-0.009198866786853927,0.11964788857232152,-0.06950237677785116,0.08284905523727303,0.037990384017792644,-0.03815301074600348,0.06156840089655417,-0.31290544187220226,-0.14814325918180893,0.23184012750218003,0.006992979345260114,-0.0908181412067798,0.08208628754454494,-0.1680410316762027,-0.019127121199461826,-0.016501297474283624,-0.00224978425640462,0.045215402876805755,0.0245549408433535,-0.024592017705182233,-0.04540365697089059,-0.01093676634130298,-0.0022772307986432296,0.020022607757677616,-0.015560113722512073,-8.54488312278743e-05,0.024503365571011192,-0.007413607901039381,0.0017577908544746518,0.059527901593959265,-0.005325490025737135,-0.02191983138757103,-0.023035930707962587,0.002490672795346765,0.043160007247394126,0.004548327145758627,0.04318080123091554,0.0003007564735232539,-0.0001179789880263307,-0.0009003975646204419,-0.0436196989910213,-0.0016067247286121263,-0.01692148072775783,-0.03809096577170041,-0.03884170044923619,0.019133000232924087,-0.02183920235556252,-0.00010435445950419476,0.0004114245439914971,-0.007581214872887513,-0.00961546308761922,-0.007378235507579024,-0.00922422113234214,0.00020448666436544377,-0.0018533527203317868,0.06465115102985378,-0.010222315672597314,-0.04054186333676231,0.004795879139415871,-0.0011344092003336013,-0.005713173342336072,0.0018811120660471164,0.0055471737693096775,0.057061898746323454,0.0027896556346680202,-0.0063446581804333345,0.007922035782698157,-0.014910379957362283,0.0018328018563539225,0.011435787738384424,0.05933865856194025,-0.013454439418642295,-0.016994512469019986,0.00921627357505786,0.0041230400492009624,0.00177709738781477,0.06834898582529256,0.04730235913820424,-0.04524052652071965,-0.007234765119362902,0.04471385027315155,-0.029992341651651173,-0.021369200226436638,0.028315278616628168,-0.012858847961661266,0.0016185744604383671,0.001927660250058511,-0.03498765990380413,0.011985186645308957,-0.08310504432204009,0.005185486036448861
100.84989929199219,1.6879043579101562,-0.008053724968820904,-0.03499748384837806,-0.0666386825763781,0.015465632603340938,0.12232648401723469,-0.06467053600025859,0.050168676184820196,0.07094090588337171,-0.14441044721498042,-0.07805694913908821,-0.04326338592697962,-0.014221083681097285,0.01946982978637193,-0.011869861065201194,0.04045198963265624,-0.005923048447646973,-0.09813932733264157,0.0008577651280223382,0.019710960936932517,-0.0313515091997321,-0.02094067193405111,0.017694912783287074,0.01847204704016896,-0.12946237740201566,-0.23432793737916097,-0.1410172518202381,0.10692125574676381,-0.16547746533447752,-0.04936325623273265,-0.02064871327616885,-0.17045721168924385,-0.34033170967694315,-0.05165409463433296,-0.0643592706892811,-0.07225602389355183,0.015791454888727612,0.030328346987601743,0.07403489729361422,-0.009012034528169337,0.0024707039807224354,0.0015071498039944719,0.005145522869354612,0.03241889587138839,-0.05727406757677487,-0.029873124476906775,-0.009405464624380976,-0.005253270944982422,-0.010039950093481503,-0.012216290819094859,-0.00025160166167246726,-0.04272102740587909,0.03950375500098502,0.01113016860603248,0.03840655582149681,-0.005193990546980777,-0.2685167170267917,0.32770518245440816,0.2212726564566815,-0.08487647525160807,-0.01936097952075858,0.002661743918133489,0.021690061899649924,0.04205926900574895,-0.05083401348294997,0.004003171842577274,0.01943172543957228,-0.009436863543472911,0.028450572741473484,0.01837682970456328,0.06754591886215683,-0.027444791617251385,-0.02623998837956023,-0.0164489381685169,-0.08422495391702177,-0.014368921172285389,-0.07764422158059603,0.02566802023600925,0.08525948106908406,0.0019524344037276733,0.0003911771210843838,0.009685874412987086,0.022734089269351977,0.056961877203367726,-0.00047012153714767713,-0.07276326355520314,0.029384617795092296,-0.002877712006137765,0.00213380427667719,0.05771323345332847,0.015172957120253676,-0.00582729880352807,0.08813178452740926,-0.012563699913815791,0.011855491526771426,-0.0016403715498085672,0.05187394911920144,0.024720797452532996,0.0168607291129794,-0.04592264930813171,-0.06081292900166051
102.53780364990234,1.5582962036132812,-0.05958857418328114,0.02870148250915091,0.16343469597883722,0.09850311312729658,0.2954960288576252,0.32152150778839483,0.15123463944883198,0.24111079631713103,0.2071305329912645,0.04974747226850118,0.0062651661941395004,-0.06094180402003466,0.010621322059573135,-0.07861595045398365,-0.05282449439726401,-0.05480835736075411,-0.007640854389681397,0.06798590230143386,-0.008330211244767217,0.062428066439207536,0.07386079032623052,0.02676401052889544,0.008788779548313192,0.01611809479012107,-0.06370585375313215,-0.0033021085352204415,0.0054519160760173255,0.09244947271963573,0.005532644221947797,-0.0017680441101449475,0.010898290964231373,-0.005107916708641851,-0.051375258359815185,0.0658040301757751,-0.006447323885248019,0.10602430990782832,0.022920479883720857,0.024248311475450215,-0.022843487044710245,-0.0038959643521679194,0.005975044529217718,-0.03194399500144772,0.0018833539377242057,-0.07949381871393428,0.04056192896789075,0.038708371225182614,-0.006827344109507585,0.0024609351046602323,0.019009274784324143,-0.060315656273738874,-0.0590031400233505,-0.01009682626175556,-0.03009566115229038,-0.01905367307187593,0.0760562201726804,0.040345132726522764,0.029093493203969617,0.01873315991641101,-0.0037750593772598426,-0.031447097431082725,0.019576877493440767,-0.00016836279549500122,-0.0001979666557995024,0.01890883290659715,-0.028623117324325813,-0.04238943528972962,0.0013820576767975517,0.012355367907943662,0.061401236404370806,0.014102674208696063,0.02562245139493728,0.036202962047638135,0.0001220894402763973,-0.0029673193548188596,-0.026991134537561086,0.010155573638579387,0.08119294338353578,0.012981852845209635,0.04363254722737076,-0.0012663845475042288,-0.00824498455637544,-0.008463932823974642,-0.005559954152587749,-0.01927741512018624,0.025287769732044576,-0.004386908973664257,0.10899920862082983,-0.04740583955924421,-0.13194300525266092,0.07605022624239219,0.051598573318193335,-0.014517599641559359,-0.05222945353981493,-0.10686411051899909,0.11937634606042555,-0.03711229860050068,-0.05153816046841634,0.036287173282167136,0.044248349122123415,-0.0694351806278002
104.09609985351562,1.5886001586914062,-0.07288264782061195,-0.1062735366368728,-0.019206464432443407,-0.10402231659005894,0.00972718152916206,-0.06407554545186613,-0.045505892602294415,0.03447018125687659,-0.06010085801188582,0.0018644260387041811,-0.0028654914308039233,0.020796446089029086,-0.01973335108954266,0.07914445845207198,0.08994275620253885,-0.005224468309092139,0.019827486804613964,0.005478187565292705,5.3947008347618756e-05,1.7234264009852477e-05,0.01567783818705441,-0.026309584774182247,0.0010310245739727846,0.034990373984131705,0.04286781221959975,0.036708051918697054,-0.00482323957847202,-0.0507068356471433,-0.026456545690031735,0.016202685179109513,-0.016105490720154065,0.025079774074543495,-0.043045601600670835,-0.02424415220823796,-0.006460868590848007,0.010558380175633209,0.033054524161047406,-0.004026717776208666,-0.0017371299785406363,0.029959880087094545,0.03625142329273735,0.033110720673580375,0.009875756196443762,-0.0006438573813269458,-0.008582315970746015,-0.0076759491834432385,-0.0029369880328961656,-0.060253995711745716,0.005636058275411689,-0.0019430090629331067,-0.00820654252537175,0.01800139276525506,0.022468442690434045,0.0012231237838022959,0.0016166124892049835,-0.041049958845259325,0.0009156667628606647,-0.0007695663237342106,-0.015623446041960563,-0.011729477666079744,-0.08449972927081424,0.03467475819465928,0.005252315853794616,0.01901602002349713,0.02627562474165618,0.023500252048239238,-0.07807718622030695,-0.011531057234870953,0.023123113826100536,-0.014879068451429877,0.03346302594998647,0.014103601780080008,0.0003035571859805578,-0.01068752811390909,-0.07735439804225072,-0.013464084460072651,-0.0360074547774054,-0.000570961092876552,0.06163163053773038,0.005918515355943001,0.03644560697506356,0.07507317510092437,0.04943510153376823,-0.10400982387261873,-0.009911660088511033,-0.07148591494167555,-0.10452576558961317,-0.03496309723418402,-0.09349344863999944,0.01903871590030337,-0.025152459886075035,-0.0473666839839901,-0.016036438557398246,0.20823173062955636,0.20421827794095096,0.10212601977950057,0.11407138447053425,0.017776145370564628,0.006338081492726687,0.10079482770068608
110.36969757080078,1.7578048706054688,-0.12193395834760068,0.14408011671648102,-0.3416187390672699,-0.0047200101361070355,-0.1569050214477884,0.006801580609461777,0.07832335152111335,0.07895578873018343,0.019471121612405703,-0.014919515094191932,0.05168306144624906,0.027357508529588608,-0.004227279859155789,0.04560363091500204,9.487705645008825e-05,0.010414229535367454,-0.0664352875998276,-0.008020559200308858,0.0388457841180785,-0.003880272251329142,0.09814306350975711,-0.031411143479837256,-0.08887205184227051,-0.015528716027855894,-0.0074707991460064,0.031178066149941414,0.04512356101237527,0.03411697080776671,0.003308571730265813,0.02613084461713507,0.127835829649729,-0.026783907883439532,0.06405701301983595,-0.00045384716163129603,0.01573814654595227,-0.01197970322649469,0.005210973873917945,-0.002959609742502603,0.0631730921228768,0.0015420947133573302,0.006010683389601473,0.02466849348237789,0.01263163325180608,0.012666414754853264,0.031131342148579034,-0.09613902192666102,0.005148492942281508,0.002449078236384286,0.021542804501458714,-0.03731716650098211,-0.02272074411928055,-0.06705113035409105,-0.03477287761593843,0.02047764247582882,0.0042028067613181655,0.00316052116812319,-0.003546877345444482,-0.009052083511997495,-0.07950860280738967,-0.006159264069607134,0.015239091883367115,-0.0356009893039714,-0.05522519473845113,-0.0048649361976598905,-0.008907339306331655,-0.010429121998484463,-0.07452047644524064,0.009643545813964018,0.008030140031706323,-0.010001937998821469,-0.015603395727054863,-8.173208954927276e-05,-0.012596911154649866,-0.030892973780332827,-0.0070735702145753926,0.007350552889764168,0.045389019317634664,-0.030142557299474217,-0.08089516108386646,0.05521582025872981,0.04771840591190442,-0.0013601309381242187,-0.06299515018875763,0.025143679023270575,0.03947327604548291,0.06267824445095736,-0.02049511154120899,-0.08144692000543009,-0.03449480319436224,0.0029933014557866895,-0.06197169408962872,-0.0008304689376673312,0.0007763131156821933,-0.010929108305271608,-0.10855064390161008,0.029106616159833936,0.023889443122285376,0.05897261418940373,-0.08236557752305954,-0.10501643597873175
112.12750244140625,1.6782989501953125,0.03900111899031636,-0.03561517990012195,-0.012280255155573022,0.056617519083997925,-0.10678758919181727,-0.2276930200425296,0.010617429842695246,0.03237899176933262,-0.09555348090554573,-0.007958438735568231,-0.04368338992177971,-0.006385955421539237,-0.016823502361062812,-0.008462467686451841,0.004152368919885956,0.05046705576905225,-0.014274041366641038,-0.02227395908189382,-3.429374203287266e-05,0.011514703880512827,0.006965016364353906,-0.05236693807175632,0.07109036563616035,-0.03268669996174059,-0.004561939592571368,-0.15297602651324282,0.00966499391471262,0.02260572911933088,0.006134600152787813,-0.02643630702844184,0.02959395430309555,0.07263025947704974,-0.024136157229563193,0.00019464624274856315,0.009592733478461223,0.035874293877443564,0.0607955393154554,-0.023739860932285906,0.004483974039938877,0.011155816520384975,-0.0011582901167560946,0.0060604778216652826,-0.05558095191838697,0.0036970652535861038,0.034350973468215765,0.021829090691380948,-0.026285720443769235,-0.005074258989561396,0.017740046419012903,-0.08931114298062205,0.0010325630828972043,-0.006015586457862157,-0.020261331975097503,-0.006104402324821545,0.06145802271561806,0.0312648977274098,-0.10281215079695409,-0.0012149529268917338,0.0018156113038590579,-0.0022199150804079054,0.01915557090777451,0.007785111524182881,0.007611734592681639,-0.012877607273443503,-0.019881518524085044,-0.04514872834293135,-0.004485176828640738,-0.0564931898795989,0.0025264602148048912,-0.025971532203776976,-0.005558266260030431,0.07638173303553743,-1.5100119318952547e-05,-0.06740066038230912,0.06259711076407469,0.06039404570509252,0.011760589703044267,0.07848238445188938,0.02543922396251766,0.005752740675457491,-0.015926800446543786,0.0699207664139854,0.001620642892989288,-0.0019183970932973682,0.0047227599703021025,0.0015106062813823506,0.024062300981488184,-0.004410922788688441,-0.05745573980606578,0.003598093154981096,0.03906207587851493,0.01013297322950927,0.032746112895037004,0.06568387387088295,0.13328830144970436,0.07887563956861329,0.021045784909480628,-0.007435212875380785,0.04899786146303152,0.051143191597947654
113.80580139160156,1.7681961059570312,0.1873895603384322,0.06311686684345914,-0.0654677243708383,0.17985733846499824,-0.052720975674767315,-0.006381330174597039,0.1491964114299978,-0.06924041013598069,-0.0026183580749027796,-0.07490151325385003,0.15840640520604335,0.019716793422440274,-0.11082959183811383,-0.15736435518300743,0.011900875401069915,-0.03023796616499029,0.0100138417683721,-0.0006785475891636036,0.020566025569013546,-0.007267936762491434,0.040576339075434745,0.03798465522628009,0.001539985618985403,0.00464896050380385,-0.006799821140644225,-0.009227091919745342,0.0012818645873883348,0.00321100164801969,0.008260001944048892,0.02692974408468328,0.005263434189495056,-0.02641900628785591,-0.0018376711300335984,-0.06034866879975382,-0.004232861468207052,0.014671545759107455,-0.014233343859623698,0.00465855254195617,0.12478978348569675,-0.001880572165153977,0.02924407262625509,0.09390411989735514,0.0005929588624069481,0.016465572539281104,0.0010267430574288103,0.003600730334526864,0.0007098346524130522,0.00923429053293179,0.022829785168865455,-0.004372481590104988,0.04171336208804305,0.020592278819147925,0.005934790652984935,0.01009510660526226,-0.0007932434318769523,-0.006112249467954174,-0.03352819367215623,0.042020106438784656,0.06421115352673586,0.04400653206050772,-0.1591500432780973,-0.1490387184348428,-0.13564666130799546,-0.09664814744389656,-0.009346792887877499,0.010097751843863561,0.02054006105596002,-0.10401415560030701,-0.015911390001069114,0.010490496736209054,0.06668736630481215,-0.0487890381002592,-0.034330027852671724,0.00954985742740777,-0.006939193148041762,-0.00263867534157195,-0.02411946965337087,-0.0810935369088657,0.007191936337009935,-0.08129019157079083,0.019682401582440945,0.0013058468512253012,0.0030389127366774902,0.004144852563640401,-0.047916687574780306,-0.022155775498228863,0.004050160203541146,-0.03368803823923017,-0.038270521976838404,0.08991908597887056,-0.05249639628949562,0.0433601305376148,0.0899264053255086,-7.602063803793476e-05,0.015670202494557403,-0.019431830054232695,0.0263237922507998,-0.07858933984148671,0.0007985825399068259,0.04862842887591343
115.5739974975586,1.5777053833007812,0.04771360772453312,0.026116976794635132,0.040419921544354996,-0.19618439229879353,-0.16960511315457952,0.034812137419943996,0.008322683424488109,0.012619701633755281,-0.05057868933918257,0.026273938902860037,-0.0005126861397306334,0.07317776319694892,-0.06493585743106149,-0.055817503545116845,-0.03320137426191129,-0.058892671387360956,-0.005662710591073805,0.06303908229137796,-0.0035028450312306475,-0.05540733015219725,0.039531601933498584,-0.04347235471133541,-0.12660141711818268,0.0799569548919541,0.06944423257206217,0.0340793833742453,-0.041199519246209605,-0.029593584876078875,-0.007721293716333935,0.00036783814555570843,-0.00010591929892061412,0.05218705880828555,-0.022024132202352806,0.006507588752588714,0.02861918138331649,-0.026067943654786773,-0.003387325745258958,-0.027555429773566453,-0.0017446622464766897,-0.028011854159540068,-0.02082580814142674,0.056801166397904834,0.0006542816204220816,0.0007661326977005123,0.03139744023432763,-0.01996617256801897,-0.07117321908795297,-0.0013575850161545479,-0.0003441946798158017,-1.503684151515653e-05,0.00041815487239043746,0.002294441958057242,-0.005557189573558193,-0.027049979400124376,-0.021834092423951224,-0.07243701128520866,0.021191369064723235,0.027544962081972935,-0.09066954829691724,0.15462423481009896,-0.17360138564432698,0.02416404936912947,0.03503578951909105,0.019485731359318102,-0.007493400948914125,0.019446721678954594,-0.016472431643326273,0.0009600092739851035,-0.06962346034750125,0.004925654793045707,0.0016485139192477718,-0.02736995287890536,0.024452620035566253,0.013224501801533357,-0.04030474759699619,0.017436443456670767,-0.0003221194786140997,-0.03224679970002424,2.0685659527161504e-05,0.028912579003940737,0.015383983114341148,-0.03830829531103097,0.09207051103950664,0.00017041417636914154,-0.005634221000205965,-0.08767696811351111,0.008803704544966408,-0.03302516673251738,-0.005587215606778025,-0.003988684011985415,-0.01803734359673466,-0.02691559891663353,-0.06950647030207756,-0.03326705035062835,-0.0005004308698491944,0.04646970437291981,-0.014564661267142075,-0.10727822816171655,0.009994000443068436,0.01028181233387829
117.15170288085938,1.3387985229492188,0.012559265410381963,0.01014134678651941,-0.060622356976616235,0.010574351234741972,0.0720508816641158,-0.034262694312327945,0.09712090404589395,0.5530119344660707,0.20065851058460046,0.08051806329143414,-0.07122545978071604,-0.0020803321916990566,0.0770128124552873,-0.023656657275242098,-0.04434809952987866,-0.014336814615796495,0.2424866925430186,-0.01134278050996599,-0.017432471328379787,-0.0013825593380116712,-0.028215988252406208,-0.023892563421226705,-0.12288286719435622,0.025239420334842243,0.1770107776546549,-0.016104631633842945,-0.00016747752540736412,-0.005485707433476308,-0.05865642404161985,0.010769951361001503,0.10152038696595234,-0.05682476113021459,-0.0354785293393241,0.00026376755095638613,0.0032805949546053197,-0.059288611692485074,-0.0055070368095628125,-0.05789238370089087,0.007496869961458442,0.04186337930152466,0.07222051918831615,-0.007516680745820031,0.056908225533777244,-0.02140897462777881,-0.0003422374823270029,0.008111592859373951,-0.022451644168516333,-0.0026643433533558654,0.0005425218283794289,-0.0017601957264520476,-0.025478399473803735,0.020338422379802885,-0.053706973813635435,-0.05409338318803503,0.03147499884489638,-0.00022219006397299561,-0.0012851273273548516,-0.002106062613553253,0.0018307817118598058,-0.014538414983738025,0.048933763746135166,-0.037928401001274335,-0.0015500703464841688,-0.012773423267507822,-0.02196648186059335,-0.00016635485539399594,-0.0911614826488089,-0.07507621055410804,-0.034904550282856404,-0.015955756042197195,-0.0010633007571576188,0.0006692623824573055,-0.04132097801119245,0.0005741915671472846,0.02589021528281117,-0.0015147121478581904,-0.020782424164566833,0.03142477428967492,0.02718437144330476,-0.0029681653867324326,-0.07604182249813142,0.005352765050908494,0.0009691187076818751,-0.03267576406117815,0.05554399196630462,0.014596951134569528,-0.03308951377564947,0.014277992206997102,-0.058864763565476694,-0.0348576948456698,-0.01617863799846386,0.05960883432288602,-0.06107488162958809,-0.010532471301412298,-0.13442572889782176,-0.35734770119233483,-0.09344371413000595,0.0024621875891730847,0.03670547893416356,0.057943520870504014
123.25550079345703,1.6781997680664062,0.08295461975766891,0.021463896534160042,-0.3656184768247238,-0.041055553590572745,-0.11690447677328722,-0.05298787742835891,0.06895782445369406,-0.07949564961664601,0.020520206525029706,0.0883141498695964,-0.04901622385483067,-0.05441691300477495,0.14660410428441098,0.06696427316477407,-0.025203010547912057,0.010067462291856092,-0.08579337924132824,-0.01425917117236055,-0.03585824955287506,0.020295265871574167,0.004284700145884279,0.07668260471842132,-0.09962332688108914,-0.0017056465065994342,-0.05049767955856391,-0.00038355245999098747,0.0016509287820363266,0.006621023798965819,-0.0011824389539055206,0.03634934326420609,0.07114761520701088,0.0333694752957821,-0.006836444055058924,-0.0034506981490583758,0.01944484377019716,0.04027457862426361,-0.05099154218268266,-0.018724423791536493,-0.009368219553622725,0.0002606349356078504,0.0001155999446555194,0.0003720710757400945,-0.0731803852554304,-0.0009849580228789758,-0.006166859993954953,-0.0228744066041377,-0.013399851963144823,0.08931957761575243,0.015869843045474313,0.0011255435752806572,-0.0014128085838709826,0.0007887464834055866,0.0015706758752058892,-0.004953279327121559,-0.0689750376097996,0.026771897650376145,-0.049742549885314576,0.022816599527889277,-0.003911473793870308,-0.007700743566729251,0.001143567601904881,-0.0021264148120484078,-0.0016721275399743107,0.022251704433068842,0.009899614005793367,0.07984547844004633,0.045805418671185906,-0.009830987479258684,0.004604102830651949,-0.10401117426309249,0.002703486925476338,-0.002300989449433944,-0.09469459609704489,-0.013029880777886547,0.03859516525562629,-0.0017038801594314124,0.0032983046310755266,-0.03824997584787522,0.02138593311210306,-0.03474422069166387,0.01357764623950449,0.010778791473440387,-0.00672850915946276,0.0025141498446625047,-0.062116140251400366,-0.0017721212588071775,0.0018164465648557765,0.015425162061087365,-0.025617692157411498,-0.020618433460512606,-0.014566018924243434,-0.01403651108370191,0.015906760238490504,0.0107571664559484,0.051315280382418685,-0.05403003458684846,-0.13683332680660287,0.029037371639305642,-0.0008351759878488223,-0.07997627035056241
124.93370056152344,1.8675003051757812,0.05483887391923123,0.2699732058257268,-0.10598301183269065,-0.02853576738071608,-0.24937123159664726,-0.12342089069249204,0.06759442849847447,0.011168675829373942,-0.06353156647887392,0.03396236056150777,-0.028884509410334998,0.03260610127087108,0.06793077047589233,-0.1910771804629262,0.1361888163826304,-0.056710006604468566,0.003816457383738132,0.00239978994080583,-0.0118023898468727,-0.024286913701971103,0.044605770548969276,-0.019725100457755,0.08452923018679367,0.0757825471209058,0.014608629248646914,0.004394701175693014,0.017755525121564156,0.023589559282132928,0.017428516034241955,0.028250516111769725,-0.005602897730540649,-0.04458870929475909,-0.07595675308064823,0.023048246498495087,-0.037011448131623846,-0.004831335785435516,0.01337776288326005,-0.002465963549165486,-0.10544982096185283,-0.0684951469057929,0.04548035838093821,0.0005577517369405481,9.501183215741481e-05,0.015786119938150336,-0.026394352968733447,0.018391068607730293,0.009507382544068924,-0.03111239627456111,0.003041639245372906,0.0060721982378072374,-0.0009539172781905167,0.0015994438357687067,-0.019988552203046437,-0.014769489199549157,-0.00010272159865775822,0.015649997443717013,-0.00015304331460815404,-0.03044414414742204,-0.42221874692581757,0.5038991544060993,-0.253688154800761,0.01782214604977597,0.011094121547784499,0.09807600375373765,-0.0010866971888740201,0.0016320624687082112,-0.0069224368025125865,0.09259869247637637,-0.031974741773499946,0.07871622914353205,-0.00047437790177027467,0.030268272111184005,0.001289925674031453,0.004966356000377028,-0.007878750517542539,-0.014016874164262763,0.0008725979830218836,0.0020371744249425812,-0.04341425684671455,-0.015942244912894497,0.038942496983924754,-0.029961350722987782,0.05631150082593357,0.1329978310211764,0.008030156195987492,0.020497728036641384,-0.05357225302557002,-0.030291838065795954,-0.026536343530637725,0.0008691629928004581,-0.0524394853947892,-0.02714635182314241,0.009020384334743323,-0.014422274275401922,0.1451581942718343,0.04049839287336493,0.05938318466559389,-0.013539052372830778,-0.07028156281206394,-0.019952746540956218
126.80120086669922,1.7983932495117188,0.1141542362158305,0.17586562672600875,-0.07906154717950716,-0.09743963508099604,0.11636317760457572,-0.07082778826882545,-0.1420802400062258,-0.061497316747173146,-0.042143240236403534,-0.02922328657591399,0.027857871439807155,0.02903069671677296,-0.008901046542004014,-0.003429455031908129,0.013507622837509434,-0.010760097582991271,0.026262055233895396,0.013787707099407971,0.01624958878746787,0.003404451986228037,-0.002062290429520607,0.0019484423200669706,0.018208775355665185,-0.00845083921611342,0.0003980591138415686,0.04418684361473382,-0.08349457940146904,0.02019870451169129,-0.04268647347229564,-0.001522084155464904,-0.07549383098970262,-0.017268518997397446,0.001114849524471913,-0.06991949562191233,-0.01867862123645803,0.010632424666153346,-0.0653792522376265,0.11367569864268198,0.005927693802147028,0.001327711461689485,0.008967414426973146,0.019519054457646637,-0.000673696224866717,0.007259573270663259,0.05167218654933418,0.0013386888989305387,-0.04863140380519964,0.05276413417353691,-0.0020570211067260542,0.03506780981167955,-0.0020164966520607942,-0.023362055269860883,0.04737116426995552,-0.015647197325639323,-0.07239796027419249,-0.04529006112524027,0.04438251699851094,0.017275057096151687,-0.002405718012420793,0.04152432594429017,-0.002581764055682568,-0.033742483418417596,-0.0012508544751223373,0.023210261248002424,0.020270942568193055,-0.00036921317029224316,0.0015670343553087283,-0.10420735831781985,0.04552490857847751,0.019209800705966465,-0.0012567983708528427,0.02821795189139243,-0.09980922716111784,-0.0017817687661789796,0.030948093636333426,-0.001478373185279984,-0.014227317682374495,-0.008085899345589054,0.01907533919757826,-0.10277198155241564,0.009106157024834367,-0.06087575571339946,-0.013980749477713604,0.06534887150233991,-0.005286473871867083,-0.011988121346415576,0.009735817460844265,-0.025502864889739366,-0.07157267986079409,-0.07330599279484812,-0.012086499445176533,-0.0066073261569301305,-0.0017529328906552624,0.026772794899150673,-0.025109005297702908,0.038005406407947286,-0.09201766814075428,-0.05044191639283418,-0.015574676999896111,-0.09036732710304814
128.59959411621094,1.8180084228515625,-0.10098277599066016,-0.050517500885982586,-0.016824205309898563,-0.10696726447015555,0.01819080433397416,0.09546757366639527,-0.025475928242494797,0.08619335624908481,-0.055874532749719374,0.0827357180323813,-0.05130247720589198,0.08411557944996352,-0.042127205840425765,0.024151797347356542,-0.011510259645209159,-0.16825733952736363,0.006823520560415445,0.05668637993649281,-0.09981886449641134,0.12494252019290207,-0.00780912908038819,-0.041381475334102025,-0.10976879640484724,-0.045628905479800495,-0.06146234655505968,-0.05800634540084137,-0.010003672545181391,0.0042864739261834015,-0.10367800896064705,0.014329060083503226,-0.0022307771012178984,0.03579058052611085,0.0007080006344635725,-0.1052011385502566,-0.03830163664154896,-0.0009351097211529585,0.027747527682316225,0.0011593376029979908,4.741486290750415e-05,0.022390500710058107,-0.05671556345741881,-0.035762473581007787,-0.0025369652808960815,-0.0007159695387240666,-0.03540747756589018,-0.01808312975263708,0.08307401733721329,0.03381481320462694,-0.04006065741821992,-0.06472682236000556,-0.05031784497692139,-0.07657990367496746,0.01567553701061784,-0.0032888268369749324,0.0054170796752039925,0.012297243522766928,0.008788954495670215,0.04401202461893482,0.03232714826292508,0.060094357150350865,-0.014336887586306442,0.06598165463355792,-0.053875941470975276,0.0010833108150891829,-0.0111570769475023,-0.01585339497152819,-0.008556700185552808,0.017933641694272983,-0.0007698800706143166,0.0006640609966744086,0.001145367836593933,-0.039797248465997755,0.05050053271454183,0.0065012701797683625,-0.006686434757364714,0.006418140274340999,0.05544609320660555,0.009754937441706258,-0.05759489993585812,0.004972204720592914,0.01978465502408799,0.007656303181248031,-0.08758612985164313,-0.037396738440251154,0.1029967537385213,0.01923406054202712,-0.02702143918146835,0.018628113088639296,-0.04139027637603952,0.034563262111754416,0.029759646754894956,-0.1353053981275577,0.10234455217045058,0.0001380794365355301,-0.08658105068437902,-0.06630422996909875,0.02434037097534976,0.050758696999958046,-0.13935123570087654,-0.10325857331639385
130.4176025390625,1.6282958984375,-0.008332588721115627,-0.19679007577544708,0.28673744781651794,-0.155369824867372,0.11556585623291296,-0.505168513615132,0.09476030324356817,0.057439691560588854,0.013410754459436765,0.012532077433996862,0.2319992358444133,0.016174726241776117,0.049701324612713475,-0.020162002256236794,-0.0825097720264199,0.017679976829173872,-0.07544683613150001,-0.09051170785010336,-0.004132637732661344,-0.032110688866083,-0.09950162902977812,-0.024769590532113236,-0.06299510405931155,-0.019296958994338614,-0.051868362694775794,-0.05842412020074479,0.09730568913589366,-0.010561947181644264,0.0018364910614299822,0.012470515968549409,0.003723255927795919,-0.05391858861450786,0.0013186215130725517,0.019855674996218358,-0.035911679310332935,-0.05406611074080811,-0.01735795815937862,-0.11034215050851029,6.445120771819625e-05,0.020250646994710096,-0.0504133790668187,0.04021923884270109,0.003727223633185818,-0.003583114901714604,-0.04402230744758447,0.004658057931138198,0.014175424726642443,-0.06032369853550524,0.0666852506059662,-0.0002425227517942677,-0.02657316166885451,-0.026230275593971446,0.008009616611872572,0.03594294319449712,0.011057456704742282,0.002010031935823866,-0.017918916796935167,0.032903413471933644,0.018042402439053296,-0.06782702924139097,-0.05658828818409611,-0.046943419167470156,-0.008685108371523403,-0.00043180089420888357,-0.017805150516131584,0.0358625366440494,-0.10029757576269718,0.08996110348150725,-0.01639970590960983,-0.01174561046243644,-0.0022767272965515924,-0.011241836680327182,0.0019331252034517487,0.003495776316313646,0.07767195593873029,-0.01511990243140863,0.00025964734574982233,-0.004196428973384971,0.0001299903344137914,0.00505056003729137,-0.03810846356734595,-0.0004684334385700559,0.04799770380137389,-0.00038345263217910426,0.00455205691201396,-0.03112676852105641,-0.0826956363538136,-0.011082222995656966,-0.01508176628369886,0.10612248574516449,0.0019572086927486317,0.02162798869822811,-0.029737352555435692,0.003864559711793192,-0.015919266952544545,-0.0090231548661257,-0.01102608519861348,0.009252837743988192,0.018020536871806422,-0.08925560656169414
132.0458984375,2.75689697265625,-0.09598433836784379,0.08808251632161893,-0.19529339336157253,-0.09427333216646862,-0.015797280650393878,-0.03452463326690846,-0.4355241215459119,-0.08515565764725858,0.12311575795541108,-0.2192968161024885,-0.20112496215057585,-0.029060107697062954,-0.18211242309907139,0.2503509373707678,0.08708939873065169,-0.004539189663498888,0.17230124936839872,0.19632828146288883,-0.14601432041886522,0.019460777783544825,0.002923004821612618,-0.11788359942423124,-0.009342251106012892,0.02235831638541546,0.002896150726249239,-0.0006806115104786871,-0.0003782890643123635,-0.015640806032081577,0.01022502836126041,0.15753984528257264,-0.0910561354587406,-0.05220344791712702,0.002002184511355322,-0.003952954768851083,0.0012145634651531474,0.003253800465070567,0.023946243132191184,-0.04745164052255467,-0.04371764641683658,-0.008276244329923679,0.019502599042859003,-0.007596714231995359,0.018059818794662848,-0.11152846004619131,-0.016317815426877658,0.016573091359983427,0.013256717035612313,-0.02640428177863738,-0.014366959011412887,-0.007571680410303562,-0.04628974362876228,-0.05019779320601469,-0.1091339808463809,-0.008590798336863888,0.001957492569679667,0.006219350977343051,0.020575065663378914,0.00442188357719658,0.00047824967517332565,-0.0007933713338340766,-0.0017253845063602727,0.08614063770179059,-0.02672170951648685,0.07265749554285175,0.012123852946179146,0.06230067152669469,-0.07066502030173887,-0.0764114259486213,-0.021259019744940266,-0.004915175085489555,0.024998521773049332,-0.03712465553751937,0.030180787389922595,0.03936009275391379,0.003349474081139627,-0.009162786782234957,-0.05829398244699645,-0.044804127573010236,0.011936996843739741,-0.03691611698245245,0.004228967208612886,0.02234088564396769,0.0030744958461516978,-0.006824909568720554,-0.08433012099825969,-0.09257526692067782,0.07355432582446002,0.007852147966350097,0.037779935528856626,-0.0733745258592685,-0.09186813692113102,0.06566603113654573,-0.19471275693241494,0.05787923141886306,0.050198686333537315,-0.06830278897931784,-0.08810219227190362,-0.05845690395000211,-0.2117623580946123,0.07167954270758262
138.2689971923828,1.7577056884765625,-0.06530968950798323,-0.01739343865899114,0.16804634121203998,0.07064988110609559,-0.2751257624915613,0.2714290631034736,-0.12133731152294215,0.0970416849157815,-0.06753874157929984,-0.17917043394320753,-0.02266883425526314,-0.004020037920019127,-0.013350088750070422,-0.03109233279096865,0.04723507896679857,0.03406981828586131,-0.07942368987001788,0.0013262790756124018,0.003664659606872512,0.05412233073181409,-0.039788451639496,-0.08901015521900135,-0.05654039866046975,0.06798772346969831,-0.0793697915670518,-0.0348878941970482,-0.000861611743448557,0.012037903885429291,-0.051372229352036225,-0.009680656716795582,0.014703572993378896,0.007051785183514991,0.06607397133127331,0.0568514416351425,-0.039345382325218274,-0.01990537311827376,-0.011110502434459452,-0.0021639510130711396,-0.006890129236292916,-0.01657512549646653,-0.0008067120564887171,-0.0003665307549642722,0.002034892877490541,-0.005336637149137286,-0.10158338118687478,-0.0006759755814435688,0.10050611018353271,-0.04236936769617409,0.022206882545443164,-0.02501193660293765,0.04319140594860627,-0.034041475622060044,-0.012160125495380536,-0.02068279840587016,0.0009846297908201562,-0.012304067545499502,-0.03358873958427798,-0.0427031495942318,-0.10277533136625049,-0.0026222799672293235,-0.001999100882303828,-0.11065602814993741,0.0016959415473644691,0.03909792786812645,-0.03712452448199198,-0.012577045718143217,0.025732672996074908,-0.002163164890944311,0.04676277976066083,-0.0006543530290004257,-0.007108701210113141,0.06519745090909905,-0.008165736938809495,0.024685482741312402,-0.3069679307961316,-0.06250326572547461,-0.04890479491479112,0.08707261394082717,-0.05486213844866053,0.048217253257909355,0.0018993389512003626,0.06417023576167107,-0.07692466309927118,-0.09484950819280741,0.12958789736939966,0.07618054241201266,0.015669671430359747,0.06534425432960404,-0.0021092339100900904,0.005186225090849912,0.012881851630871704,0.01646524717045017,-0.08595339758904166,-0.0864045879272187,-0.05667599026860123,0.0695951228003866,0.09115303108787834,0.002242525879459633,0.0033992637417602414,0.013589860211663224
140.02670288085938,1.7086029052734375,0.15576814869929292,0.5611579636302858,-0.007492800932766913,0.3400148017233897,0.18349360077162036,-0.03327165796863556,-0.03730480525754334,-0.010371070715606358,-0.002752645076813399,-0.006293368033120035,-0.10670404100114739,0.019128735825914615,0.022344538344272885,0.004953109521357069,-0.03868800349467956,0.020453533358151737,-0.005160454481944429,0.004844138108754609,0.0024695353566138237,0.006243520287913112,-0.03551216270138561,0.03836874582237028,0.004222000429452903,0.019507418845237916,-0.041074725871868216,0.05184805376241329,-0.028758054003879818,-0.022904519583784165,0.0942435116162392,0.015885817734723452,-0.002502258013180658,0.02843899913864869,-0.0024597732931809398,0.00012876999727395866,0.00836230550734899,-0.04935223376478386,-0.00017175309309661526,-0.08312333347694,0.04328079987375812,0.009630009510271306,0.014100750437911227,-0.10927788939328219,0.02413024402334699,0.00832189992675851,0.014802971324139595,-0.05990205402383104,-0.045560999144235635,-0.040319788551511804,-0.017002905916538382,-0.006621414447347927,0.006580406958106886,-0.0024247386060256403,-0.0007358970188652612,-0.026265767855620653,-0.02940371642496054,-0.0174547551038918,0.0027313889654936654,0.05029764622650601,-0.004252187504580313,-0.019386017167671722,-0.0012987457661326072,-0.02603215902098025,0.0013007389651267436,0.00013947456526660186,-0.08686604961141618,-0.012184943508627324,-0.0069547992385758945,-0.029657090303237568,0.023772092863389424,0.043356535200247875,0.021647991258127938,0.05335102918945181,0.005776460608212154,0.00277233430548466,0.020426191934054618,-0.05521627317392201,0.05858013384379167,-0.014642833314084204,-0.028154664029435363,0.03534518082526961,-0.018467108953819082,0.06155456441360062,-0.0303477432589132,0.015145338466980664,-0.0018550033313177016,-0.00015688654441160828,0.028112846570820207,0.004196131306421298,0.005827611077649513,-0.05259015969484959,-0.038028377247901105,-0.021696906508937353,-0.2098100292274566,-0.12290394044054774,0.0433988809876207,0.16396867128567236,0.14373845483718276,0.009878708638725829,0.08619604538810244,-0.08207295030487699
141.7353057861328,1.748199462890625,-0.07949585536561296,-0.01628791963862282,0.08403409727953803,-0.06736989262321597,0.10788687997143007,0.03583515033597169,0.1448386511935476,0.0525146164616881,-0.07933947374813197,-0.05321534415904817,-0.05042724101826187,-0.010595841035444697,0.08520269280695673,0.047451090776732575,0.05217292747864446,-0.004750185072877789,-0.028318508813733906,0.08152170448864891,0.09007779967519434,0.05305823188097507,0.008482006787254899,0.010567778041810203,-0.012877121947553935,-0.001690325695915723,-0.002775237115103592,0.002676121094564943,0.014094975171921771,-0.029457656428175175,0.05459795488202619,-0.04625240211394376,-0.016029500997999872,-0.003509751923316251,-0.0024656070707578803,0.03511688773353309,-0.0480315463935877,-0.015757536213534,-0.0025803731527363153,0.011419419381306332,-0.04264752506224474,-0.013745024826324314,-0.0006957163058279329,0.007999574420094059,0.0077225371557176235,-0.007881893426647432,0.01620843719813478,0.03156284814636265,-0.0066397087240285925,-0.008303179332442467,0.08380650426560497,-0.028267164532295205,0.05073310641748919,0.027191522747492806,-0.04305463392620057,0.004724654763159694,-0.0021711806403141146,-0.029683331070586738,-0.018014665421837446,-0.0001644570144463582,-0.011132663487306614,-0.028063124618573493,0.015167565265141573,0.013499077086232715,-0.011308963738388333,-0.0072634637223161,0.0026276497646297173,-0.01617622223844534,0.07391094020894254,0.04003573425404961,0.009861316946400541,0.003578347784429552,0.030497068309970052,-0.03415195628868897,-0.012182773785044244,-0.059206206060542034,-0.16922448749272026,0.12045272333449926,0.006447310467016827,0.004466222031384738,-0.039067697249223474,-0.07305921596611037,0.00012289417594535184,-0.058228101965356854,0.02580509868848783,0.041232074056366134,-0.11744775555155157,0.01473942040951294,-0.004411605764764777,0.02603227824827855,0.05194503938627808,-0.0038933508231799546,-0.0062652735652177225,-0.005839666015284988,-0.016550786533584147,0.0036295483132394446,0.0041510245866244145,-0.041470605831067764,0.12237174924284243,0.004085228487288787,0.06179861118798074,-0.03856584579001171
143.48350524902344,1.8577880859375,0.10361222213884484,-0.020371199906751382,0.035388551212127056,-0.014349186244187337,-0.188462334135915,-0.27656779499472345,0.08000855415855686,0.10707103964565837,-0.003540809755761501,0.054545675608629066,-0.007949519769615263,-0.012992292390614418,0.01621041662034678,0.016408032370270054,-0.008114379158772337,0.03400911237810468,0.01797193546648918,-0.013904549781625636,0.0020280461897284685,-0.01682644852478217,0.003338260180582303,0.007687071211364007,0.023373649751846883,0.07191446420174676,-0.0405050042391983,-0.0003524685143345312,-0.09516354579224373,0.04728664451334251,0.0021556684572679214,0.06965056427819276,0.018179901295143693,0.012158945266362714,0.016041737145702166,-0.02347453815148724,0.018262559745881705,0.0027792074620381557,0.09486698238144643,-0.023870547167420823,0.00041075240996485407,-0.004053022926664705,0.07108583197038346,0.006286324667848224,0.09900242601576117,0.020223588044229204,-0.007602994672668638,0.003463465991214131,0.048781790242439685,0.0254087268861853,0.06766193869698527,0.06351711479925558,0.016188555717169918,-0.003586906308424273,-0.06570355460768405,-0.0010618267304605008,-0.001935528254990727,-0.03523490941314114,-0.01802769957887496,0.011208166189456137,-0.024709211616282027,0.004868537176357801,-0.0323240133660484,0.08354599882665398,0.0023846432665043417,-0.05431526368138338,0.023833428253523754,0.0263036019142495,0.02283199183828324,-0.005564540301352012,-0.020889601326596605,-0.0011221377136531189,0.0013026280467049007,0.05135094949356929,0.01167527134378088,0.023509167187031485,-0.01046760277171142,-0.0064380815310077595,0.004717421214113547,0.032388483035244255,-0.00035148799795052944,-0.13139351240934585,0.002469555716119985,-0.005460504465271736,-0.01081294019969779,-0.005692728293874121,0.04113320867085779,0.07319074620549432,-0.00445102397221326,-0.004036290542752121,-0.015022368843173114,0.0007458272878362545,0.00018356225851248606,0.0017661553053511085,-0.013828875280167166,-0.016663128081427142,-0.015287467887972854,-0.01289678076553751,-0.02734873588838616,-0.07939203692761607,0.09829553613947081,0.03333627582576721
145.34129333496094,1.6482086181640625,0.034713121213139575,0.019957888508268316,-0.043059020089287706,0.14167021338097127,-0.2792419308110186,0.13482726325691188,-0.13385088090851238,-0.31817365192768376,-0.0015956040675045788,0.08898600059726454,0.0046037361147180135,-0.1567394099504192,0.008363785215453307,-0.26704970403709816,-0.1050682362833481,0.12431945320304347,-0.08999441951292023,-0.015705277661754086,0.05028940977004803,-0.09641135186457742,-0.02152232241465003,0.07042819889451138,-0.11523563569090473,-0.06798288161026003,0.030209018606697842,-0.10929334951799886,0.026242883968368436,0.0132540198536234,-0.014711917560995862,-0.016588903520569468,0.09327800343067603,0.010873096770866491,-0.0017344787999096793,0.03143543194415705,0.02755045120520189,-0.1069610570110121,-0.001656241748876755,-0.07307047074792968,0.0022085868120362844,0.0043901815927377555,-0.03931059647821215,-0.0019055857323747002,-0.1194749525074722,-0.05957053287450987,-0.07054706007779397,0.10079678910640552,0.0001490244994038973,0.02152366128051371,0.003039289700701648,0.059938705759792946,-0.04275971242495984,-0.05459687663957041,0.0005968191385829867,-0.0003653329209319397,-2.502467227124022e-05,0.00016061080603965814,-0.00014087615457928398,0.0027109011520419467,-0.005052621994349406,0.0734176822089699,0.0005781563910810289,0.08019223297061127,-0.012316271509857465,-0.00895098609453915,-0.001407574620455187,0.015699702823543504,0.004292186880300253,-0.008500902646547497,-0.0020341307451269912,-0.012548539856138834,0.10388559916142215,-0.00042774201310701076,-0.0018870595715664575,-0.012852907482484816,0.036546989933538526,-0.019857564982365922,-0.02383881772661887,0.0007719104384599987,0.004232287990861646,0.013956076481081258,-0.04232932609473145,-0.006244379577116366,0.036734524940568725,0.03198148620787857,-0.039610141995450085,-0.005490147342092196,0.00995869703667861,0.09412072225873785,-0.001366043076031271,0.06044432765395555,-0.014104565613764511,0.00444087373544264,-0.1389868512336829,0.2586858183304655,0.016532435661507888,0.0007354709953074695,0.03660391159417649,-0.09872151405043787,0.10749444958873984,0.29280810759207077
146.989501953125,2.1875,0.15381059517072018,-0.41020620832565596,-0.2519534031724679,-0.4649911944309818,0.20313593454816725,0.07300038228846024,-0.06816215284531968,0.03547918614273249,0.058377184072086,0.06014133018899228,0.016509079991412174,0.13438038935722818,0.7501572304365747,0.07367736530701624,0.12647624095922066,0.05452818464170531,0.017406087055408095,0.11092292535553144,-0.07128237467821735,-0.0035814373167698497,-0.00046329637152455903,0.042553193874148354,-0.012037455674545564,-0.07165078359399424,0.006837329473808673,0.13769571036843078,-0.0002571150343036861,-0.02588512691423524,0.017827667250373366,-0.030810467779565413,0.09972450242252202,-0.13347637603422993,-0.007816259690435461,0.0010276452666496184,0.0035680131938891613,0.061013989102259254,-0.025591144083746173,0.00490206066443372,0.0112184048051381,-0.002814486232750796,0.017267348559762426,0.020282883456564593,0.025684959152398587,-0.03408864583020405,-0.0064584731070920715,0.001077111841442405,-0.003713984740194292,0.0006956442571465885,0.017387110164743716,-0.002707434678963191,0.05675861486172058,0.0021329732485986376,-0.0040506260537727995,-0.012543228817036092,-0.10198671360772558,-0.015616301544338157,-0.009895464624858795,-0.034910461528516415,-0.0005029684195496199,0.15358826599316613,-0.00149057946053656,-0.05077345934175025,0.11401894200756148,0.0033328063961557577,-0.000811346201025612,0.0030441667411505065,0.07353211604424047,-0.04666837405795348,0.008856388141168455,7.533311601619488e-05,-0.00077698133402555,-0.009002977465041893,-0.002549987669693013,0.025578796637690384,-0.020717656942283315,-0.0630388972284309,0.009129220808552451,0.0276888864713683,0.06817005185879384,0.00882618154945322,0.0006721891983647423,0.0007835814653849421,-0.024666956074164012,-0.01890147112961805,-0.021337240588456947,-0.02111288681545116,0.00584475889383341,0.015541711837522202,-0.0031842628611954468,-0.12323231306584306,-0.031119759333376025,-0.046785626502459196,-0.06606813157088053,0.030094043235653546,-0.07361354601604327,-0.021309069497622866,-0.05703146851908404,-0.05762465072624492,0.21948576570289002,0.08901049102098921
153.40220642089844,1.7483978271484375,0.128232990351619,-0.05529437821529776,0.11614082690989345,-0.4211771453122239,0.4996459216841643,-0.09044094568684616,-0.013015084113869549,-0.145458499206847,-0.26700826589288973,0.0004604724412463346,-0.04247784270393577,0.02708455625409467,-0.0004070318911855589,0.30848394457089295,0.26184783661240374,-0.48932559132162134,0.11282105488289365,-0.06822846475799224,-0.22729221583834197,0.06149066053285971,0.14797319890570967,0.549555443514853,0.0017990434889312082,0.030894414714526974,-0.23773035316793,0.20674834096562514,0.07748615691092507,0.030680465969894606,-0.1784653727072041,-0.2503831497162242,0.005829302160472654,-0.030929783154463264,0.006329170140827669,-0.07165182942628173,0.007306936361495724,0.01246626362560701,0.031104596757489486,-0.1060942353316218,-0.034592913008177135,-0.011030290948441325,-0.0043439338980819815,-0.002988950607816482,-0.07377219082636408,-0.002004989081239981,-0.01726530358814097,0.09726437298338175,-0.06656607697017687,-0.2929608402980322,-0.09084683368882825,-0.007432158764555559,0.01902534329226331,-0.017421159826015324,-0.025467676791890864,0.000848957682083462,-0.01788060476227423,-0.026017803659598993,0.11410240868947193,-0.05498242639091508,-0.1895787585734775,0.05311304875874721,0.10285261711340563,-0.11764679134303302,0.0013279212210897395,-0.009504159878342818,-0.002895871505043139,-0.0193295984479008,0.08374573547786747,-0.01077839508486525,0.0012892798925396955,0.002240473512199724,-0.0281129857747325,0.014040846263475536,0.01571720514558296,0.004546290696200899,0.012190751469123327,-0.09884954818730331,0.009499177189042729,-0.0030474248643996265,0.0027432445071740234,-0.038906732988300906,-0.020751077928305144,-0.003386331491730255,0.04735291223703914,-0.03560466750697625,-0.004337902076124937,0.03729014522309476,3.4115360002695577e-05,0.025745012197555314,-0.03607295617743707,0.0014780627190709246,0.001545467077777309,0.005064558078502734,0.04554946931579974,-0.0469184119389324,-0.010107187956822678,0.33038027763103334,0.05632069666537215,-0.08273334544024913,0.01421483861579087,0.3116158208029379
