start,duration,0,1,2,3,4,5,6,7,8,9,10,11,12,13,14,15,16,17,18,19,20,21,22,23,24,25,26,27,28,29,30,31,32,33,34,35,36,37,38,39,40,41,42,43,44,45,46,47,48,49,50,51,52,53,54,55,56,57,58,59,60,61,62,63,64,65,66,67,68,69,70,71,72,73,74,75,76,77,78,79,80,81,82,83,84,85,86,87,88,89,90,91,92,93,94,95,96,97,98,99
141.8655548095703,1.0197906494140625,0.22426749103955365,-0.06695493769418259,0.4439290078812778,-0.0474713713592551,-0.20097743038537505,0.1803512204074823,-0.3223119324029996,-0.6154655031575927,0.5971820140886611,0.023213428084148082,-0.07867958199568939,0.0025435264028166008,0.08514506466079533,0.017765485000164796,0.0779337211777313,-0.014475034536983532,-0.021124292806076708,-0.07886767835826852,0.04983992236479361,0.045768311899168385,0.07202737827102,0.038990415161256856,-0.03848486272037789,-0.1630529723348092,0.0003121330056699602,0.19043771122970735,-0.09223523272685831,-0.036942815551667896,-0.06077454921435643,0.21279713351155682,0.1766827675065901,0.012988441470946962,0.20077949306930484,-0.08157503888335893,0.980039366331277,-1.5530719950456537,-0.7350637526811743,-0.26367447117724496,-1.1979345896874365,1.9352282798764098,-0.2900522613203213,-0.21686816291690542,0.7566960470146455,1.3260916621737837,-0.6577572970536371,-0.1909170334901883,0.061898175344094815,-1.0047349446255103,-0.1367541735668192,0.24838100720730893,-0.3544944311747293,0.310689854844016,-0.08795219396422119,0.048388644177825776,-0.02349684124279154,-0.08779208674758009,-0.019987988455953537,-0.03381181456437707,-0.009280611291120098,-0.07855424840162152,0.38202550788648704,0.20593645010468747,0.17150364643945293,0.1779956930826689,0.05571428135400466,-0.05059313426716436,-0.007915975349070185,-0.04694967887057129,0.18186054444711647,-0.05140781284601563,-0.15558999672727658,-0.1834173657787218,-0.13289438086631855,-0.036386218754398306,0.10822705325153834,0.020918042145673946,-0.05266405662483124,0.018273088032609207,-0.24797506877735462,-0.06647509868698023,0.128048344129499,-0.11627844709191887,-0.0798058202350084,0.0039933491300418915,0.21185375524927555,0.0740574861559888,-0.1254040686574278,0.13221911465941957,0.05506521368231441,0.08642111847121771,-0.07655319570331243,-0.10017989952293152,-0.217635775180328,-0.014978673760439612,-0.3315984147066189,-0.17544027336130366,-0.5804938768765447,-0.239983888372793,-0.07059059101710391,-0.2406950487440438
142.88534545898438,1.04010009765625,-0.2895995472559558,0.2251881077301659,0.5544331057246257,0.28474487617215183,-0.1845414073817661,-0.33029577629311346,0.09453923893097271,0.0884731932212805,-0.139706034668859,0.10523882319318975,0.1858111134744906,0.4728652505683719,-0.06317387027883928,-0.050686129171183134,0.0044304727508041545,0.028723989952627992,0.01540236067379648,-0.1263188337011986,-0.1376926958467369,-0.0007298195293760541,-0.04965798026829558,0.07102844250932618,-0.444102782663754,-0.24316199712529984,-0.1457249215656917,-0.04965577198867218,-0.12637818401318604,-0.1205742004351197,-0.01835518112627886,0.07168442739384975,0.3352547860091105,0.36168285141926654,0.3947630832507759,-0.1516154701147493,0.2556555687029685,-0.6596725408027895,-0.18614599170561363,-0.5712438046887891,-0.5285079739671322,-0.026655566118373192,-0.5370925520862022,-0.561679873267177,0.13787225480839424,0.2593341762287437,-0.2566232514154207,-0.0914861050240203,0.09444990408158965,0.006628882485354596,-0.24714780964116628,0.32140176056271774,0.10019776013434006,-0.06681378916831816,0.012847472728256223,-0.02631174866900505,-0.04689361914745847,0.014756491651524026,0.014161824849468523,0.017484431257785038,0.011022579933961116,0.04647378387807134,0.0760796504902549,0.005898155883343567,-0.10718068149194504,0.022342698401653878,-0.2019484483156218,0.1682022270763111,-0.14650173953154544,0.12272234189664655,0.26152753372448806,-0.17834527723871213,-0.140757443647433,-0.06418832688319029,-0.09665303400785394,-0.07273192661492592,0.17839969752532323,0.09385754550944073,0.25202574635214414,-0.12211699542041975,-0.09325613651914866,-0.03337414280946631,0.042222664127075045,-0.1416750969867904,-0.06131707455209394,0.0213378854259613,-0.06767114601278237,0.0974659968786992,-0.13973528451545808,-0.12841749783856,-0.030230136800143186,-0.15462078059336593,-0.002088384729024491,0.026323178990248476,0.09766481627945382,0.07955716651328877,0.1872355544440943,-0.1587415831180433,-0.1791125864289681,-0.0172454533963637,0.012642016677329136,-0.4673413470931884
143.92544555664062,1.0897979736328125,-0.5172218748119887,-0.20473115317210416,0.4701797830077169,0.3376691477104368,-0.08006794287614824,-0.7269857414717866,-0.16642961148657887,0.388007456425471,0.4334741362923714,0.04698912424998461,-0.1296697552099299,0.014081411177050418,-0.04899780834755785,-0.07838327924015584,-0.02676275646670554,-0.12622979579170587,-0.05853076635555355,-0.05882578790083543,-0.02955517782651898,0.02749822622085444,-0.09394124754252417,-0.0701607894327396,0.28758396936456015,-0.47218998046510846,0.01199735854757935,-0.09690618663125679,-0.11270224476431118,0.1381088399103464,0.02052562412619939,5.6040243221357265e-05,-0.49878145637226085,-0.10048878101675261,-0.04506724479333409,-1.0152535165823813,0.2562104536715648,0.002374658710844993,-0.4544620339801344,-0.11807321930555298,0.39482241729125656,-0.4825677603191221,0.35896237558680877,0.14256507870636603,0.4668862151191311,-0.3446716572958488,-0.11919756629699535,-0.2191279362398764,-0.1601403105298544,-0.32672912764680234,0.06843253187961731,0.10332999702807656,-0.7324479961748944,-0.011435640667110988,0.09994807079702622,-0.23198349395334433,0.1999506916483633,-0.18137106684663395,0.04911576405139879,-0.25809961408682347,-0.1254563036512854,-0.0037601844135260604,0.03331533524846156,0.2173786704417474,-0.2712901341230588,0.045830456801540326,0.4959676351843636,-0.13751721876585235,0.14135842072134505,-0.11488360643118892,-0.420497551643855,0.17566026036034021,0.2663307583620272,0.1815106882380219,0.12095977007561168,-0.2116636754412403,-0.398652729964055,0.06400407274172322,0.010984352381134044,0.15825734355556406,0.3382497752384008,-0.06383326054903982,-0.04939297754331131,-0.13843321645625686,-0.027155914984608443,0.0052232929607310685,-0.05637415117910992,0.2137411338869149,-0.14264438629654203,-0.19529334300230283,0.10188503788320875,-0.05765135150750606,-0.05654491700579792,0.28875964636190354,0.05940171908760738,0.08509854215507569,0.000331338126135002,-0.08744281177545266,-0.04498025603339076,0.07136582711177174,0.21180341293097707,-0.43782877263892994
148.4945526123047,1.049896240234375,0.16285132764026722,0.4234199746371702,-0.036330524278213594,0.05793933290356737,-0.2630961276866351,0.2956414592005817,0.5045839280937623,-0.25461883729306517,0.4272089297721556,0.023247999366914185,-0.07853393522231729,-0.05010977913033804,0.006902276918371517,0.09810151380931946,-0.005955318771932719,0.033395363642245164,0.029979154786400085,-0.04208763768048045,-0.04878200280652064,-0.03261506413379767,0.034957179938013776,-0.022348104644793698,-0.035533168009612696,-0.0798117802408413,-0.06428683484799329,0.010184624819233462,0.05384617232422449,0.023291176243664988,0.05754884382019586,-0.3066685749529529,0.0747794794117155,-0.4600070244121877,-0.06375450690958616,0.23452600794999012,-0.09593317517016078,-0.26231984865488045,-0.01827609055882536,0.02606655046673847,-0.20251662539876022,0.034716002985175166,-0.13733594780431851,-0.6017976083079021,0.08091541461051183,-0.02848425166945118,-0.5496435797547193,-0.19229001190571543,0.31715723969264714,-0.3852629059643371,0.5216130790642816,0.6223198742392821,0.13432671652445186,-0.4566657403039091,0.003580251311056923,0.11085029626082292,0.03337942183245078,0.06537386430392758,-0.016285320455971936,0.06037084550249065,0.025176732601192985,-0.09792062454256335,-0.2993695722473658,-0.1419285304923622,-0.013196489076631398,0.036317075546215105,-0.1275497328522843,0.07681523128626065,0.1889819168371856,0.35887987068705246,-0.15331228778333433,-0.16929045907517537,-0.05112082066610438,-0.16832691415340453,-0.10610703874394264,0.049233555091813756,-0.19684882518941255,-0.004289832442616107,-0.09904944205324637,-0.1618481488677537,-0.034442437212606765,0.11146650343262188,-0.21864886834773564,0.05254835817957831,-0.0496047230957315,-0.0008238927217462436,-0.0635312820234087,-0.1283534457767,-0.04688005039241299,-0.002388568116932943,0.24000927723766352,0.09206684312471741,0.12379816419773801,-0.29531105801176843,-0.12352173992853231,0.005110748364274499,-0.03261547226122562,0.4585912941315873,-0.20492191359405576,-0.01967314592199479,-0.04332122337469678,0.028927092928458076
149.54444885253906,1.0991973876953125,0.030708354253269732,-0.10862060470690338,-0.19125437867710773,0.03613723533700223,-0.0487307034466969,-0.11700512466274948,0.06772371844611486,0.21954162476246047,0.03650075796236653,0.045728409586515195,0.005172829333288539,-0.05058527056117742,-0.03875714760520522,-0.08866754968139165,-0.08144719706983589,0.060230138336544184,-0.05720916527016679,0.09112848887142766,0.009425599286442333,0.11817356914342496,0.10974953001791135,0.052456706815134556,0.0696089019668486,0.06788744626128912,-0.04199879571009063,0.0674304166767814,0.0649938769436634,-0.030192440867385626,0.05490220433561824,0.03962053138387822,-0.06628517879302198,0.22336966586638987,0.000711947249268659,0.11210400054493974,0.1082039886334622,0.07057678589449694,0.015720897732317666,-0.6582536682788777,0.11223946452246643,-0.12045633266816043,0.09441943335163554,0.11502555105784205,-0.006763825733128545,-0.00250364085764776,-0.5656435686243058,0.026045750639584545,0.013092575288905568,0.3395930114259773,0.0523927437171748,0.14514555682534708,-0.1171895349372472,0.4637403968707466,-0.006801319433623382,-0.0534713398111914,-0.02154899679708929,-0.034646543889006655,0.004307333813377904,-0.03289579484798352,-0.12127320623665969,0.30935693468402337,-0.03097022305149185,-0.16300625283312026,0.38567767400727876,-0.10443289094416615,0.008055423090696939,0.09025708464661548,0.2577975716666755,0.055488059308974075,-0.09971144407176039,-0.13358393409093886,-0.36324184221104233,0.09092332929999376,-0.06795638386396571,-0.22301364872739107,-0.0748346297657281,0.2798851233574643,-0.07356266648086598,0.03300040215211089,0.012735583677622633,-0.12734372412113948,-0.040965419882941015,-0.040120786946114546,-0.026139370974587302,-0.01564468173007967,-0.022412521178188607,0.04979894368048426,-0.047259623814976254,0.07295494843872813,-0.013629558418209451,-0.03977510358642357,0.20518975238407186,-0.09546298459940358,-0.07550225741725311,-0.03017202648515279,-0.026845455911941006,0.24438281854103663,-0.019589504402599496,0.07235878485876011,0.023736540727099204,0.03925197032337326
150.64364624023438,1.1300048828125,0.16697483092112878,-0.09968492326799605,0.4743017593943237,0.05156081877750737,0.20684287292477674,-0.10069284183213144,0.09112917419833631,-0.008181408144080226,-0.03184450144364278,0.08081982122205336,0.07693917536063577,-0.07272615067808509,0.010935786665660845,-0.02340977403014023,0.026360433129131534,0.08360204757396797,0.016338850341984783,0.07303980355879709,0.01661761297923178,-0.046837487412338535,0.16473872148631627,-0.11413596977477544,-0.08079547974066817,0.3670587327298481,0.05121667972250693,0.0004934458675443535,0.07741702150383269,0.03243855924147062,0.29940453233875847,-0.1140047709077158,-0.25050593494751927,0.011992239487385647,0.09758978349114002,-0.803425975447271,-0.27181695388146326,0.11991045818092377,-0.16536347133820228,0.7397356635876329,0.09963596365459801,-0.2983711301188833,-0.15207818899017364,0.4048228101057847,-0.20311457684982276,0.1327864327500881,0.22460599543867,-0.2072415804343462,-0.8474214000778486,-0.16147221610381005,0.6369757963393721,-0.003671280259493759,-0.305068670897098,-0.12918073318426213,0.13142768852719988,-0.12255701226146723,-0.013092505014049906,-0.027126394035657544,-0.004391551588069252,0.02955814604372653,0.013190399839804766,-0.06293451504234529,0.030853747423146467,-0.07148112867318744,-0.19085048522273307,0.01004729152409917,0.07930448889320786,0.10165267001010718,0.003099289785156194,0.05256485983306247,-0.16837657089528418,-0.1788006063081663,-0.032119665454946246,0.02957623229839453,-0.04088795178837587,0.05840875268735869,0.06862788349506312,-0.07512411519514522,-0.25526342369081295,0.01887289282723068,0.011060031966951975,0.12755741131913656,-0.04559092054560724,-0.050059064317897965,0.02393862199138024,0.0011560180655550978,-0.05657182479054133,-0.13813837117948496,-0.04179407218842449,-0.06305455456715812,0.22533887942708697,-0.06775624375777584,-0.09620380958386332,-0.07255495308698469,0.08130306917658076,0.10813754326140786,-0.08232518511402276,-0.07486589141646058,-0.12259171411363745,0.08571455261574773,-0.14994683145623802,-0.13952869590311423
151.77365112304688,1.400299072265625,-0.1328338244865926,0.8691159024057806,0.6550209561985146,0.2649355709293898,0.3652689703929585,-0.27993989622133963,-0.28786215034035006,-0.2927345572540207,-0.19428542113413116,0.09826416482455864,-0.14780461706532882,-0.13270070047832708,0.7118681557719662,-0.02032926183904901,0.008400150756933303,0.027870637513073233,-0.00878913855792313,-0.10474137907760252,0.004856542759188131,0.060763562338702705,-0.0895347401008076,-0.023932484755625705,0.02420421120342581,-0.03853709411123834,-0.7321227555740427,0.36881998641322467,0.03705405061733571,0.17893406876427503,0.0422989881578011,-0.22540158812609565,-0.37213649806711263,0.13327788968037474,-0.041454325515075274,-0.1720291739528988,0.09134272639227353,0.18339219582948454,0.09815166607550359,-0.0631706453419476,0.3527835167053594,0.2944090035981517,-0.1859859268593906,-0.48428000201276766,0.4597563720182505,-0.054017600883671926,0.22010828808733202,-0.5362238690831044,-0.001554899811642363,-0.33295665588394835,-0.4768607959590381,0.01011779431530542,-0.9144143534153357,-0.25810685455950766,0.06971881063318647,-0.05589879064130312,0.0029338255488540904,0.19507298903660594,0.1405324397660546,0.05669969565441411,0.17166190136060108,0.2467287577699626,-0.002250599538616509,-0.19391130230197462,0.01583825728208127,-0.004209042775213889,0.007643186294711246,0.1977249966435942,0.12344498628622522,-0.17983977927047215,-0.2960658904338588,0.0955394491169686,0.14945822466879177,-0.1903428283118982,-0.13244934357010602,-0.16737096579440472,-0.3423450178941231,-0.05179592575428908,0.22567277722291376,-0.04637130411651494,-0.23829144831904148,0.21287952314185177,-0.28026029375777756,-0.013142374612990539,0.1538760461305688,0.01792013035394445,0.13071638975579492,0.011270653468679436,-0.011901847664478108,-0.1619156909180051,0.04183332392034562,-0.009841943037858882,-0.004557809396486178,0.21946720562359684,-0.04527139819715968,0.2365030790671936,0.06375428411856107,0.29385303503170085,0.35588910231457066,-0.2577641884349887,0.3042213656203228,0.04495771398309871
153.1739501953125,1.0796966552734375,0.06278774646524006,0.4676299814551378,-0.14839614486757818,0.11935766682805987,-0.4632864524589031,0.17993915952293202,-0.8268355416386062,-0.154293771037787,-0.016169550518684475,-0.0013981604931742747,-0.05650228225430764,-0.02862508907247366,-0.0077394783006782125,-0.6890648083580785,-0.004939225573344161,0.0032716936655605247,-0.0376916127823385,0.045992368004060744,0.20031960565752563,-0.018993630794213075,-0.13864964283582049,0.04565540233180881,0.067193815291599,0.05065120819027614,0.06519883457847045,0.29052168642300424,-0.01923003335382855,-0.019207616213788043,0.22203035935215576,0.04448151883301969,0.31955787609171943,0.3199624590946143,0.15847287657772394,0.1344524082208794,0.1794060318004173,-0.07693297086560326,0.007246924919267123,0.1618150712320366,-0.0704836112719417,-0.4825685115386552,-0.12462177679701537,0.0674088137524167,-0.03765476333891938,-0.12349267226371004,-0.2964290818904429,0.1316219229017828,-0.3318066276724686,-0.6077998499191474,0.1436388007172384,-0.017813591369086224,0.3762273886397724,-0.2415068562912562,-0.9817306980978502,0.05593227967529628,-0.22132154104715387,-0.15528559404127307,0.9966052515726721,0.24545592607627362,0.029316643852704043,0.044848206619924204,-0.06204332637141252,0.06874866893492017,0.010699120984331253,0.063275623460424,0.15071321450515654,0.0028187724179684903,-0.00390783251215693,-0.13834441876747802,3.9143911180955504e-05,0.03948782691953884,0.08070231656926335,0.12129161995303152,0.018462198341179265,0.1505489546507531,-0.005197911163804956,0.018923929050180845,-0.014820683118293035,-0.02376871491438073,-0.0819673984529533,-0.2483336881914185,0.07541489910232924,-0.019080921792961926,-0.25939157369827065,-0.1203143246167394,-0.10397192427801091,0.21727752624495314,0.006022462115409979,-0.019808011659009972,-0.01748058153473882,-0.004403074813623168,0.2662578157205092,-0.18850689912492385,-0.30675564390867616,-0.1434432320141465,0.1099785355329582,-0.09524525568332139,-0.5109077150591445,-0.13818840558845294,-0.10103356909115715,-0.02281394803797815
154.25364685058594,1.0699005126953125,0.12058332672007785,0.6641491457559026,0.6156121639315962,-0.3007974912470555,0.6880692431566439,0.4056632970101641,0.004576649869592969,0.6537351707014726,-0.07845520901348997,-0.10352309820393293,0.04731487257994488,0.10427478118804683,0.7803907148111835,-0.19886548448090163,0.14178647936816216,-0.14157608597939372,0.15358652749147592,0.029310494535586623,0.10679819832196642,0.012954872427822646,-0.10305643288635188,-0.0906638158791229,0.06036595245988312,0.03199642746748842,-0.046264865607796093,0.008716833819522032,0.023723316630410884,-0.0323247378067378,-0.006181644062855615,0.09299666860232429,-0.06381170903968923,0.23394605554294629,0.30614191863756635,0.032081636079486296,-0.4037961276494151,0.22470541488632093,-1.056498913159462,-0.717985529468204,0.1640099257759148,-0.8939553504487314,0.022725633403714814,-0.22530023398898358,0.5513205678745369,0.2835533175405341,0.45223924597086046,0.3854619216304562,0.7643679215649755,-1.1275727823982489,1.1971356173756398,0.930564155909917,0.020482592825654206,0.3345827714676064,0.057231620749095644,-0.4537517875689533,0.22234513115765145,-0.24212415174441754,0.07819563263301964,0.0644302761191305,-0.21886281291780407,0.04656310421262552,0.05042299743811564,-0.011589363893498428,-0.2307612892784214,-0.000929814889571565,0.37081364404849515,0.6048346514759273,0.22461947105299196,0.005853016864356549,0.0876623712014035,0.004545756091210196,-0.2122456790345539,0.13376236911336947,0.41185858540699266,-0.0021012005115243117,0.11218912094422653,0.09031873710428522,0.2763643760926864,0.03240892124443902,-0.11560463644102796,0.4276888176092626,0.027236740624318127,-0.015350069737703913,0.13610102103640825,0.0645908919331,-0.0738592976059211,0.10149974426072035,0.1523174919387427,0.2790887535179875,-0.15721738782107886,-0.13710972970273444,0.09793091815922539,-0.2994724674048483,0.005202360119192435,0.08158984139338646,0.10396487537083846,0.15364881201152378,0.24990687759138863,-0.08061764628142722,0.11336713026042082,0.1861144161992492
155.32354736328125,1.049896240234375,0.2102257631569594,0.0518865244387127,0.044790263880661665,-0.24137147639103526,-0.8193198248220668,-0.3865241845523511,0.06483167547990228,0.32955967476043874,0.26326035395816605,0.1950832418111996,0.019527455925458487,0.01995301338771356,0.14268152192004274,0.12309964836650199,-0.023570191150317627,0.021494106035856896,0.022006936173649433,-0.017408133108497172,-0.20248409114050947,0.020061421564550506,0.05802552222251493,-0.11462185532555823,-0.04468429856888901,0.05091354648392061,0.00189662682084701,0.06710686273798142,-0.0556415838098223,-0.03783172719602006,0.18875443542653805,-0.06030568045034029,-0.04623399602496461,0.16496961398331117,-0.19627163882882048,-0.1665793473286638,-0.03412683123561109,0.21935496281880032,0.43745871248791995,-0.4238660077361519,-0.17031509543496218,0.45086214989845463,0.21377917641145688,-0.31583832807998313,-0.9685796376975431,-0.3547083979810553,-0.06188600955824251,0.46752660406384994,0.19520091040071677,-1.3526349628135161,-0.37601693483931486,-0.7073074629461847,0.23913286111564647,-0.06998906271657418,-0.12232106108176044,-0.049344001734601045,0.0780859836252123,0.03682477735819447,-0.00959492812758159,0.031705087497117916,-0.06216402643156391,0.1404323880840914,0.26021681141239855,0.020822658887525873,0.10621903534172839,0.09130670046802948,-0.06563155192290077,-0.027321836156508156,-0.2527421847453928,-0.011795909018886816,-0.18032697568273048,-0.784038935009457,-0.3172851396065073,0.0929661056291574,0.017368506746103074,0.025037337633635498,0.06662142390212336,-0.08292395501376063,-0.0005159798320334558,-0.16552584498547646,0.22807384862411273,0.16687249158848316,-0.020350974800449263,-0.1089283292939554,0.05658841475645321,-0.046198956047501946,0.011485553086961187,0.02368517300279156,0.06451625232462849,-0.030046650459829044,-0.05802704888890641,0.12194990736756924,0.265084607133277,-0.21128086913747754,0.0018966425186357173,0.0526277222357841,0.1702428096437877,0.02569733935448505,0.08327400816574587,-0.186551100537437,0.03965439211786478,0.11011557738025202
156.37344360351562,1.0597991943359375,0.07507621451515706,-0.39716628465568987,0.01954610007256976,-0.45449985843917023,-0.0061802041707072625,0.1719161891553036,-0.1624182579485997,0.042702810738183904,0.025207423762631305,-0.023686467137456278,-0.040363689936017716,-0.029942551460634216,-0.0429601684280996,0.02632676975605725,-0.033748473726623485,0.036693662423602016,0.13956222677186533,-0.004174306444858086,-0.024315120380317606,-0.07485294568892627,-0.00518461625848404,-0.0689927756962049,-0.0321868737311656,-0.2139734504557706,-0.14059466527421388,0.44650733991496055,0.5841559593841821,-0.04055873453635135,-0.053733910363920966,0.1792090427596842,0.3012510051322671,0.6087464728307003,-0.0019001240340024983,0.1642974859803321,0.07757177737039699,0.21564278672342685,-0.32665878660549563,-0.3058296955935583,0.2060428964585474,-0.4447226561798966,-1.061685706392143,-0.5812270902752721,0.6033757953627166,0.9038830762363044,0.6952630228033694,-0.5371527154327239,-0.30778511417048693,-0.28846763091042715,-0.15422142784551468,-0.3230515562959705,0.05948812891116959,0.015878440170683836,-0.02152566183670002,-0.06446835374179101,0.01835152779058764,-0.1454793031693418,-0.06278105910947776,-0.05727322440018428,-0.2894318567141446,0.043954910406652184,-0.07041573704868687,0.2883330077539415,0.03763001791377342,0.002070226884358848,0.06830694430562717,-0.13501347871645042,0.3096951141556434,-0.12246065108476349,-0.000840684918741676,0.2528550899768429,-0.10059202369511151,-0.009366757580016356,-0.19222265187855198,-0.012930086139159809,0.0002406198841128917,-0.01842918667068623,-0.1080880523917235,-0.02443799757101079,-0.22161092524337164,-0.1285982313131618,0.055958091299433146,-0.04645140579016108,-0.1266076592573754,-0.1721009500200076,0.05818240178009515,0.09852344615945341,-0.08762279559734992,-0.05995697459073263,0.0412646960022042,0.19257110696021706,0.11328443131260389,0.29313028330918595,0.014830372736128854,0.06895381603936371,-0.03219638580693152,0.09935835548395111,-0.1668259298535938,0.0600667337536307,-0.3820904367961248,-0.3646626087262346
157.43324279785156,1.0893096923828125,-0.37057815295029356,0.07071663529725068,0.2611703382441788,-0.5614189946643332,-0.35690062579466314,0.8491709035574956,0.14788860844771357,0.11535835994427773,-0.17990505316423777,0.012229592542168467,-0.24067405025208335,0.13130890404632825,0.07857014927788022,-0.4704902738819042,-0.12106585110384653,-0.13012824028942543,-0.05966018118079098,-0.06320151868547494,-0.10463996279837641,0.3378447137574103,0.06891008008916193,-0.05358741421378703,-0.023457249424475145,0.03803540316288583,-0.10348520952722291,0.04737185948665079,-0.15486741605923487,-0.2491083851900054,0.04147055287686084,-0.8121999754755547,-0.07607421205329869,0.2957312342284841,0.07983318461685275,-0.13396413384117883,0.04205191245273677,0.500569859036506,-0.6298001590721484,-0.17781005416444157,0.2982672744852879,0.456607888482521,0.03361322011976771,0.41974190815774054,1.0767707620399274,-0.03896249241995411,-0.32973478720802873,0.019067489619263186,1.0256901436354444,0.12649090751977005,-0.12160687918903579,0.5460116036447661,0.05593192786013419,-0.0244721694978946,0.026541967830807825,0.004285995579548377,-0.0052173597396712075,-0.03170275094806148,0.03322958850021947,-0.021195957383555286,-0.009116080798222695,-0.2579853299235741,0.1444545798641787,0.2862465963363627,-0.28269613856164416,-0.47444522048535215,-0.24778642958078576,0.3597682617339443,-0.02924335276709113,0.1852219055655108,0.19797846879058223,0.07231335649869347,-0.3995769429025663,-0.03171022161171154,-0.027128214304209978,-0.09203046039262633,-0.19921732070011539,-0.02269928416691052,-0.031801950157835754,0.04544350186707895,0.22807876792713186,0.08532873495521386,0.0030120066825691898,-0.05364157975617695,-0.013783490306367021,-0.002504008623950561,-0.18760216861708198,-0.08568781107488094,0.2752568465701416,0.26299717769994885,0.1657175786778042,0.0728635144963706,-0.0637199280957062,0.10773194373181048,0.22580764004194825,-0.06358337785590547,-0.050412096056433695,0.1204799958554258,-0.013127474794147066,0.01735381369848219,-0.002559219462145601,0.09438984589458409
162.25245666503906,1.079498291015625,-0.030399593119037033,-0.5719772049486451,0.3467276485772966,-0.13411423196781405,-0.9256892293532658,-0.07162623326978275,-0.3548983815791644,-0.12190888557076562,-0.024727390902574132,-0.026861780446246233,0.09883384876948247,-0.12104400303441883,0.024482492723542203,0.020216785080037603,-0.02152945519971139,0.021793266848696577,0.1138530560145887,-0.1620376404376076,0.011627136756408607,0.028919263468473747,-0.04037649337179923,-0.013781800364826456,-0.030506862968387817,0.020858989448607024,0.00014597563490129084,-0.044626609126287034,-0.16774231518814864,-0.07157594593367288,0.09631322001888945,-0.0448462013546708,-0.08551036617613686,0.20421508645622632,0.6433586850045971,-0.07959225463702163,-0.20301077072449547,0.07854065260593181,0.5039893181785802,-0.02621279925292164,0.8046395321722843,-0.213111270533151,0.20192942990235407,0.8800416952014627,-0.5823174858748293,0.42118665102958935,0.7186992228227622,-0.4238541408608026,0.19388013554682035,-0.1896527347980804,-0.34067177041360897,-0.7024490609273464,-0.14971739458663819,0.07055218676395715,-0.032641146645616945,-0.013443415749537915,-0.011122993309666488,0.011154055698159245,0.05118289091733938,0.054638131105114715,-0.0035674093844156604,-0.00032860307761609694,0.008984026053428443,0.14419129994345586,-0.3219879267250935,0.007383035677320904,-0.008003463337644358,-0.017065650815443062,0.05943497301883289,0.016013973271466166,-0.06223993690532277,-0.1148394684824951,-0.04490066671653993,0.36768726901649645,0.031646477827393424,0.046556429942318164,-0.059866419079885186,0.0030231486242414257,-0.12004056200062121,0.10281969199281102,0.0441351340642618,0.019500854437396478,0.050619160660526595,0.0862573589907677,0.1486696754477023,0.0892472187272143,-0.1444076517469748,0.04672788375684363,-0.12605825760488235,-0.07228453146059068,-0.12169410114559542,0.035827911428968795,-0.009892925242462878,-0.045645900101344,0.25354432081826744,0.06400750751214146,0.09460102658370603,-0.081895348817121,0.22373879549061398,0.053686441149607515,-0.1523774820110098,0.7276442497405538
163.3319549560547,1.0802001953125,0.5851116839232293,-0.06610766030880286,-0.0968651467952766,0.027321475931399206,-0.9241115891429088,0.11398036105430918,-0.012331223196254334,1.0049113659858968,0.15105763259138189,0.028857193455122186,-0.07079799932786848,-0.34050465576056965,-0.08953677791303499,0.14696294750759098,-0.05929145729267929,-0.05523122757200481,0.030776312961016343,0.007549792513801141,-0.01242780406258398,0.04168223484169235,-0.050733785672131625,0.016073298491025463,0.030621382065557007,0.059821910390054044,-0.032100971967043965,0.07180850741655062,0.06560756237454925,-0.08579765226818944,0.2065175977651398,-0.006196274611972877,-0.11594488467885392,-0.15801422401645113,-0.42029636276579774,-0.047062908885935464,0.09009188711405762,0.4819120184363157,0.33429348685895643,-0.04125236995174495,0.07569919723857259,-0.5591988575390621,-0.5697200827960022,0.028894778017261327,0.30795472096457926,0.13274766024656842,0.14508287095591024,0.3126252859068327,-0.062037464465804854,-0.2969523155599002,0.14122092522324675,-0.02422497873486841,-0.03475299156633694,-0.4516003960082541,-0.09490442678971817,-0.015549045323671115,0.08313344140222285,-0.0819333515598032,0.08006144415342428,-0.010628576532652699,0.006969039428067867,-0.04806601241570802,0.09795858449174934,-0.15033461238080909,-0.19836030966703702,0.08351467012817812,0.18544183357708444,-0.17355424014980445,-0.15463064259463863,-0.09053409024221175,0.04883679429142646,0.46771720290480473,0.07661509229754593,-0.2020758632013857,0.2726196812606965,-0.12257152765225546,0.02014316795751144,0.07369587887679158,-0.33893350729054444,0.0611566585358229,0.053650498305278856,0.034050832234096384,0.011533159173284638,-0.049305048803496426,-0.1045512566413761,0.08827079675682849,-0.06691607826309381,-0.12773199421388903,0.14347671209156163,0.09483236332565684,-0.05274611140422276,-0.11885770954425351,-0.034787031207515286,-0.09474168339025976,-0.062055001277561264,0.07428243349264341,-0.1173210575453069,0.10907044775853916,0.10666624742644118,-0.04288447501379697,0.11290197123046672,-0.21700399548853716
164.4121551513672,1.16949462890625,-0.24827744145665334,0.05617275155213858,0.0040809235460684545,-0.04113964508627588,-0.1704345997302114,0.34134176213093803,-0.5370612625259936,-0.06247066510156217,-0.19022330160609704,-0.08145717204995996,-0.00020274182074478397,-0.185643263898842,-0.03170092287451908,0.1050022837439765,-0.12253459993623032,-0.03969609934264322,-0.03241881097031122,-0.0029879287230890703,0.034743303526729906,0.07759932360987132,-0.039348875732240184,-0.07981825793228552,0.09600911637751719,0.04639458830542917,-0.13675845914692522,0.2780246734443901,0.13624470055488888,0.01720241211778355,-0.04590917964176867,-0.4198899318759692,-0.43513126215898956,0.16765938860142549,-0.01575538551033688,0.5345215969014308,1.4426287857310574,-0.08659314848052199,-0.23499206531667913,0.704060889988865,0.3842830118901663,0.31579167545772147,0.21640456795536483,-0.44711007367028266,-1.1967989417009763,0.34618783912037565,-0.03878844220958952,0.12101703997588065,-0.19321130290394753,0.6937857527075744,0.05613240582310666,0.16995458349578715,-0.006244856117282795,-0.11893387878408365,-0.28294197164388757,0.017581279650395458,0.08447748005782393,0.17780522750466982,0.08992228916196507,0.028855337834133007,0.013549413221102539,-0.01553178812940123,-0.004724030286143821,-0.23669357709173378,0.2663637234491767,-0.06258837974035265,-0.3200046445293581,-0.22014696767635075,0.04802973369164322,-0.3766155795163967,-0.3308454954852828,0.35551952744658344,-0.12217237618662598,-0.02345713432655766,0.029239567960264043,-0.031047185690245786,-0.20502313231965702,-0.13796511132823264,-0.04863247177349609,-0.017323976995139403,-0.11713787637315992,0.023690249673449418,-0.029847607227132096,0.12104204095452004,0.2295547739298681,-0.01320366499474543,0.11576238807253086,-0.09781286544400433,-0.0818420753684362,-0.13560545708540603,-0.17357676037628147,-0.06949826781891183,0.07067364858683688,0.000572071974673643,-0.00011721127248260493,0.18669967813031257,-0.12428334120221543,0.22129679936346575,-0.10389820287934937,-0.22866579058605538,0.6450200551104777,0.08843131488615551
169.32135009765625,1.0699005126953125,0.09420450027372917,-0.004242624273820612,-0.1327953716825803,0.11223717986146368,-0.2811303351607014,0.15686771632032673,-0.18691726069567,-0.3801413625762627,-0.07307248152192823,-0.0028549472495592253,-0.01827113149694918,0.12433120345882152,0.271714828013236,-0.049440421264734816,-0.06561053337026836,-0.13267380608909596,0.04336003833067959,0.2549849931608006,0.029683918825324326,0.04196418250079096,0.06203561794816225,-0.031317723661045446,0.057282034809647525,-0.04960162439843322,-0.12691567663023468,0.06620893132109117,-0.07551670465888662,-0.027644594431579333,-0.03308374487550432,0.013807487550245115,0.02780918959450225,0.009169024289809627,0.08988552941351216,-0.015603882237352608,-0.020871891629613254,-0.009231751059845715,-0.08369045337536764,0.1552105943761263,-0.22438327341179357,0.3118791868581999,-0.30775912624660795,-0.13055101948800735,-0.8662548613803412,-0.5278145264744142,0.2680172632212266,0.2722250558209074,0.15344255376936383,0.5435993595855643,-0.36289465662747666,0.3060235234320781,-0.43429535492948174,-0.07391046186647615,0.0593525127953926,0.004958095591956008,0.2628684867388395,-0.03481110010734015,0.12588452526891494,-0.03090222147532873,0.07382556332740128,-0.07256608710250842,0.09547517807621894,-0.2450552455190414,-0.2197637138088448,0.03055594857721746,-0.16708339761094682,0.22978488773232508,-0.26774364951404805,-0.05603813030498468,-0.0782759879685515,0.005551817912851658,0.08358387395141284,-0.3195683926331611,0.10899999086496481,-0.1522528039036656,-0.15400189115626306,0.05315919003122063,0.26594475134625395,0.019915476978941,-0.0958176238510376,0.08257885767816313,0.02408487725681708,-0.029905292581494186,0.012518940954131724,0.07464604741388917,0.02465638863250952,-0.1062530143341724,-0.06684288730872089,0.1216098280751053,-0.1618166378837123,-0.024562184544812734,0.14680888991285163,0.15367668349728592,0.08032715771090164,-0.23329922437379508,-0.19114792078092885,-0.17930784158992844,-0.09875319874984698,0.01061805252387375,0.08954460020974395,-0.18776821670502505
170.39125061035156,1.10980224609375,-0.18711920726465292,0.16860966851865156,-0.09890467535974058,-0.4104935279781148,0.16086883758707737,0.518834731688025,-0.1945023476625766,0.3272285807448137,0.3411665304175537,-0.07430810627545653,0.013519936385261583,0.0025400502507176813,-0.036665330706209726,0.009770099480333833,-0.029416569085295476,0.03741686430357258,-0.056364486616555375,-0.05780083433336855,0.21052488316169793,-0.16667700166734978,-0.08595201843373206,-0.005052551647848555,-0.07954099477455974,0.06742764165963755,-0.09234394994157341,0.05568997142182255,0.08152362012046668,-0.03524134696967337,-0.008453155742452811,0.0015002076883514018,-0.1410324608686149,0.18649455909616905,-0.021243370397289796,0.005606882773224804,0.2641955626016151,-0.31816426964077915,-0.1635759140589182,-0.017758073537638933,-0.14413882762137914,0.11885115450320288,0.3966113054874142,0.18199516178875963,0.9130179265542939,-0.016738373698679504,0.03886922266737702,-0.15316298261886266,0.4650351829971273,-0.4113873877532516,0.06463974452387575,-0.06311604310712762,-0.23583225870528415,-0.5109813443274838,0.03530723559087307,0.017183825066534222,0.022242014560210573,0.16342935839585257,-0.35084641199599476,-0.1564032318154214,0.19761749215778504,0.098005956723214,-0.023476761372521127,-0.1641700363968664,-0.041069782554665854,-0.08289857572841956,-0.1569536101402481,0.031096385580362203,-0.0636976811982817,-0.17387905233808412,0.07607268676604785,-0.02566517595383766,0.04326045381850069,-0.058705653366316786,0.09855909659517315,0.41720480855621567,0.060332434604642285,0.0014873331535057849,0.2844152356768386,0.25055133201717,-0.17047711245676203,0.011523155063918588,0.18425590700676167,0.010356793288419708,-0.004328938159463714,0.0017356913348632143,0.05136604199911354,0.0006233017472771242,-0.00981461297247587,-0.03785285278193826,-0.1780297748589272,0.048363666512132274,0.10422038288327894,0.039808055575575096,-0.13084102053292807,0.041070373987563545,0.056554169812330864,-0.18734529029297528,0.018032526567086413,0.07398541240303877,0.32460236043391344,0.27005021146536784
171.5010528564453,1.1699981689453125,0.2343881572119765,-0.08554234000641998,0.12733924422173734,0.4192580314350204,1.1059219873096005,-0.043307102203943335,0.006727380150558099,0.13269910417006608,-0.0034684091221111064,0.036400066155452486,0.14378135621906957,-0.09050762440286879,-0.2213948922208252,-0.052982273657359344,0.033905108448744725,-0.00852548205681622,-0.13639631823233322,0.26303024767049876,-0.26034635113730603,-0.14663832264220578,-0.0673937977720093,0.19694003169025637,0.12191176843443761,0.20281480555685535,-0.068239597035374,-0.01810497337321541,-0.18968813697794276,0.545508436807554,0.06494207214127809,-0.2709227602916969,-0.0068223863667047635,1.6179898920106717,-0.12630867183928737,-0.14158914352822327,0.2095091848535119,0.5576231081974323,-0.3867971508028139,0.23742003502567965,0.07712073595473909,-0.19288636158539216,-0.41656240435218883,-0.5954681752356671,-0.13572303396512495,0.43136342558687224,0.06122801326343972,0.7392584633231396,0.011333601703025303,-0.3799463549816327,0.6244390054459777,-0.46271825791382126,0.23200491712378804,0.8497606524104534,-0.12587120676312155,0.08280006726115147,0.0965472557609739,-0.017888207579368806,0.04036277220484955,0.02348507259815788,0.05390871533910271,-0.006596064426152418,-0.04120637894036403,-0.056289907442739026,0.05286419890591968,-0.20041442561990191,-0.18978694716520084,0.10504381403561762,-0.053902975443392266,0.03326790639749021,-0.16779743354426097,0.24098152745736945,-0.0930793078903814,0.01929232456995056,0.29054579545857334,-0.019142918762521142,-0.012135792555162042,0.18995144196186575,0.13749319101990692,-0.11823186101439832,0.30265067105435794,0.015418740704555428,-0.08224045584478935,-0.022758416649662806,-0.04352452028755875,0.009568356784613468,-0.011006384310566518,0.025934534166981327,0.10089256390918334,0.045000038341955,0.0803504894237408,0.03659008780674509,0.14369030272443778,0.02151549427115183,-0.19819348441439413,-0.06594909713857822,-0.13243846250575517,0.05212313982198394,-0.19871476324455611,-0.10333344989238398,0.08316069146463397,-0.16348327488341402
176.27044677734375,1.0897979736328125,0.4086082491928602,0.3584437705916674,-0.029362480033614552,0.16304324300408105,-0.5303564962660017,-0.27915332091533385,0.16038580592661253,-0.06673262831920528,0.06676996064852242,0.0010584182835591243,0.042418094450271254,0.12788463804325878,-0.18122759953068007,-0.07015771775991625,0.025428756892732968,-0.012489545757822573,0.008917611012810875,0.053656818787600806,0.029957103408642022,-0.031169014098319216,0.1287079813373768,-0.03650866812409696,-0.1674859986329645,0.19212553989809134,-0.03771440471244764,0.05448193464387664,0.15922917977929818,0.005380188944579319,-0.22609236470564453,-0.11089807829646564,0.13708375810554596,0.3136489581761016,0.32845663715115564,-0.10629669267914972,0.14937402855951176,-0.42815278205236046,-0.2785601922047535,0.3159767854520876,-0.001032568639191378,-0.46197839165208077,-0.4388030018140616,-0.3957576780256665,-0.4866646560076704,0.3912670750058243,2.105150138427355,-0.2856790064265141,-0.3689374080616686,-0.3168009317397169,0.2407370547291708,0.20384797908569757,-1.1766622246740444,-0.28284667406483144,0.2133502865920641,-0.09559967866011937,0.002369259867267007,0.1167091278018493,-0.08068136303829973,-0.05232134221486354,-0.014225130459040364,0.06264852982595527,-0.043752711610404706,0.1522207088716001,0.14789698758976963,-0.07715334358715678,0.306281945419206,0.9055801023967256,-0.1072736721728433,0.22088306454859694,-0.006587857387793615,0.059120747904451425,0.08217887900571573,-0.3533747199638819,-0.32276705206601,-0.02225766642938737,0.02461252590242302,-0.0016816249872032563,-0.04035157440284072,0.013326358653049555,0.285105510817535,-0.03548575873097505,0.0008317975234142772,-0.03894459323553776,0.08328550435493305,-0.16986952088290622,-0.03988079200537714,0.09594226850550124,-0.0813577486260173,0.02475595626492317,-0.11445232664487807,0.06977789751398492,0.4722993068295751,0.4507845315657114,-0.0750175473460173,0.16520104991497542,0.2708817816155588,0.03212833590129003,0.32568566353362927,0.01799952454829623,-0.020372747845179055,0.3050273534713891
177.36024475097656,1.10980224609375,0.17542978957526567,-0.18729559901922815,0.15707675721833472,-0.1181323646148431,-0.36514704405624265,-0.5917497588386631,-0.19525034986567247,0.2227583636597332,0.018325495719523785,-0.012148561853065808,-0.1716739379582715,0.2747804238586674,-0.0819639624797958,-0.019097506446406662,0.06780890869450693,0.020063254937148372,-0.043743463036167704,-0.04324426397781541,-0.007493735828759576,0.08687753928638525,0.11770158245841557,0.08383333489085613,-0.02673412146585234,0.1212125135761394,0.08661603444736589,0.0667188420370092,-0.021800348388197825,-0.05233586643864033,-0.0386264408385685,-0.016770824420698105,-0.1767567491555296,-0.08509775739519232,-0.04796450291341894,-0.03364750689569719,0.024996940095561374,0.05778273936774155,0.0863090615312361,0.05996382286726715,-0.0077494561725512945,-0.05343633024941496,-0.3158880627544051,0.347186020959805,0.32771777257252555,0.20839186382819735,-0.413928831138094,0.007155673075797911,-0.14003512902941506,-0.43514437121278643,-1.3437286253257528,-0.45500731340506834,0.40680323358559767,-0.8138423405568094,0.005275794401087924,-0.0613481907942546,-0.05511836224517727,0.008976439161411588,-0.0019940802511690435,-0.017991442408854214,-0.014702740818924736,-0.006253798017308115,-0.05015244646696723,-0.11102610395417073,-0.02882280317380316,-0.05952680694608404,0.07895170667769674,0.5479301753589216,-0.13029614285490074,-0.004884471989599089,-0.09601508907835146,0.21515525360905444,0.044388238935050485,-0.3363953214834216,0.18002872212009696,-0.12238131853031932,0.0692507013584745,-0.10704663840299879,-0.047906260473442985,-0.04247086965443183,-0.07027592432236494,0.02597076162928931,-0.07413316447663179,-0.0543369222909997,-0.13379208691341338,0.019866366373245695,-0.029308510752460888,0.04272511786698459,-0.046598146310971374,-0.05639521956639852,-0.11441324051169127,0.02245912369886034,-0.011933074219005106,0.10642968499529297,0.0895433537877765,0.06999499560871476,0.010287833852358236,-0.18687867412787074,-0.2603089208548526,-0.06692873260856223,0.1810509317750086,-0.22194714495251633
178.4700469970703,1.1197967529296875,-0.24192629151905892,-0.1050621236616782,0.0793721898407189,0.40273303159539803,0.34739029866819743,0.4708102035128363,0.22315545337949744,0.19548488488425733,0.26212597356732564,-0.08353637162677835,-0.10522149147034815,0.2068597673703906,0.14570163757128618,0.12409626638111672,-0.023075934669133255,-0.14804591279081344,0.16104284161845356,-0.1295247808976681,-0.09621106380686675,-0.04928954509040915,0.07517081082063737,0.04283580605364623,0.010361311737823524,0.06542455031593841,0.04342957815480879,-0.016427185225666618,-0.0441897333731526,0.062113766615595783,-0.01761672113377234,-0.024080670331422614,0.0942205548721503,-0.3053995762661597,-0.02003161039848466,0.08571649597756724,0.2807656791372915,0.48845011081569406,-0.5479893462639306,0.31374933517532466,0.8254885959554117,-0.15053132089152235,1.4698574202022006,0.30272261612101214,0.2983042502857307,0.16980253592430722,-0.36098844521982165,-0.37833772339272853,0.16704786531325228,-0.1786736435830236,-0.26327716559839404,0.742369560497169,-0.0913252413180586,-0.0820626306636596,-0.018646591708894857,-0.19310503988788874,-0.0019238154078626921,-0.01168980482006898,0.06823637172627567,-0.04704211551019576,0.05259123689167631,0.00800913923851963,-0.008682611387098887,0.40874266448196994,0.28623490408567953,-0.5201668231742909,-0.49032932426017706,0.34725912168548495,-0.14720475319780488,-0.0010713204999759627,-0.10839070714384164,0.1639114816604144,0.14777156154964372,0.28932004979673576,0.06312310816862113,-0.20278512869611737,0.1092841131427228,0.017639798439322202,-0.0390497312472529,0.047414677189840326,0.17511301476376803,-0.20169128785963522,0.03994912233887871,0.015072677584095306,-0.04911501664869293,0.009398749176466145,0.1552453968804502,-0.041914893149823274,-0.032198651613913644,-0.3364622363970194,0.11361186459177144,0.18964279589405117,-0.036367889172862725,0.12945933748874813,0.037103524933266255,0.21819275678343666,0.1799150036177617,0.03176355267513034,-0.18961717857673793,-0.14786187860953764,-0.1730712041968265,-0.12520247785564362
183.21945190429688,1.0493011474609375,-0.16059048236407875,0.38537123266000434,-0.29099645148229975,-0.45505625565794605,-0.36239629055484024,-0.7365910063241237,0.37662893943407216,0.03332066920687398,-0.18571725368853342,0.3120813613123019,0.48520546274808707,-0.10248351484084783,0.19992760990180233,-0.025945199128818056,-0.02504481037701052,-0.08811334502619479,0.05122975920704796,-0.03395614336082125,0.0217864998374116,-0.019517242214762406,-0.04263186867072275,-0.0985176933622507,0.0036774872140892404,-0.06634293002381787,-0.05411729261301852,0.132456267826895,-0.06977845700545023,-0.030803156193207948,-0.07114693362487359,0.4029041530348678,0.008526033672945535,-0.018374154496240573,0.5698731281474161,-0.16795913807481605,-0.09287002765316761,-0.41022375330427396,0.21511656606799184,0.24402274728851364,0.36397151524105,-0.28623735967928876,0.15126721826489214,-0.2786351270685646,1.2848356946233421,-0.05449490006629044,0.4796878853047643,1.3988499621840509,0.9073870949892116,0.061729338264023714,0.020108394442932304,0.4589598885641621,-0.26684313273035354,0.28021819889160154,0.7373698622861606,0.0018980160870059781,0.011190696122757887,0.0034857961602515752,0.012615665754981825,-0.008684418259370674,0.07491438966197701,-0.011747647905638647,0.040497350209372736,0.19486919506964626,0.2964057777421774,0.21917598190797416,-0.10066848272455735,-0.11744689682894845,0.22151867668620676,-0.05210298729225825,0.03892401690241952,0.13817723407310814,-0.44700710950243316,0.04597858368100228,0.005067633561189028,-0.03614239896430115,0.02923816798858101,0.037736624775688656,0.16336358282019856,0.19444330741718202,-0.2244233032955031,0.14245113344821964,0.011804253190678848,-0.00986937796964307,0.017675953224568414,0.12367867183780898,0.009740974511623679,0.0859513918802208,0.057284898361093566,0.07867518381596102,0.10851246127052103,0.23245062717631115,-0.10235814168976416,-0.07872044178932724,0.05116406043261934,0.10501622769220613,-0.02528088097131851,0.00039866120203169847,0.004893764049327978,-0.19480774931694808,-0.14680881680321428,0.30442942902400166
184.2687530517578,1.0898895263671875,0.298127072353857,0.021914172882768868,-0.4541281593364462,0.2328687600961138,-0.6002182850498661,0.9558687536693986,-0.10521904010031491,-0.4064238313977454,-0.07500269419563213,0.11764457298530981,-0.032037917371162926,-0.10135647499618548,-0.0716204969948811,-0.041946137217796206,-0.046711806639991034,-0.04511220175369665,-0.02728530757650778,0.1801961826922053,-0.018652701696013727,-0.08402544499131785,-0.15124376758573654,0.08839327020378683,0.22820170859189165,-0.05813326236414845,0.08258565539975006,-0.11774261499999276,-0.0292873907502684,-0.1511953532705842,0.023373203809529248,0.016974168668873135,-0.18688556278203405,-0.3343779706127153,0.38186769775829177,-0.010131607892749014,0.212879857495382,0.2713812636251203,-0.42986567465053993,0.4616733264825735,0.438100157267285,-0.47524726772580805,-0.43931206536902545,0.7583499272836769,-0.6344711948796061,-0.441992079972895,0.35771525994012626,0.04905272994771914,-0.2933189321908846,-0.5592271813714843,0.02248091751385671,0.5204407422942577,-0.011761638362477678,-0.08468907317930896,-0.20553669562176433,-0.07316653513971311,-0.015948328697919265,-0.06807523156480852,-0.00934748325201297,0.07505825664051333,-0.008235818021607166,-0.07227119195658054,-0.14216009037187113,0.2886798412980553,0.5633002048337052,-0.2108918963777548,-0.050719694758282384,0.03667073237805137,-0.027186314754114656,-0.05901252523928157,0.12612715537919708,0.09313046048476506,0.19881297789109545,0.06939199416773315,-0.09609729549456839,0.042203120081916845,-0.2002300863945561,-0.1952849337840953,0.09069439152148882,-0.12417324017670102,-0.14759012854165998,0.13449752157076666,0.07413891856984701,-0.06790077351735907,-0.04592715838820603,-0.0503524692299976,-0.02989272775823767,0.029038018104817022,-0.051824000245381543,-0.31206894216668685,-0.1254669816137081,-0.11420730382062821,-0.1791200846297335,-0.07646142348752372,-0.0830001188387287,0.005523729160654384,0.1886826481636904,-0.001316210763260432,-0.13050212163022376,-0.22020262263944748,-0.14852386917684696,-0.23553417933541634
185.358642578125,1.07000732421875,-0.27232332323836483,-0.0528493795274335,0.039125290732007934,-0.13599301344388484,-0.5589601815192314,-0.2857211034437863,-0.19262106803001966,0.2703913788223049,0.18168948469760982,0.3998283667955773,-0.07522074102431031,0.0019565849112656887,-0.23754944954595844,0.05007258233832977,-0.005737238402183361,0.02158403637491981,-0.09979152631222094,0.01905369606745893,0.05873591726717853,0.019455003261603897,0.2698928726873685,0.005388122616251642,0.42640889266273446,0.9738801505477841,-0.03205277406867509,0.5541351329276654,0.24312897386861207,-0.672673047809595,-0.014188593257039769,0.15887853684983755,-0.04341827472244053,-0.11048302688532533,0.04479360921138398,0.10418620537543492,0.12013705288948083,0.026766540633571353,-0.09634489805745887,-0.23386915624795196,-0.47426831824428894,-1.225029226033424,-0.49955129632168305,-0.3462012695741489,0.11263519331442336,-0.11171924431146789,-0.2520526347777736,0.24390492651585974,-0.2554944208598328,-0.16401679385478315,-0.10172701074311041,-0.06613904754601893,0.11071460771940925,-0.022629189009057714,0.008084646624613076,-0.0904191412178009,-0.08746874666862961,-0.04940179942755548,-0.07203888355605234,0.4655120751621473,0.31584124512085726,0.0450261258361833,0.327644654483467,-0.16831135360754423,0.01853751070215701,0.06901348110658309,-0.09918238012970071,0.19537643021209844,0.03493124858096905,-0.1424534837670135,0.07162603379660835,0.07584539674555696,-0.06994961409412463,-0.1265332092424032,0.10727759145825302,-0.2058517796706905,0.07925118911851488,0.002441582058260719,-0.01891463717694524,0.28446973753033006,0.10211871392009642,-0.08867108137464824,-0.029193308400922532,-0.07535604401605189,-0.00913603550541998,0.016151814537868577,-0.07562115841711442,-0.04874131677169739,0.06800986369468355,0.050955225842642365,-0.16869027001066814,0.1150345186103095,0.43867442496307324,0.04488733589609595,-0.14937390341778056,0.0829962963168488,-0.036426961365943096,-0.14228238483579653,-0.06629039401005905,0.10811368204505457,-0.05286950426506027,-0.09770306729195902
190.05845642089844,1.0792999267578125,0.07397371821804835,0.14610424259341245,-0.016951407588357753,0.38476383952229887,0.5154774108325392,-0.136153451301341,0.18394465009448685,0.04613195815279768,-0.21099495850764804,0.05917945766376506,0.14229709614653044,-0.06524012713671973,-0.06009352749244205,0.24363140940849726,-0.04005397060753914,-0.02743689625458231,0.08124540772596427,0.051554629119845485,-0.1814009585382323,-0.032518429882795546,-0.04978247616335701,-0.08397824634913253,-0.0021348550204994556,-0.16021687867340037,-0.0038519578348926186,-0.11998160269141322,-0.010524434377021845,-0.19613966175724326,-0.0391159821620587,0.15070848013257535,0.11090955849723413,0.09734858657996304,-0.10721458508434908,0.315277375585961,1.099363278423243,-0.40520161959741785,-0.02274134233400437,0.6042844295210934,-0.2944540341391366,0.3719328337446078,-0.8109368246494832,-0.9401303003213968,0.5695765487154085,0.8298010648552236,-0.17699440316064902,0.04190562054605993,0.10807816899965839,1.0098638239150624,-0.10290621924957238,0.4897719074550907,-0.27263600836842317,0.13144306945857454,-0.060375359956442644,-0.025619948465804825,0.10479266943701016,0.06870526814777075,0.017365685999420375,0.06335179686665955,0.22679533558895984,-0.03804435893403778,-0.12382461986282092,0.2392180715421279,0.29430190012406043,0.05338733551078515,0.22934247991677686,-0.08781435422746971,0.05179460527178973,0.018182734999544363,-0.20768620087402262,0.07369277362695778,-0.09915163679648878,-0.29167356248962545,-0.02806223582007833,-0.01613510360013797,-0.05578255618034274,-0.03793133058909846,-0.15267911551154079,0.034218155292453194,-0.009654211543850036,-0.12047130540010062,-0.02605401236077659,-0.09013418163859514,-0.03290842148466698,0.019324024656042174,-0.05702759244374181,-0.041335272268153395,0.07059632165249154,0.1069708850210129,-0.16306659198676138,-0.23595344114695888,0.18613760692289352,0.09663202511665689,-0.06214334698350693,0.15687076921905635,0.09760569593740455,-0.0031975603355411386,-0.0469363169508287,-0.1763154839961159,0.15595549286781943,0.249133985941285
191.13775634765625,1.11029052734375,0.3558485965386019,0.25557641713754475,-0.005522004526899507,-0.9652894754971137,-0.2785114936546842,0.4049974253278783,-0.21796107251378327,-0.6890864318163002,-0.420676381950232,0.008322210241213334,-0.04922257844830263,-0.00813709422734589,-0.07125738702141193,0.039342195839433776,0.023935383456504436,-0.006953252614365504,-0.03933738595063659,0.07932121968051849,0.0001599700346473971,-0.029503772591482978,-0.04317923869367109,-0.11130017962338942,-0.05196377736264246,0.06200167966841318,0.0004905925127483727,0.06171850274205955,-0.19507393526214123,-0.1427779737569085,0.011194831789663615,0.04066149675813441,-0.1099183508664009,-0.007624977378379846,0.4374094914516599,-0.018414167360951503,-0.019698003026266953,-0.12915793892167296,-0.45832017772124933,-0.5495145638732472,0.3198078731644752,-0.2630159454925117,0.3707980991890101,0.5847857960454946,-0.18380505562771648,1.3659507810121776,-0.1019487311937802,-0.3597255513863481,0.3909923274128286,0.030692371339160668,0.8347507380824555,0.5534495956082265,0.11132481122278656,0.13223764195257376,-0.06505601214321308,-0.021269507858713736,0.061361509246384074,0.02776228594004969,-0.022825126638998258,0.042123487149000466,-0.06710144193277708,-0.0329481553497797,0.027508328636781623,-0.18840466897792307,-0.36509427824662477,0.016567830405291736,0.2127295323429531,-0.4623676880576482,-0.28667672422783946,0.08153791787670864,0.18565886495148537,0.27838154433760504,-0.19043633678725988,0.02668291198425045,0.15054411994248637,-0.05857238411411703,0.09205818082806778,-0.03189348903130634,0.03362957980579458,0.45032479301015177,-0.002929299731458774,-0.04047217832525955,-0.09406075893157488,-0.056757035222754416,-0.10111864310200552,0.01505617796628452,0.024058099643648117,-0.01992678205730687,0.009801706130625283,-0.028340868175396647,0.0007103487788018658,0.09239090330991213,-0.08616784245570913,-0.11128593088375346,0.2584664487652666,-0.15634705935258192,-0.14493137977173107,0.15938537545906561,0.08600233097283864,-0.17612550344731306,-0.08779617247311669,0.0784820858243318
192.248046875,1.1598052978515625,-0.03601685155545857,0.025633860015728815,-0.08948611140209554,0.17466324873508143,-0.10661489213346587,-0.07347544134004526,-0.08104901507578978,0.23577000678149265,-0.061678102291822454,0.032476395865578364,0.07886468602484537,0.31139308417273287,0.815613979826543,-0.01889778736489528,-0.06574651051624522,0.016677038451338708,0.05347990857421965,0.02943177715547808,-0.09217830832707179,0.11150781327692773,0.11450229189341829,0.15203013750144154,0.016650384572186684,0.06708743329484201,0.016121790431508902,0.1442061654543968,-0.0964738751516407,0.014257859641287706,-0.14283726678906003,0.018963067547031254,-0.2807340721132406,0.08271649613859765,-0.990598988576389,-0.43353754101289427,-0.057464026567024866,0.5914822089321985,-0.3589802697176513,0.48317891740477154,-0.3049486801336865,-0.059350296489652454,-0.8855310301078343,-0.17520187487872027,0.12187556367212542,-0.21423993427086133,0.4030135802809407,-0.7008869579677819,-0.23175858250739115,0.13956532012288286,0.930469834339869,-0.21869630021226633,-0.022329546742527635,-0.22406193756350357,-0.016216231289169672,0.06931525059249088,0.0741404560000155,0.054925394422957054,-0.08070993645251454,0.0030879505440807448,-0.0044239139972927465,-0.03560125254968233,0.014732073318999221,0.0636633850177746,-0.09083099023380724,0.15448094494591963,0.3806947758469441,0.1827234817766816,-0.17076629838990928,-0.10522762607858485,0.01073834402518511,-0.08754721974349824,-0.030929457593484144,0.06591874237327341,-0.08261531788502531,0.11221395902876395,0.09046070335342725,-0.11313524321497036,-0.0547147739652681,-0.054487756550509,0.14961155350845134,0.13843985063220404,0.0005006499529396228,-0.017936327027039935,0.0649487881715754,-0.03701549630610035,-0.013633100275156226,-0.06294343969516293,0.03725544598032758,-0.10491383724877495,0.0808781169477531,0.09934849993103777,-0.015713682091996223,-0.6037972945331336,-0.216224690256945,0.2342133873271744,0.11810469575333307,-0.1170919752682662,0.2541502687815639,-0.15762780500628015,-0.12900552148792097,0.22096057581426246
196.93734741210938,1.0897979736328125,-0.11284773254444468,0.1622299352665687,0.04721213694479495,0.474983119448901,-0.47469159644587955,-0.11392186675777041,0.8070193554739851,-0.026237263915883137,-0.10222669562059958,0.0505690748678838,0.006499651788769847,-0.006330516242687309,-0.06107639310274368,-0.0319939469547558,-0.14383612003084864,0.13907712601484842,0.11604471142962666,0.09657660372845626,0.09809147354458743,-0.03330387610852041,0.0031521539702569386,-0.016840107333174908,0.07844423669350348,-0.06648653272029062,-0.009748614966586673,-0.03135707505554566,-0.04967599795964875,-0.045693848382033865,-0.207370880885482,0.038395970139756624,-0.11713070179059198,0.1567938695502501,0.10938281130885673,-0.05393438583262153,0.08513236192401372,-0.8778315532264107,0.08472482603058987,0.22562320619422774,0.20954657047075625,-0.042656071495673936,0.020315950507850344,0.5070389163055415,-0.29889954839785715,-0.4904203046407754,0.6114974485598366,0.3637653552889235,0.6678301785682035,-0.4742962790394693,0.2665009965523038,0.1942091305247836,0.01637842275193866,0.0444839404524909,-0.024427708578972737,0.08373648727487493,-0.00807577438994074,-0.02254050210334843,-0.054661663740949176,-0.001032761209367954,0.02633530759400181,0.015883554806772473,-0.05415575018080253,0.14868462167663404,-0.18913644815545128,0.010580736880046418,-0.021559180206719947,-0.18105565430619114,-0.1066672213207171,-0.09057101972447996,-0.13370956077221083,0.09739317345514036,0.1326333975104625,0.03457925139498896,0.01166866386561198,-0.14087820452838745,0.03498312309218651,0.16950670875884605,-0.0649518025749072,0.06180416787823425,-0.12996222495944904,-0.02559701566365693,0.09971819361524026,0.14784859880776094,-0.09831455805763367,0.12670350271495948,-0.04112082863077959,-0.09272725013795587,0.1222253433949802,-0.16442528790828723,-0.3390006091492236,0.010235041690715617,-0.0948153745153952,-0.05244256473514222,0.2467943961505212,-0.008385446765744185,-0.04794236817956457,-0.0776921696687849,-0.1988747982825063,0.08649512418101457,0.3571773481242796,-0.04273294615572744
198.0271453857422,1.079803466796875,-0.15518747679617473,-0.0675022806206397,1.0531450633240251,0.268508685285457,0.14427100876470048,0.08378511408653339,0.1788821349728014,-0.11149728635697931,-0.013074457879418522,-0.0214717569243128,-0.08497182423425752,-0.01327771381429596,0.07510416849282431,-0.010594768513352316,0.012173508756104057,-0.19275900549849698,-0.03396654509949583,0.031738963232812015,-0.12543990044617098,-0.042228385057140626,0.02162739985565308,-0.013581608871795891,-0.05310853183173869,0.08039234771481492,0.08050990970352424,0.013053691288692052,-0.05545914503188719,0.07445098238060445,-0.04052092475904211,0.1640583945934354,-0.7738236476868149,-0.4322187344928507,0.11865492060666114,-0.07382119398646708,0.08676842870034562,0.1362665259180675,-0.23167682817032603,0.062377642674026595,0.8451252813775059,-0.1873747157782688,0.3511971245844145,0.13873481696211704,-0.12314199788586777,0.0818031178774901,-0.05454245335728759,0.23929799031939292,0.3657907990239662,0.5577128739183308,0.6864387388443242,-0.4267491084031397,0.8732340332038879,-0.3386668605000129,0.4751202110653944,0.08530654073833377,0.01566190098791585,0.062265190536959905,-0.09290780236144716,-0.017789724386286728,0.017008836749770703,0.05978619367128067,-0.07085155992899028,-0.19631916316108924,0.20921148029894884,-0.017066930343985348,-0.10579456085365048,-0.36258961104859816,-0.08005210235923206,0.40051237005408047,0.09875362077387616,-0.2824949316341709,0.08190060103768465,0.0829186886998762,0.07041685081939038,0.09769515055174145,-0.02582856804419975,0.24370178308336363,0.06653488853660909,0.05345408281644321,0.0026757082881023655,-0.07106201793057469,0.37647401065367003,0.4062098114132183,-0.147927559104228,-0.04441992316769616,0.05135084883195582,0.23597279488764442,0.13854273491433544,0.02775760925917062,-0.19214138676126913,-0.23858486496866102,0.0685362158658901,-0.15813100108780082,0.11420165332775634,0.2695902180810411,-0.10304278831285615,0.008510779806214515,-0.38104445004791343,-0.18764030937595683,0.040576449559092134,-0.04045500579195793
199.10694885253906,1.07940673828125,0.12121999319473356,0.2230920146528484,0.2614683354714617,-0.06070518693207905,-0.1770918143145671,-0.20225450722839533,-0.37670090976463677,0.022789318029927792,0.21666302894555406,0.20628297968135917,-0.14011450413378757,0.0226968292139777,-0.0063086111487928795,0.06019856887890174,-0.06204073474247354,-0.043066173712526704,-0.025503704646037722,0.11778828359944804,0.0012566365177771495,0.06516735250684105,-0.0710541250907504,-0.1482567715454993,0.12803533323220867,-0.04643376780372657,0.00033351716388317913,-0.03415675271940795,-0.07639186253741545,0.019693932023840094,-0.073850849448477,-0.043744172983467944,-0.05955681897306576,0.11660187674964466,-0.07931102232068607,0.3632657859902724,0.9948511424021361,0.012726482191531219,0.41337232552054215,0.5840407348109078,0.34189727996299757,0.4741272220773602,0.7806097216320542,-0.3114938605398314,-0.43000934374051564,1.3546098055975608,0.07072843108816368,0.0976303308219118,-0.5584410826082512,0.02916847214079504,0.2954787568478979,0.03624609136603733,0.04844999469592388,-0.033956671539464696,-0.10300552612571084,-0.025371557299732964,0.061315907157060576,0.006463318047350808,0.02570454815472352,0.05545306600727906,-0.036216743733493637,-0.038757220227636544,0.2116678608054572,0.02725346314198275,-0.04303551695726347,-0.2678808349456354,0.040417466718043145,0.039928262179857524,-0.07787075508622092,0.04468308687570527,0.02589083958530522,0.06307704461526857,-0.07792930064364982,0.0741063920823522,-0.14389343664504317,-0.09349531260548158,-0.16014053206103765,0.2458297990996268,-0.061593561423175514,-0.19352222786790055,0.27364934333313273,-0.02006542526830478,-0.03575131364334833,0.014609359626437887,0.023949280677642917,-0.04834053978227348,-0.15936458139191584,-0.13569466255453166,-0.22915155649659347,0.03611881459612499,0.025446523362518333,-0.29653532182554826,-0.023970372435382983,0.241202775311123,-0.14173877696199338,-0.08991592141449892,0.11527084140028901,-0.1792091706601413,0.03454164919294325,0.027598453545791716,-0.45308272049973736,-0.3363526689540187
203.83584594726562,1.1201019287109375,-0.25877156604659984,-0.44404146376726117,-0.1451689019415063,0.14804073204821064,0.03576219280711524,-0.35446454590217735,0.07214120972343535,0.5561957561909736,-0.04699419302088608,-0.003015819387522392,-0.07347778055719288,0.04809712961752886,0.08723495822241095,-0.028643615160881694,0.008765198076921877,-0.008818917529737796,0.10294311008235749,-0.1032143145587993,-0.061940999569053086,0.07244175953704114,0.027351328090579708,0.10174724411584932,-0.06653983138472139,0.030976660784770862,-0.12915689005625305,-0.03567317399145151,0.06090855663650142,0.0438568069645866,-0.10957001585358223,-0.6956715598827314,-0.320938456563705,0.05767627692241195,0.018901045079539734,-0.2499289036876976,0.08202550722273845,0.05315430057060581,-0.004502023792516019,0.09845723681330694,0.08057830241368318,0.23858996689857098,0.34240727456710773,0.4547101010804705,-1.1583322053916898,-0.293215926561593,-0.24485203102488845,-0.11725287789815145,0.09196711646645384,-0.1255176884537212,0.37384876332082007,-0.014381779355115545,-0.07468606631307398,-0.04598176661590216,0.23629128116233925,-0.11412294531962565,0.08185756086775207,-0.08620483073862725,-0.032221935604529746,0.06324108952482715,0.03326020437943691,0.06211230371404214,0.09670236142548655,-0.20728912927767454,0.10082980709061612,0.24196336866088303,0.05887878303732844,0.06806781952953408,0.06395195319792592,0.003133292420095954,-0.6370234409164667,-0.18522150931352624,0.020080807808577184,0.06078729853000325,0.010504034551902464,0.01653954122622361,-0.10394127239322924,-0.10771817054870254,0.03467814967096181,-0.1559473953206206,-0.08849527814275797,0.14348355496445975,0.07830228566865997,-0.1335772499471663,-0.005365497949758429,0.07132818321495626,0.011369623884415604,-0.062485597189968003,0.12939194286996306,0.08067249651445188,-0.14263961427312555,-0.09643597049302852,0.12225471655219576,-0.18908263431971586,0.11417707165773677,0.06055702502929597,0.0044755301417972616,0.04190518579541735,0.021575431422319154,-0.15826169994663186,0.1228101292667313,0.19385298798837108
204.95594787597656,1.1298980712890625,0.2064172396673878,-0.30957911776759117,0.03716651868739215,-0.049894346293266875,-0.3885543089369685,0.1574879717866936,-0.16303320909170368,0.14585687282543663,0.043751552583614094,-0.0865767054551683,-0.011515478352905914,-0.012789540918577022,0.07373674954853637,-0.09013676631506413,0.0932046564874127,0.016267526177917817,0.0237848979183641,-0.11475063185006994,-0.04181363693314096,0.028827515733493764,-0.09387394776359777,0.041122235356516094,0.13310374570365105,-0.009657078990614238,-0.0735301070120821,-0.13053036194813142,0.03007686985167842,0.003852616637148809,0.17744324092380637,0.10910136532190645,-0.0371725089594805,-0.0630512339475754,0.3067992572547612,0.15903285863686997,-0.1808169175824376,0.5122689537555408,-0.23313915649594713,-0.05276092137103581,0.07579361849023328,-1.1603393690342978,-1.0047995863133603,-0.3468570471996748,-0.27173813029287175,0.5487116035028461,0.06194378509432616,-0.2031066869336533,0.35542281398523784,0.1843530748367725,-0.434633662257522,0.5861325643944116,0.4118547656740768,0.06048018625255319,0.041352843365451156,0.053191102243140644,0.036291985953860115,-0.046530270199796435,0.024466995196366303,-0.09880296766851396,-0.03518326017664109,-0.056942946846571724,-0.05382598448192176,0.009551660954203659,0.14954877025388755,-0.2641906313151286,0.04667050677599409,0.05351499859303539,0.144004371638203,0.09155348164912586,-0.006498534878288686,-0.24771584924806525,-0.100468500311957,0.020434703057738438,0.04471909697594968,0.003063441884568251,0.0762527696117911,-0.045427861825243034,-0.11698957587910923,-0.10604479692153905,-0.03365531098846776,-0.16966938824148192,-0.11743727844788537,0.032677315194587095,-0.09404444008574452,0.029780234606681204,-0.041284215057721174,-0.0373878271743494,0.12888771680195202,0.062209962727138184,-0.1235342623014395,0.15986649198288758,0.10692615160368917,-0.12079707227046127,-0.30053147540606806,-0.15342339829815363,0.05763911145609117,0.06659203783577597,0.06037414607371116,-0.2618218473400128,-0.20109262790547225,0.09709525068683467
206.08584594726562,1.1598968505859375,-0.08648568314675609,0.06154477681757099,-0.08372221501893179,0.14074011165391107,-0.38143751593098124,-0.05132090852224633,0.03835603130265958,-0.048544641065572255,0.08586223251358467,-0.003689583370522248,-0.054496681943899984,0.08314207913702645,0.03197742497070436,0.09834893391700121,-0.028056411625011143,-0.005066942385912814,-0.02694327848029624,-0.018744240795061668,-0.03058960522416903,0.04051200559632985,-0.013302179528129923,-0.003829538276080237,-0.028935825104237676,0.09182568304184943,0.00944999708787083,0.058054246293971656,0.06015648225278125,0.03276287324467658,-0.0007991745475729565,-0.05088645152200235,0.11180684661393349,-0.19172216698767272,-0.06272711308407108,-0.033403998462593176,-0.07467140450063145,-0.1864312370058449,0.2202565863830892,0.4429786386543273,-0.3142962143723255,0.07695959116034905,-2.386107044391022,-0.9544365593993787,0.07903887852243102,-0.04471532472727612,-0.10831425843568315,0.28850586112456567,0.3796821738288189,0.2919280218224015,-0.274344219885983,-0.9358861687260407,0.33259259154349435,0.23871183639651786,-0.4525914459340979,0.027473559810028983,0.1287247992730407,-0.024634754026665644,-0.4137588233671822,0.20486497819031063,-0.020516036170042468,-0.06658448799075499,0.009464477958022861,0.008253629229983628,-0.13954690183001206,-0.3766122895535694,-0.07680644002098834,-0.17497727674729965,-0.1289771845265189,-0.11141282023243695,-0.007497817282780752,0.018891502354857093,0.012726161739291255,-0.12698290947325788,0.009868446647696552,-0.19835480486422583,0.06573514116292767,0.06798882321989576,-0.08416653448571446,-0.042459220009552504,-0.10063753124638657,0.03911256876931618,0.15209533347582194,0.041147350650815054,-0.05021801712662907,-0.020013405421543385,0.0257223102180532,0.008297227320947821,-0.06560180039577466,-0.08043083086539536,0.25829084409904085,0.044954593962476634,-0.16870551148396945,0.025388576858005635,0.07829471424106152,-0.055302221417418744,-0.22008617880305703,-0.05182870024423218,-0.0073590131329094085,-0.08842142054888501,-0.4123089780655383,-0.2015939427173103
211.00494384765625,1.100006103515625,0.10817533108056213,0.22516848317080074,0.41345375993907724,0.00649679470471053,0.23696171249295667,0.3148440605541828,-0.46743605578913394,-0.05271768124163829,0.20747070245858412,0.5647981302431039,0.2727389871769966,0.9980459850584277,-0.2951472791223859,0.021811397007220443,0.08892577441063151,0.022721179063276163,-0.00039790306846586933,-0.009409575371713788,0.08749356396001953,0.01425364420384576,-0.03771436124073368,-0.0818719929144036,-0.04894392218531407,0.11756092098028599,0.022579693753695066,0.010101902937418767,0.014695218398434002,-0.025489483249284066,-0.20973518135845665,-0.15290495318255498,0.14437607013466713,-0.17083148911841403,-0.26493031883577556,0.07399682957942853,-0.12761896105439127,0.018764532119634497,-0.3907609231475009,-0.2827471838824592,-0.3065774007609383,0.05728032076407804,-0.38393516767892893,0.41260506867559554,0.12261159721078707,0.2005252897478999,0.23091980025177067,0.06668509461410253,0.07555516978743329,-0.013573532932025182,-0.6985302622680889,-0.6156476612240559,0.540855990456847,-0.7106857352978863,0.004263483935842221,-0.28147828281806164,0.051924508296799704,0.3478949142847319,-0.061257478919947615,0.420961794083546,-0.0011086623453102234,0.06139509154772886,-0.05222780726506633,-0.0853647009693956,0.03416782244679822,0.2749241931011543,-0.19365038272824991,-0.066156015029156,-0.09963435974936719,0.16370144706152195,0.06204158300997576,-0.006641937350595267,-0.3161994204877524,0.012965236568258496,0.04412683612576954,0.15315639823630356,0.0383642110685285,0.2979677120436989,0.018774392847683844,-0.012100794199726296,0.005061865725053179,-0.0292662954385399,-0.08806685884703108,-0.06246057188813,0.08432581615262665,-0.12304661121970671,-0.032873173250569356,-0.05586028313439447,0.03851766729213295,-0.019729538370395608,-0.048888678494105345,0.118791737268051,0.08159553616999991,0.020354412390452145,-0.25182009796889226,0.1467686793599034,0.45430134315823256,0.027821255941531092,0.30676498461387586,0.08619971490912375,0.05906441146382284,-0.12447199080441806
212.10494995117188,1.109893798828125,-0.15886401874639702,-0.11412741094958401,-0.12562491231619224,-0.04669936268622109,0.28170370102900477,0.7370497647594259,-0.19889219364968092,0.13577408809130748,-0.21349153406633586,0.10453077142094624,0.06426002452932819,-0.2024085086250411,0.12418992646568228,-0.039368153305274566,-0.006492696051935882,0.00944909098758621,0.03356381935914271,0.10947403869457392,-0.010800022796319884,0.11426392608264387,0.04055678493460958,-0.0021048994510551337,0.08445042199115857,0.016715049807904264,0.007675553356267351,-0.10526100185621941,0.09441487289240523,-0.18339549241120073,-0.11177631370852514,-0.2495166056920622,-0.21933610934448433,-0.6825283344581297,0.03553951883876069,0.17407561406809102,-0.5188934286654134,-0.03970209962731358,0.04863766239681461,-0.5277195092915321,0.002271021255064773,-0.848678199239148,0.4318528421175446,-0.6748069345504857,0.09482885515220567,0.5200008771474428,0.38605313158609456,-0.42734494974939286,0.1402987687437453,-0.003452988597060259,0.12265409743099509,0.05613061974582873,-0.04006681820261036,-0.027896297417465514,-0.2744583576100803,-0.1415234798500981,-0.021739622774002505,-0.02442501871478465,-0.05363123660922043,0.01750151378751599,0.039487622551013665,-0.09139816989978507,0.20203242648505548,0.07872481587158944,0.026258795101486446,0.2130463485070139,-0.14665945665763425,-0.12980222175185194,0.09384115345814398,0.13035945347798944,0.006917212643968754,0.19890958495677663,0.005395808519362696,0.02272290283704316,-0.04523897461827226,-0.0733512961777341,-0.0744309665347884,0.058795457824431706,0.0510078690331692,0.16310854693000076,-0.0015983135420483872,0.02458251709443847,0.14002394517284636,0.07144883137538266,-0.035020109824675176,0.016335694479934944,0.049421731068447466,-0.1306104208852677,0.00471505234819969,-0.046158691443511646,-0.08851143810322654,-0.19294785716472868,-0.03335024973584355,0.03355511427146039,0.003776567012622939,0.04829903694185435,0.012727858693980066,0.03947050725892279,-0.03470135936686571,-0.030189247204803815,-0.5293341548442515,-0.43665590677699895
213.21484375,1.1196136474609375,-0.4446032944514511,-0.009886490717170177,0.25348733948059754,0.8595543926805796,-0.32935557016712347,-0.5272764533974813,-0.16509470126407758,-0.1323251478933381,0.1066088862059938,-0.013431517697501442,0.17219193367657226,0.09329016117780424,0.03595693795420925,-0.04698196390454553,0.05683512993456032,0.015693481866878346,-0.13110703435030613,-0.0027688399467166017,0.06125417357766647,0.04027195423496788,-0.00897857282483543,0.0620196521695144,0.15350208344841465,0.002198790114997133,-0.18098432498383032,-0.7152150340062323,-0.27153368248198434,0.008142397925272674,-0.03889722701898783,-0.1791172487414091,0.44992393910910966,-0.690118488320815,-0.24828201525648796,0.2576500535798148,0.3767860358840649,0.2951341819020836,0.4612972779881908,0.3141882547393808,-0.11587941159820297,-0.017410525121452188,0.20431397971274246,0.12048572209734995,-0.1131043741826833,0.09307036298343997,0.528508048939381,0.3129425913326479,-0.3782384138959349,0.9750775594728451,0.9703259175696519,-0.07163356978668903,0.19920033871377585,-0.9855416705278234,-0.21696820427074381,0.013793130739322331,0.0019781983307429773,0.06681643343698987,-0.02009073874099984,-0.04838989458646978,-0.016603487715624133,-0.009707989215855148,0.015595973750074404,-0.16772868455247725,0.1304850302564134,0.2538553120411604,-0.13361926271936547,0.03925798965284998,0.17182313365167493,0.016254751994162993,0.10546587870362666,-0.027414043552714835,-0.10062292695916565,0.02421033538477168,-0.03431236473137502,0.15592479784568142,0.03047031198568412,-0.3049028652300731,-0.22426934082495892,0.11988521216635387,0.1740827199825022,0.05522802252224218,0.03681198081661018,-0.18829473024393872,-0.09790371531500192,-0.0036658026813068496,-0.029950732006980087,-0.03910663914608421,-0.16436641610681402,0.12466747374587128,0.10365404930636067,-0.479364669156974,-0.07613456466046242,0.0589532999796257,-0.054601802597212326,-0.10544867615677513,0.1191632359804582,0.011455595247025184,0.15631591804253442,0.08401963458273184,0.08121080115754772,-0.20154126682381207
214.33445739746094,1.0998992919921875,-0.33325399122257304,-0.45422607820902,0.34987003726449667,-0.5532810046974674,-0.20788083045646835,0.33194110294687285,-0.7680660432174582,-0.1626613164356602,0.07730637701188549,0.18912649478128027,-0.07741754669366924,-0.11539355750451709,-0.0792062031226881,0.035830566023395016,0.14309063232868757,0.09245649999246924,0.03749339493623074,-0.0726570576710797,0.01703846869596945,-0.0527871768003223,-0.053159681462467454,-0.00027792147531433,-0.06625125584220923,-0.18609869859175784,0.0024554007235901548,0.30311761920357616,0.534903935697721,0.14202266090884802,-0.06604896184772258,0.19044836996846504,-0.02963787842197425,-0.14309063988335524,0.7392138390956771,0.13601900010340276,0.5492099946766814,-0.023425913538666326,-0.010448179919806032,-0.0997694909669011,-0.5064208226697858,0.09096583217810439,0.4000353643922317,0.8711603617890076,-1.0389089622004204,0.4959073164392564,-1.3237449787146849,0.44398666052248253,-0.16419735953618453,-0.7110939711988221,-0.05657051267026416,0.5726331984076739,0.13783307000556555,-0.5797090409197504,0.2480685967062399,-0.23771442780943103,-0.025228781553093285,-0.06483167154557307,-0.1766032269929424,-0.021825189675634765,-0.019045040245437808,-0.04276169224029987,0.001990259026059884,0.05964523729936256,-0.01757683071173313,0.07627425452781927,0.15948514783607204,0.21719385186906312,0.20906120010736035,0.005855616871731976,0.017497688632886373,0.18312103147945402,0.056888644903184724,0.21589151985050778,-0.055416392528613787,-0.22849080562717386,0.019478425078761713,0.011279869040770628,-0.20788972552441318,0.03587821509115626,0.0635330769319996,0.013856734223474146,0.21964289065629478,0.11071750031892078,-0.12901446009685827,-0.06669448705636663,-0.05114638700268524,0.06888680512636107,-0.028729931800778277,-0.042639737947450775,-0.08516034009280887,-0.15698382982810782,-0.3113851444208307,0.019523501188649324,0.26960817423783945,-0.21950221615945614,-0.1943026181960892,-0.2027524793961014,-0.19006650678023998,0.09403088888811485,0.060512777255837674,0.21855296720685222
218.84375,1.0998992919921875,-0.5824243429601705,-0.08722849367387465,0.1913700444269877,-0.10621620099239415,-0.26422901156934026,0.9188422512236457,0.7029836690511754,0.6656360446796233,-0.0733146499096062,-0.02635903665084625,-0.03991700969668564,-0.07953225958445387,-0.014556053145521445,0.02614301165978438,-0.03759363856665807,-0.026236849964025047,-0.11300229860776108,0.13192301380695268,-0.029286037661537617,0.006576474656868847,-0.05146335470430008,-0.05148445088045291,0.03603678335687152,0.047528473221734736,0.08362664610725035,-0.10985750057353387,0.017517729346811662,0.06267201477214958,0.004371936369036388,-0.12064336509271145,0.01721016811105098,-0.09519083579008773,0.08464428124098809,0.04823147325258502,0.018773139990548294,-0.420092324662796,0.03850943962065483,-0.23238293623903505,-0.24318537993181596,0.24401911582356917,-0.6055349493918364,0.3028945428912038,0.4418704643150926,0.14718159960008456,-0.49347193487109564,-0.11886961558943324,0.17689982083615155,-1.6577759793310805,-0.3387549172991859,0.1685942856143353,-0.7919159936686965,-0.622755549150227,-0.218513623839899,0.08666290627381106,-0.05932585144144624,-0.07173117504060524,-0.10114102114464829,0.059279204625539005,-0.05358007998599896,-0.08076449795769831,0.0370579655574805,-0.14676009370073662,-0.17990406899775807,-0.13888960421043509,-0.15249955046492547,-0.136363515312536,-0.03484958570479617,0.14329944918208673,0.18993693458725122,-0.1542901399082949,-0.17508180441600335,0.048636034742316696,-0.05536721712209241,0.08458533093436078,-0.2538644180840249,0.1918708258340899,0.0070259726737974424,0.07835382121149104,-0.15755490928652788,-0.14715099646192545,-0.08830089910904654,-0.0961616878023427,-0.0520040942706394,-0.035733223593312394,-0.03213353244892643,-0.04933338508185223,-0.0010749094469479645,0.05442828074873224,0.0248714282997164,0.06221249187889587,0.03697487701448286,0.17618085328083416,0.2544989864076715,0.10990593433694372,0.14642235365190118,-0.005669643162320003,-0.037605819399837655,0.048146484162037026,-0.024755962971499262,-0.31648912065913015
219.9436492919922,1.1300048828125,-0.18731991080823734,-0.5779873240827074,0.12630999044273244,-0.05374289029032049,-0.44773182278145035,-0.04339539547943391,0.26978239403226495,0.02224702385767588,-0.04307994671539233,0.019912850336544812,0.06089626996878213,0.03800585068067255,-0.01024065187452291,0.013077146414477553,0.013954111448392436,-0.017012009712392865,0.02013960533294109,-0.09258322110561343,-0.03558116308773948,0.04644077723900136,0.070321053458883,0.022792796323092432,0.06793878811113271,0.04106211639209505,0.15707330908770128,0.08022967030940978,-0.06420040061696006,-0.09015037773308443,0.09534866026358485,-0.057899919929189476,-0.22464885150870054,-0.031044390594217337,-0.056443143007023015,0.1276774418684289,-0.9167958272222902,-0.5525706005661808,0.11058883835410226,-0.03274193169685839,-0.0460992254537679,-0.056789128217099485,0.13272046778686328,-0.3028057577645921,0.20447172696745103,-1.9225225106593637,-0.5672431382427223,0.1366372820186402,-0.2713573447517419,-0.3198126808635695,-0.08790444446566104,-0.20256960078548383,0.10825303907493841,0.017607497899586676,0.07971933876680071,-0.013896517074185636,0.015189401399549657,0.0729612797943351,0.03819606984230062,-0.13630056881748923,-0.11453809663852126,0.13157032171763247,-0.1138729476869782,-0.09583475497797463,0.13721154526941898,-0.06896696416893619,-0.38037963734973784,0.03566170092772769,0.040736375707236275,0.046093103188961086,-0.21801719638562927,0.21407656418167684,0.2858539094419582,-0.057080955709122326,0.051049428415237456,-0.11769324163068802,-0.12314564882644025,0.2749886040742008,-0.049331777166156575,0.016844169648270964,-0.055883069248962525,-0.014668681531788644,-0.005763336648050812,0.2829363367011611,-0.013315915955410094,-0.005704513797054393,-0.05255259249215677,-0.08477905503749002,0.039915403155148105,0.024251605364495873,-0.19527489561211486,-0.16114777720566603,-0.09903134437619478,-0.0879351772500556,0.04788631455891359,0.0739491026112417,-0.3048419692034821,-0.1695622794436893,-0.2362037276880976,-0.3691765169290804,0.09145850430533826,0.3224284022601137
221.0736541748047,1.119293212890625,0.4436863573741412,-0.24405064294940623,0.015316039094559857,0.3909310549128603,-0.24503851130702206,0.11797162047554222,0.37107290394406495,0.03234348120358105,-0.057077325957557504,0.0524613838460729,-0.015318111134090812,0.023313939159780674,-0.013820978509065739,0.0014542462664922306,-0.011895549591204705,-0.01938468234653677,0.04500621159668073,0.05182718104653534,0.13396656362315795,0.047795870750214055,0.0768967905146587,0.032573185177794596,0.0023828610360676766,-0.012522659363960449,-0.022663394717829063,0.018671503320949724,-0.1888600336152683,0.21393189127900464,0.026403688253899944,0.07476342954082899,0.01627904674012524,0.04415993273271082,-0.014735079072257906,0.15712598842896933,-0.35548592835400755,-0.22497996914780583,-0.2234087687659148,-0.18846239978997986,0.09412776259346572,0.16382987576001048,-0.10324566411683356,-0.3466523751895453,-0.09618401288454614,0.16572619212473078,0.9396304734677308,0.1630608353626721,0.06037226832349735,-0.25613570745793,-0.32450529023572267,0.9353639010681685,-0.07898788048623881,-0.06967894963408132,-0.12236965085239429,0.1054515553233361,-0.09023380290935504,0.03784146587603317,-0.017484694831332304,-0.024627318346319003,0.0367903521195139,-0.05986231954337007,0.2108147292803339,0.42119349506080295,-0.26835397276610334,0.031878531504641656,-0.2773239588498054,-0.15985881184611297,0.05245328758486435,-0.04038723498224088,0.06742636033216218,-0.03921983108586754,0.034303214558114435,-0.025091714609452163,-0.02032176125625071,0.08098052121916287,-0.016503506949854568,-0.12227399690459939,0.18281421718179297,-0.09659536977388716,0.05474554678852684,0.1080363880478371,0.063791440559048,-0.06077963353421795,-0.0239734673395817,-0.04692456325631898,-0.12013598366035175,-0.2190369916337992,0.010994395632538519,0.11960194697378489,0.24853583883056635,0.1976922172281973,-0.18006188367990075,-0.06846106579015551,0.04251941069020193,-0.2684521546230511,-0.32032278412055015,0.1336814838441218,-0.2443687432614547,-0.06059226157067295,0.14744596757546719,0.03329375504938026
225.76275634765625,1.0897979736328125,0.21890317406409182,-0.14434150385545313,0.39992025324183256,0.30029763391151565,1.0668993589633669,0.24708122634667695,-0.18511502910601535,-0.11416022111612487,-0.12451775586891489,-0.011142887713283162,0.018223032482279376,0.04912959016108791,0.07896341378195895,-0.07208213633308058,-0.04879211496460491,0.002112804607293443,0.008591460767025308,0.0027424488087735514,-0.14972098321992658,-0.008111428199666858,-0.09476930801685857,-0.1311394619208814,0.06241639250110401,0.077991060428467,-0.22208430252877398,-0.2285331443911034,-0.0075983746070254305,-0.04104306525665113,0.22406371849150847,-0.11797503116460661,0.11043182376441255,0.02074057023426889,-0.02631091120794434,0.2429988802538607,-0.16886276051925303,-0.8394974434933231,-0.2217081058791951,0.5050522445734835,-0.033440094148223486,0.16246329540289184,0.2234805821516972,0.18526212291108998,-0.24583040658315372,-0.20709394335417686,-0.2726246577835626,0.7872791162941631,-0.37257238328902664,-0.06889655893218952,0.0030436909802945555,-0.5581991504288342,0.5554289442453391,0.0813343302892821,0.07835784250107092,0.08660137287479047,-0.007330990419081163,0.09928878811186415,0.09354458040624755,0.26427726848623134,0.03431294324700472,-0.04350833634154593,-0.0032235226262248558,0.048262559577734315,-0.1654175621418694,-0.15720192098504315,0.19509194735135915,0.05487222789380758,-0.34389488524754036,-0.2713695137636926,0.20293396038302808,-0.3632010425235984,0.019172764941239553,0.15811511436016853,-0.026708884629133997,0.05524083750172849,-0.3073609616624372,-0.16086589907766782,0.2963547623592335,-0.01604672025052633,0.011263052237637601,-0.09178762461710688,-0.033029121515707985,0.23707524884652145,0.01983626777532841,0.0649663394779337,0.14246572116606587,-0.039070674244117407,-0.05127273058548989,-0.03505381137677302,-0.019672034634036894,-0.0005290321988874087,-0.017876674235304497,-0.2279633786828965,0.22544855035518063,0.29252075509904685,0.06376505815346059,-0.0580099859992326,-0.09436678918236256,0.006924368940993695,-0.002709894552122814,-0.19966858247494354
226.85255432128906,1.109588623046875,-0.340111690156855,-0.43307041937324076,-0.18972881748721157,-0.05464157674545127,-0.7545908409971358,-0.26816863008961495,0.3535420913469999,-0.12544938042535356,-0.12413592238706422,0.00810676486194438,-0.058293987733204995,0.1480828046952407,0.055412528705638,-0.206299796261381,0.04827277831483344,0.00589434601684035,0.18445966496826777,-0.007446869479270632,-0.05209361508103739,-0.05119064326408422,0.09054950901393541,-0.01915017689452457,0.04221838653967578,0.0033336111651828503,-0.04762218115268715,0.03034283832999782,-0.18388774876722774,0.2973439907419951,0.43626199151649664,-0.24624875139710972,0.09325593323196404,0.029024986818078302,0.11868676430477176,0.7715211025398293,0.3839126003777323,-0.8361471135440995,-0.09711996622503816,-0.9737607840897273,-0.6478818635877096,-0.9421018544291941,-0.022274965269089453,-0.15855598442148938,-0.2203704350947867,-0.36766344969453746,-0.15675748668788822,0.20687061741896656,-0.0624564814486096,-0.009459760658537555,0.07016963433559555,-0.24447215489053614,0.8571169304955425,-0.3820937072187947,-0.22007302070438198,0.13647687648577653,-0.05035933235309594,0.026209256122592672,0.01433708246422683,-0.023706346362472288,0.12842345976854597,0.06853781051248276,0.11541344962315234,0.18114815845134943,-0.006287535807912709,0.1687235971421857,0.10337975598800626,0.003878144913848594,0.016449761870676323,-0.16005641947735724,0.05193734560155374,-0.030813858952575393,-0.13148660975901505,0.021593018960672325,0.06375967707610068,-0.054542190087223656,0.21512139571412545,0.10725360730491382,0.08594035394745134,0.11058516475044901,-0.16570824958128755,0.039425077565125935,0.242214941893469,-0.06742329188025778,0.0020016431938965087,-0.03409099699167105,-0.04829977502645561,-0.03804925657146755,0.02433832938708852,0.04512620115434746,-0.005541652349200692,-0.21197426050880294,-0.1487769454508388,0.22715165568491585,0.5283061607258555,0.4173781577038985,-0.17687713707378627,0.12906801369527232,0.13253945610497492,-0.010435602289545246,-0.1558296162252037,-0.16787289562222726
227.96214294433594,1.160308837890625,-0.16010256864816522,-0.02193011341469787,-0.0009453027603721,0.3047408347700778,0.3380698944762607,0.0770173061608895,0.3151223958228381,0.035260524281523875,0.09307944273672483,0.2996234461981002,-0.09570890709076335,-0.2321633148588957,0.14532308693085508,-0.004389981164002294,-0.016142589234291092,0.09419902770754009,-0.009137722925117046,0.009935785407850999,0.009776158749789087,0.03527827835784281,-0.030947812836302626,-0.020031999962915804,-0.02869754808418231,-0.0733171467332245,0.013415875697363865,-0.7722653644414016,-0.03880323516256986,0.09218160267983329,0.03173754321573781,0.08312261229724255,-0.21838014129567135,-0.4296370960526257,-0.08805182968076739,-0.09564668015786523,-0.016362199271308317,-0.05015724636159698,-0.13555491742174558,0.5720404204015108,-0.15522243508222222,0.19535044372891974,-0.037509855089899735,-0.25296416689046797,0.216195307790108,1.2887416949055068,0.22719421789723088,0.21966741978875556,-0.037705016808648906,-0.3126159105590099,0.5335474743527968,-0.15241472146006477,-0.08705479300505754,-0.26294157705598803,-0.1044003288735814,-0.015161077426814244,-0.12904091610420115,-0.060344467350574776,0.03948606437426079,-0.0584768604477722,0.043122425301553725,-0.010215451949988859,0.018990492095677554,-0.014598841193080362,0.13002400612211412,-0.096310260231883,-0.0806110118367851,-0.1583843130921097,0.062231686784687074,0.03179696938026078,0.16490727658091536,-0.14747757129269046,-0.09203050447183825,0.05846874161312153,-0.041873140663900014,-0.06396595749648747,-0.03880058173706489,0.06300436590005692,0.09988972301081053,-0.05537669628411342,0.029508152738184797,0.17196060915511113,0.06855915103633407,-0.023020443876649428,-0.10140369707709639,0.10579311937589009,0.10388373836759751,-0.01647259869006839,-0.03445068089530091,0.04098029979241839,0.019458927690944094,-0.2907097355402925,0.03661652588774973,0.09681770245252119,0.06338067407873357,0.18502967890337,0.09681874405213088,0.041591744486121886,-0.0747642700854175,-0.2386522185309464,-0.0751871743506518,-0.007879027099186808
229.12245178222656,1.279205322265625,-0.11922652431477965,-0.24984823757872057,-0.25025087770037724,-0.16031348012609856,-0.09387304745078057,-0.21007376827731294,0.1665984600617146,0.14816535707665862,-0.011437733078551159,-0.060929674398862425,-0.04009200653019851,0.224396873525323,0.028995706515303248,-0.06344733312066934,0.03869460887019341,-0.02039734804673422,0.005330223442675558,-0.0026386164179306253,-0.10567687819561863,-0.08198331939532348,-0.19172366006697378,0.15599565801166262,-0.3494376733715519,-0.012277655766913708,-0.0826340824515274,-0.06861066799589012,0.044810985534973154,0.0586788520735022,0.13823061389758406,0.1534465481050965,-0.006573366416737808,0.22210161724565883,-0.2882267637216865,0.02053421433724326,0.2765491108907388,0.04246902008611003,0.49743683095263086,0.01963363042034311,0.462458585884266,-0.16276835111925547,-0.2765187686624966,0.026315197087087128,1.3614561774259597,-0.0016151735334951345,-0.2533363178043966,-0.2874110685497894,0.4997583675580657,-0.14421648584873512,0.09987000218692457,0.08345076942319046,-0.2673505641945708,-0.024158593670116593,-0.051456533492360956,0.02408508539802665,-0.09091613655519014,-0.08546394398734601,0.17459581000282473,0.36699501323856054,0.10737557990373137,-0.0688916896371991,-0.04877898813456223,0.09553003388986059,-0.2143401227491698,-0.0866514692624691,0.06178482466769136,-0.0656364975819228,0.14212060501419577,-0.016081579856458857,-0.252151864061272,-0.06167307594685996,-0.09646590214976636,-0.015089403772301627,-0.07079256065735363,-0.11094477805472419,-0.06982263534204061,0.11384682604788153,0.18157062380189312,0.28967187917097753,0.17213732151107553,0.023127629028180198,-0.022238286386680524,0.018295604665408263,-0.009172552039507854,-0.015369515772162229,0.09672345791093431,-0.11228991812316234,0.03783130141559782,-0.029900549761039313,0.02913778101819974,0.008747890261725075,0.031243005556587544,-0.042954963030976595,-0.09459297602468339,-0.03943278360134972,0.23652038409384327,0.4707032634892167,0.08330230974502668,-0.2949929352134111,0.11845080443886366,0.346279435640249
233.7215576171875,1.1097869873046875,0.1710806431914423,0.5281716313341983,0.09690808831867487,0.5259528606101508,-0.2650211575978012,-0.09173762291149545,0.031019513495270178,0.11471909086288563,0.06956406605609411,-0.08775239512390284,0.056664934201085815,-0.030646432172968197,-0.0928352642523401,-0.059777303489252365,-0.15641255052644834,0.1396877266847206,-0.4899887652260151,-0.22567045006629258,-0.19229394569368852,0.2002061825869667,0.24540140667350832,0.04033441329407578,-0.04524853278931192,0.029562812412635624,0.1436917283462269,-0.44076879700720517,-0.07841896840194863,0.38897627216346187,-0.03613398591323912,-0.013391376679881857,-0.1698713339317268,-0.15121009033919292,-0.11637024498163878,0.23199613772743372,0.19363384147962814,-0.736209400151046,0.5846570257456584,-0.14311195272271748,0.2435023742081124,-1.2833237583710784,-0.4127924418616176,-1.2039713074982885,0.9146208287685029,0.24430152024673463,0.6314234987822491,0.11893928029717976,-0.34625066247033043,0.5492277707116804,0.3797982396127347,-0.30426147548266547,0.619895650491149,0.01947481330196806,-0.0302896762010772,-0.0955573592369627,-0.020586135339823133,0.22336747489248612,0.0018880010703289968,0.03584892287455921,-0.03465592786072346,0.2244593038112914,0.5951333527203655,0.21522748282032353,0.031153419536146663,0.13124112151072445,0.014275319947285214,-0.1767442815801328,-0.2502599757665729,0.1530008843882809,-0.16232083681094686,-0.06316613950159823,0.1821706227189288,-0.03295243176662247,-0.21498662302604632,0.04759823433333554,0.15862927107522562,-0.1457337733388889,-0.19698742611072984,-0.11392571576330665,-0.01987958543300379,-0.09987297106424621,-0.09750687628150732,-0.13461679456325076,0.0031207124200208214,0.06618500877828258,0.014664506922958035,0.06650810481220341,0.09979390039425165,0.2564362136413437,0.19204906386363382,0.08639616579216423,-0.22853272855502899,0.187865909336199,-0.019960858084705962,0.04764866508413085,-0.1894436017852924,0.14924507745114599,0.11960954002635261,-0.04065042823830804,-0.1238679271384993,0.05117745519174076
234.8313446044922,1.129608154296875,-0.07688308905463787,0.19247294432459827,0.09630635639683721,-0.14763143806801182,0.19838650024910082,-0.402440194307882,-0.27614731160347,0.6867953807307607,-0.10660963867325683,-0.029010575491445287,0.211240279770114,0.3548892217969918,-0.08442307143293826,0.005441156482642869,0.01899152003618865,0.06617468444226147,-0.06827587580153398,-0.00927656985360873,-0.02610621808182898,-0.06766523512431455,0.02408149061144184,-0.03979261219580965,0.01534899138434761,0.16929518562340418,-0.1427964757101595,-0.10698663077041813,0.11303469871687298,-0.030582117137859157,-0.0114647158413527,-0.02214559510629528,-0.015153636768289982,0.08963703147131874,0.06995162176287614,0.14114946004612525,-0.25708341579190397,-0.0414093977234974,0.16747295707707813,-0.016865991298711715,-0.32557797862365456,0.1368901130542218,-0.1316302089075058,0.19077101478715341,-0.32013935417277883,0.014210332254629449,-0.212134378485458,0.039469740802934736,0.935998431153347,-0.22512786876491275,-0.5080252075992622,0.6342199656424585,-0.2990082518458927,0.07303581977139172,-0.2107455178308384,-0.09589117739208258,-0.05666802442137002,0.0946399709581641,0.015556788642484509,0.06005239489953234,-0.001376525745682812,-0.06124899899773359,0.06514338750523856,0.005834756688869205,0.04786062449281603,-0.007342794500276131,-0.011951498508804833,-0.2316164252099049,-0.06872868882850075,0.10769458706320006,0.031949079012500325,0.03056719722132986,0.09950890735810843,0.10509863577669952,0.07576959791828797,0.09181185144066877,0.029880115137447524,-0.05274758174000696,0.08887877089839427,-0.2168663440812414,-0.04610404782835973,-0.09095533639052532,-0.07510047934643564,0.034952599691663075,-0.08671350109962571,-0.15566849786903486,-0.037503477480356366,-0.3024288155793711,-0.201759429611345,0.12504911075307013,0.06259461154849659,-0.04033013786294873,0.27884046070419993,0.3878025245231805,-0.013187895108203751,-0.07122325421512746,-0.000741952514347028,-0.01680019721366184,-0.21198314882084995,-0.29315737752395404,0.025616877194200735,-0.30257876397328554
235.96095275878906,2.289703369140625,-0.2032479742319451,0.008452293230033821,-0.17450779628281368,0.14679817963088138,0.8985746833171392,0.8204088535452602,0.31136106600009594,-0.028464556774781664,-0.08767356630255121,0.1843905401783688,0.6617109808746073,0.22535435371002188,-0.40635939369440016,-0.07792922959448668,-0.03278820793460133,0.0808213197801278,0.004371023753779956,0.03306469605257521,0.02074407461866353,0.02200002024987295,-0.030264306115907167,-0.0784323297302017,0.08559567161088424,-1.4433200274263647e-05,0.12230101702003476,0.18132419581807288,0.22532996501931532,-0.06205553129453233,-0.01696263197456679,-0.14142396020719872,-0.03466514118148827,-0.045586651770066766,0.10187844677004516,-0.07997419315174467,0.05870614079477335,0.04639075391124686,0.21058861099877343,-0.303735772225187,-0.21756996234539255,0.3637093404030264,-0.12770624390193058,-0.2250569326062594,0.04397848716141497,0.1128755682083821,-0.2313200182984139,0.027287055283477073,0.5906790640996019,-0.2192360476423417,0.011002461225705234,1.2540641609949144,0.4574589222792732,0.0055157839254943095,0.24513970456457168,0.0014574438435383285,-0.027813966103818283,-0.0068009716015108345,-0.03714565495354457,-0.05004094292090516,-0.015254016541273882,-0.0034161802410786132,-0.062451799243549155,0.11484598353026938,-0.1207035678835332,-0.2912023309394265,-0.1474456114597144,-0.596321472413925,-0.3175255942582275,0.06283907856516557,-0.0672324307352902,-0.10635858941389587,0.02805040068202297,-0.2170111078529977,0.08114076286214567,0.11051125846983423,0.11058656769961202,-0.06610729289636312,-0.1342157922013002,-0.2085165170703396,-0.08368546776856163,0.09795821993191424,0.318816512091606,0.030091520927336052,0.025212889264515332,-0.10108995057064224,-0.03099400972306103,-0.04185456388033312,-0.053522614738187285,0.01053458985423938,0.10954006864425472,0.34491538623778306,-0.2684564032792535,-0.007821503474816595,0.09192598155767753,-0.014428363485046156,0.12701051729928048,0.02542388098833323,-0.1551651566134812,0.21200618643895078,0.15136983219653316,-0.15987056776176992
240.38055419921875,1.0797882080078125,0.7922707095195741,-0.20534010101627218,-0.18502482538744297,0.4851406963874977,0.09174119481262691,-0.15282311269363857,0.26412418274072347,-0.14259401487904563,0.08819538220202851,-0.6406514401216432,-0.15454085325154845,0.13129425898430414,-0.15145365678804887,0.06058926518884935,0.06742968238304758,-0.011849268774965921,0.0009548767198712331,-0.028385420920003582,-0.0653289267902886,0.06568354945650005,-9.701723750651735e-05,-0.057864685686805285,-0.03814424155100553,-0.03251939224547486,-0.018073812280416338,-0.12374253115966137,-0.0705217829204502,0.06367584904223,0.019287253059224213,-0.018681379870016376,-0.2282566074216777,0.035250033812517415,0.04575257190782576,-0.00891465382205417,0.21622062453912533,-0.021390549026861216,0.18286867683075686,0.12047125117947385,-0.32826876016825823,0.6654493934498196,0.20832976335229028,-0.46934253464367054,0.2252544558281088,0.1051057237249112,-0.2480102844156375,0.1874104568034533,-0.5504710225976042,0.23819839127394166,-0.13217582301260777,0.1776505941691874,-0.5608876915460361,-0.2926802157938365,0.2406273523553992,-0.07402969045089997,-0.021044322621895706,-0.018700003415175248,0.004342893746353034,0.06387935619577308,-0.01693246139468054,0.042252899808506716,0.060066066698847634,-0.18947316473240364,0.24089078398704444,-0.47243725589759183,-0.35601572497253287,-0.09017013513047521,0.12641967049503772,0.1278976425931742,-0.10755548836869276,-0.2713251286174498,-0.09854187758206169,0.1104939193726484,0.1457641382040742,0.09490415979665474,0.016073894786054282,-0.10533578822383571,0.13889987623101868,0.1329568667502573,0.14888431539042052,-0.23201118744166788,-0.052858432312365485,0.09799280804482337,-0.10046842610132167,-0.2527000052770178,0.0812796784139983,-0.06878244781341693,-0.006746930191817482,0.17693970058369748,0.06861736233083202,-0.09938927767392348,-0.08164451795779396,0.27992420159531706,0.027782103306867215,0.07095871361830847,0.178321176143958,-0.16194847291996983,-0.08659886534643543,0.33819773757274363,0.03681044841621273,-0.17351644808846875
241.46034240722656,1.079803466796875,-0.013046389884451282,-0.7520540559585724,0.0637641875461118,0.060689898429538314,0.0684202414625094,0.19305897067301,0.026064673828068124,0.09005446977331977,-0.1346464269166026,0.23141585280303154,-0.26433780868660917,-0.4360612175293598,0.4916335399899682,-0.041110738064813995,-0.12022654963605926,0.07669882707686351,0.030785359668841043,-0.08473926273001658,-0.06135141803481279,-0.020849226221175018,-0.06765830105886161,-0.0769538252361385,0.21231214135179569,0.44693177166844156,-0.09101056827880159,0.07745757576404946,0.14256584752677787,0.44598486426442757,0.4036386497146648,-0.07480767645870084,-0.7334992201084328,-0.2829384108038421,0.35455002934332647,0.03336081551843408,-0.430020295850666,-0.02626164535139991,0.15051134692998888,0.2937625281080912,0.21072403261164896,-0.08664964897717514,1.6285391050157165,-0.4787417248134465,0.7639875036263803,0.6055125143139991,0.4024138491653845,-0.11384153190240977,-0.28438925672170656,0.19236797290409663,-0.11869933009608018,0.11959466287595508,-0.307974065540677,0.02020272956707609,-0.01575414165768539,-0.0877448904042262,0.025408177115983775,-0.024960045130021258,-0.033438814480966556,-0.06856819646986008,-0.038767237369841986,-0.014707027844618905,-0.018957359490792053,0.05564509606892048,0.20829534792917562,0.07433120085672214,-0.16901297914705496,0.07037650482023068,0.2754372532690076,-0.25038850004893465,-0.16899554226905023,0.14745258380901227,-0.01909226486894974,-0.027104878318697272,-0.05526004823165988,0.008641371261414933,-0.04361761786382925,-0.0171733930128415,0.06080448160575038,-0.1549415244148697,-0.12006039039092657,0.1365645656948588,0.008853392511651226,0.07707566878112163,-0.01883993767942382,-0.041051624063521974,-0.026736848926670272,0.028168056493509768,0.03010489509443769,0.055953704877959816,0.14219440541422662,0.13674686771913452,-0.24081046905488224,0.25651833406764607,-0.03710345981501062,-0.018437696349373624,-0.042344804432231924,0.25620206476598284,0.059772217401873384,-0.07097877784250896,-0.41046533688390274,-0.2422777232135499
242.54014587402344,1.14990234375,-0.2588117795124628,0.07330906650250327,-0.553680202003628,-1.2387304480135424,-0.05699234223698909,0.23164762825218527,-0.11507681310955807,-0.7908153442863081,-0.22920476893334374,0.10640153534714977,-0.04021865347637983,0.15915136714062425,0.00844053995832576,0.11916775608307474,0.11324349276079397,0.013263924070166952,-0.015091775996494182,-0.03821449413605671,-0.10006242362643847,0.13058301963391675,0.15311430532423714,0.07573556985627566,-0.2517108625498569,-0.16666949379327253,0.3666974515009244,-0.022522074812681526,0.11428768112082216,0.12255688004105936,0.4993551677899825,-0.19213836039303026,-0.2478169366364818,-0.4195134199209551,0.265959668037547,-0.053205355611053134,0.2134644468210952,-1.273923622307842,-0.10141985773400441,0.057613606876168816,0.5932207349980341,-0.2481850662799299,-0.43705480187529216,0.2114998151161606,-0.7520536834239155,0.3871555530637897,0.2837359944115018,0.04496300090832759,0.7670574948844653,-0.6078323594044646,0.10233867521948625,0.08806548814347609,-0.12768162351925777,0.49755686896662427,0.1602040980011817,-0.09694798969958418,0.050956067352401296,0.06412827768191616,0.094002258270896,0.050568832898997905,0.10813786259426932,0.03046560986947068,0.2695393142257319,0.3779550423779541,-0.10581149635608526,-0.020325966626643655,-0.1872950475606357,-0.048807714959218235,-0.3426140697965352,-0.22420859222758843,0.0935218450730083,-0.13258728855831986,-0.03484592211681342,0.0747009457365543,-0.06971726837447308,-0.08620722603958027,-0.11379431846301162,0.08261082434666842,0.1846912590485163,-0.07763364946559921,0.05519373220252743,0.09196415477623957,0.060259856907991086,-0.01676022126974201,-0.20347085857001015,-0.05519539441499069,-0.003926160930809691,0.07776784202583395,-0.05657449911067724,0.027798939524868803,0.0964999138772269,0.003363099542733672,-0.03149344533635442,-0.04861731680497759,-0.016313379897370212,0.10725037188841743,0.13008988777266328,-0.2648148629756122,-0.07275897502989806,0.22263236862595165,0.08779306142375282,-0.03539943360617903
243.69004821777344,1.2993011474609375,-0.0553237439813517,-0.06346842856790211,0.03321238559689807,-0.34469934560721627,-0.02932496711767995,0.509877862784741,0.26761793158767344,-0.37223625717425907,0.055958528470824075,-0.12116863196457844,0.09319510953759289,-0.6898262792491818,-0.2338493778941823,0.1705420629474656,-0.014818076221709296,0.0038044180038317625,-0.02081488700438613,0.058100921399265724,0.028105838236153785,-0.10173516718360416,0.11411614398432027,0.040249427699865926,0.08779630936295085,0.1127541451793829,-0.12011108569639223,0.4925569946663816,0.05955132225368476,0.03021676511115142,-0.025105419344172337,-0.2836277288149267,-0.304490869489809,0.3912737303398197,-0.04259968509402755,-0.1747307724131701,-0.17973911452898628,0.46948166043599104,-0.27454779226769094,-0.03222472199055604,0.1569480344461513,0.16484277283983068,-0.04441844981728117,-0.2357721924716224,-0.15139324087141093,0.17276510389070973,-0.48294925981113024,0.6809106799559412,0.13321284353401613,0.07407630432758314,-0.030950015352211424,0.20982706659213224,-0.1280518847024449,-0.0342456500197457,-0.17426477565313264,0.15923679868370524,-0.04650057838398004,-0.08679865805458244,0.06643434996675297,0.10962891909770786,0.09438206421283715,0.15724600337683853,0.0840589350151469,-0.0010499773659226929,0.13016531361674458,0.051674273193550994,-0.038068829546941935,0.12629262167518335,0.11100875264580658,0.12216793813239693,-0.08563412394074751,-0.15179725981641595,-0.06983040807215256,0.058033531420149796,0.01655582414734663,-0.08505186113635849,-0.025525445705443156,-0.06401358048060377,-0.08787673367760537,0.007712169956296581,-0.07155387815588483,0.22595272060747876,0.11453732060475472,-0.14577330027716473,0.11611862790283015,0.03933833113277947,-0.16924645743416059,0.09808964225457309,-0.006636671723033394,0.013820691216767322,-0.0066145703335184665,0.05262800432849035,-0.1119743534879776,0.3195305117939234,0.18888727962861132,-0.155772073037018,-0.1835788210937141,-0.07784159120247722,-0.31616876559148505,-0.188785686686759,0.020088613044485976,0.02559699010673072
244.98934936523438,1.1703033447265625,0.05407614978980779,-0.060838854603037604,0.40177763047855797,0.032854740429160645,0.5342694042118135,1.5513467391994114,0.23526677399567722,0.10293102580874638,0.09266187211884622,0.4281613652356132,0.7622829537093432,0.628016021618569,-0.061859389427864855,-0.03682659428054756,-0.08460738464130757,0.014278474152058102,0.2817205588659234,0.0579998726851154,0.02819776249641823,-0.07768398920799334,-0.10543642653090073,-0.10115038769448512,-0.15476388159580937,0.044798400374335384,0.07485275630179555,0.01211696202344964,-0.0098311917942362,0.14671906619907538,-0.1422670864286376,-0.11173155567468479,-0.07309752730565873,-0.1054332100553408,-0.09954742420378171,-0.26458563999358414,-0.2122202414812582,0.21373032764159633,0.10381596005937574,-0.3127580915206021,0.10979652477861107,-0.20414667418930546,-0.14577746279342077,0.04017494453918012,0.039339379705932986,0.1151388021804797,0.16789542251891296,0.055088123002209,-0.009426039310411204,0.05024358568281816,0.042187259458430576,0.035137606345378214,0.1350989453612199,0.04802252669397197,0.07783673242912854,0.07873292949236284,-0.07761462412938892,-0.14893471447366816,-0.05818981126290005,0.2745206847904434,0.015073824366412053,0.11637258075929534,0.239156182917335,0.0683627588397105,0.10525230097713195,0.0022510716233997714,0.061219335627935585,0.026301056635264344,-0.05496476919476942,-0.11483375810729626,0.04842282894459226,0.040876089600814056,-0.08105062651629677,-0.016641641460768075,0.007352126809509773,-0.008763452313369864,-0.17515782230671526,-0.2575426307919303,-0.19424605078541488,-0.0013298049457370932,0.22881928587633982,0.26516499225328455,-0.03995961620889818,-0.19437293008871398,-0.09332476319712511,0.1393686926664914,-0.002933389457541326,-0.06817619048334389,0.0627686027661976,-0.11978977880102196,-0.04006412541416284,-0.11675851630293417,-0.02200871977104217,-0.08993795639216204,-0.05688751566643529,0.33332948191137035,0.0010657827442853457,-0.11379351035762598,0.01621173601680567,-0.22477956800351084,-0.07344811561475172,0.12268580759329968
246.15965270996094,1.07989501953125,0.1398678866028019,0.17160025498271664,0.030553732242454164,0.22207443277606376,0.04715731652663924,0.18232969746828548,0.30118494066234286,-0.02038230383789506,0.10197393008834246,-0.03508245365901487,-0.008338544692566039,-0.010089065035355851,0.11488679070341427,-0.14540294127492312,0.09304556571137941,0.20623980489887514,0.04595566147075707,-0.07725008819923876,-0.10827537348880337,-0.05931984788486839,-0.02232223277922202,0.005366518540733403,0.017807224043073028,-0.06775752681630001,0.033809546594518895,-0.04752118758388931,-0.2361802812454442,0.03695253898235068,0.17292423382060426,0.02072928246779171,0.20209995377430215,-0.03718475488849211,-0.017349046572950208,-0.05322854072181911,-0.17318713680084505,0.3031166197936868,0.019918216288205993,0.06384969438964821,-0.06039917882142916,0.21342400003557607,0.16401937751100396,0.269000201232984,-0.04482029463933152,-0.7107321903945775,-0.2103993186342552,-2.197409895652674,-0.13013459255315837,0.8184788326490954,-1.074215074890117,-0.5661656928554496,0.6668851948333705,-0.6452277000550835,-0.8257387690955426,0.17794142595033627,-0.11069412675020397,0.017728145560141753,-0.09213379768703163,-0.17660898258037966,0.1122482850904119,-0.11553699734589469,0.10905315434474294,0.02599663658602023,-0.023718931676939874,-0.011470905679738824,-0.17960799587501275,0.05520142334008817,-0.11514125320179987,-0.15920855259267147,-0.02049138519417723,0.08277179124416306,0.117808785773473,0.11394892001843905,0.0917730958786624,0.12111499801645931,-0.011406029355566345,-0.010025981122632732,-0.08093516810425098,-0.01116951810934569,0.15774045650427598,0.046204994654126086,-0.07238758460041005,0.09145944860178193,-0.18580123203338822,-0.0933186445025176,0.028738156264611736,-0.016812834635453806,0.10485960669858849,0.029715595824348656,-0.018135309291023194,-0.2986104517672447,0.042886365394145934,-0.6000785998254804,0.01668314093944076,0.08228745252701962,-0.03806201059804102,0.020990651034057284,-0.132232124931741,0.12068581314170768,-0.15874731099357314,-0.05385539945226301
247.2395477294922,1.099700927734375,-0.0373884214811923,0.31934007995014774,0.42690914530594054,0.08970927341408522,-0.12853218258404228,-0.23697662763002947,-0.17433099018607456,0.712286212901529,0.8506497523272252,0.19501844504153729,-0.10056293882895889,0.35954200508052275,0.14015263435603006,-0.01762469470001858,0.30957281065394593,-0.0005708385572062991,0.11019789712184301,0.07106652166322633,-0.08277536207326525,0.024802473761261472,-0.07085699124147692,-0.014157579719394207,-0.04377056047736206,-0.07751443729988317,0.09014463555454355,-0.07227684919079969,0.1617541902451192,0.1512878748818341,-0.3478231816577179,0.042332784920815957,-0.0509464136355406,-0.018247837590507788,0.044608969349404094,0.2324865841993758,0.8900858353265056,0.6972366115850801,0.18853634054312687,-0.4524160667648743,0.9962468558327217,-0.4208551091868989,-0.01622397456766398,0.26250104607795616,-1.0568673200387284,0.4406298353078047,-0.08402096833035794,0.39516712070056714,0.013785403827560001,-0.3035655482609122,1.248629430137962,1.1148395953038241,-0.11614703935714546,-0.1831755266973964,-0.036170866403198255,0.0366057601173618,0.018370379968211992,-0.002320869530494405,-0.01875891316896068,0.04408605333165446,0.01809963018266695,-0.0442014855155248,0.13394845140084857,-0.08026905330152538,0.04671239869822402,0.013093789566986737,-0.05339358050942681,-0.13759687948754656,-0.12466357995609892,-0.0013222080029214114,-0.004933873674519973,-0.23397462671918173,0.1682563932561329,-0.0234794853321086,-0.16992200172237232,0.13324418996439213,0.009940211312261141,-0.12246551014440964,0.02508430912768419,0.0018839446162861098,0.17597357318551435,0.0485973378144145,0.06498499834674144,-0.00913829031834244,0.11657157742225535,-0.07948258400278033,0.14763684161903287,0.08407032691903571,-0.11349072559520702,0.08776920868008005,0.0930588296278091,0.15324968541754413,-0.0299885706706102,-0.03819782884039769,0.28756216823346786,0.21720039281471717,-0.08887665033783035,-0.06475963415259031,0.0953819648602282,0.09956693340363068,-0.17291560880375564,-0.024240256551624345
248.33924865722656,1.07940673828125,-0.004410242300421419,0.21336936665560613,-0.4219522771682992,0.507998273635959,0.7250921976201428,-0.29153243367836024,-0.2595388454346339,0.7081956063108708,0.5185009227690657,-0.016044701541470974,0.0840932241412449,-0.42856443660568677,-0.1922896744344335,-0.010679745257890332,-0.039025283374441465,-0.00575613599699356,0.04800862899261825,0.02845475990044928,-0.04043111412177038,0.16178154992695717,-0.05604060974065117,0.2884089832961024,-0.19436089777921828,-0.12097460497046163,-0.013800847567063873,0.05419234183275328,-0.01866995930660694,0.01661171108277246,-0.17792065865981432,-0.0035287631637320044,-0.3899602270251821,-0.09713508893333557,-0.07783221498075052,0.24041860805485785,0.4411137370269616,0.009018896303973303,-0.10291249647587992,-0.3983910686853494,-0.1670237185045285,0.006070202285576018,-0.3408586281217866,-0.4492189057171894,-0.7794468312045202,-0.4127355268220257,0.22677102594070406,-0.44507369857722456,0.11319863088804921,0.6850975603612064,1.1657671277909143,0.17750206685882533,0.024732538139764063,0.008716472103745468,-0.03537214814904127,-0.006414088783805067,-0.10556788270075297,0.0312521487610988,-0.025968234167316702,0.018746437501899926,0.01669361434657683,0.03222792599797003,-0.12743438568847074,-0.06566452732094229,0.18914961108805584,-0.09642188982362282,0.2014853272677853,-0.002383789797145333,-0.06758583568564447,0.09494985169702272,0.05081535674844399,-0.19948761561210088,-0.0834279179236081,0.03798209544294405,0.0009971330500515687,0.16840706157040192,-0.03139574644039132,0.07719451514032023,0.16844021454542968,0.004966218419528642,-0.06960640948314821,0.03777296400805063,0.01653789978231173,-0.00836656823674864,-0.06394001241049385,-0.007575666165117429,-0.054495822975026156,-0.10692226244389381,-0.13778530731226768,0.22931949390026043,-0.11967134953788715,-0.13139439551842108,-0.30075472662099606,-0.07247941971545861,-0.08378699818108018,-0.07346852137691856,0.05977079920742221,0.04983190689066861,0.03780620826796509,0.13422930855083204,0.442359029178135,0.04940817391647576
249.4186553955078,1.1201934814453125,0.03081761788230719,-0.25945349062444456,0.03692218339129704,-0.1949097120851409,-0.3038987411114329,0.8159165772781677,0.21382901438325963,-0.3548621376277674,0.1107618625601143,-0.40152226726367757,0.015051130288794175,-0.42650442707169245,-0.3769294813959373,-0.027481059386636572,-0.0004806180995321938,-0.08286170464816613,-0.02315086817436637,0.0023892094624070187,0.11696035416062517,0.14084656161042455,0.12236398779228427,-0.12704268067669336,-0.02617424616610653,-0.05982183985625893,-0.007575399481290749,-0.06847541123940627,0.03593338130570751,-0.03127519051471053,-0.19942622064129129,-0.23857856238097092,-0.32591745737315975,0.5127914803992304,0.08308377093038224,-0.1243289565526075,-0.01680886486950456,-1.0640752973080487,0.13475650813927054,0.05521052726600244,-0.04275031100849553,0.004532150748091653,0.35747745985678897,0.29778950162518303,0.6086240865258863,-0.008164615243408758,-0.04420131666167957,-0.29572741827693044,0.2335149516790829,0.2954349368777777,0.5129814552606037,-0.5850547818769272,0.5585004215914533,0.04531437331770452,-0.7476152658038805,0.14290284194495517,0.43867431444372457,0.12935048450656947,-0.0008005110529854392,0.03291002822354483,-0.020990373529638666,0.032136797423616276,0.008456381208859243,-0.0017658868686911506,0.11638928131576999,0.1630223145320432,0.18732878288301055,-0.1343809683594511,-0.15728309813360175,0.15709362584285655,0.15756233782339926,-0.11362712301161823,-0.09714276252563214,0.09119564219383866,-0.13170598032311873,-0.19768285042089337,0.2718265615068063,0.38965283955208224,0.03443698288674528,0.07978236060475477,0.1962905408031848,0.15366247744744052,-0.0051494793657435286,-0.0020642819341999408,0.07023789091563533,0.08699242365561081,-0.05257868841838747,-0.2358024627128168,-0.05520452423550164,0.028466686876408385,-0.04237307387201315,-0.05108508331821203,-0.2484355762474194,0.05531317132092084,-0.1469768883030098,0.1422378194548388,-0.057926576777770473,0.13319911471819418,-0.08053609638226862,0.08693728696651723,-0.005792525120876961,-0.05247809774957113
250.53884887695312,2.3798065185546875,-0.17121176597370663,0.20734951646680672,-0.06477921366106754,0.07928098256814037,-0.3732693101212321,0.13924965314377588,0.4999449217129995,-0.1526405388660107,0.014172388547199502,0.12997507719425797,0.008897896615571797,0.03580455484338003,0.3594928500297434,0.1626250815929593,0.02135479483459998,-0.00032408432405091336,-0.08453110202748422,-0.007857095412954124,0.09083945535809734,0.010214940219368359,-0.04936457271774836,-0.05866542665835134,-0.05179391590517847,0.013745622237800653,0.025355316712569527,0.15328782579903405,-0.44711525433269905,0.009414027512736525,0.10833278649381214,0.2125264764634256,0.16091286750072006,-0.4061174164731993,-0.5072519279362683,0.13090658786738404,0.07682347203037813,0.13711367499297655,1.0053514316763135,0.27826853416741515,0.1446115953815486,0.2628856942748862,-0.35362068852677225,-0.21490296713957857,0.4808452430964292,-0.2832130578915383,0.05140369818673692,0.23387259162299498,0.5705948296974668,0.2743943335769348,0.2649923092564219,-0.05728247704227676,0.5169470513504961,0.10214155276339498,0.1275161857373466,-0.030390985324571906,0.009572130231089292,-0.006525486717077799,-0.031891064761477135,-0.04820731126877419,0.027818407727265695,0.12205408638526705,-0.10940593952713056,-0.26098975718848116,0.045237385008886216,0.08611020938869815,-0.14410916467261192,0.3916098011943893,-0.1035431444975743,0.07732243426805939,0.011549915897134926,-0.15497521499985187,0.09442337892855099,0.14795464520044588,-0.06725067292910294,-0.15383395730173788,-0.10422060238420444,0.020011646703082316,-0.22708681331679265,-0.27698051049398126,0.1516284685190683,0.02011880654848626,-0.020734651501469487,0.034874993868081794,-0.13673148251435668,0.0022195493924810957,-0.04193488775419271,0.02463595282601369,0.021130444818247142,-0.0861357878466732,0.04346557704942934,-0.027003908369132846,-0.08908857960350551,0.10521630842146311,0.10690119792758929,-0.03003708964264831,-0.05304465532912047,0.33247515733567057,0.3024162884738057,-0.1183382913742431,-0.06392139865718581,0.005199633897414679
