start,duration,0,1,2,3,4,5,6,7,8,9,10,11,12,13,14,15,16,17,18,19,20,21,22,23,24,25,26,27,28,29,30,31,32,33,34,35,36,37,38,39,40,41,42,43,44,45,46,47,48,49,50,51,52,53,54,55,56,57,58,59,60,61,62,63,64,65,66,67,68,69,70,71,72,73,74,75,76,77,78,79,80,81,82,83,84,85,86,87,88,89,90,91,92,93,94,95,96,97,98,99
20.17799949645996,1.3197002410888672,0.43938778313913684,0.08400925851280017,-0.4053844140789722,-0.44862360072308755,0.7620328463629608,0.500861441971508,-0.13385991554877258,-0.11773834060829011,-0.12762973880666004,0.21944326196978126,-0.3950223660430715,0.04895314396919925,0.007744188489155646,-0.23752717646805788,-0.11751004606802669,0.16805315989135683,-0.2375245431876848,-0.14312757787196123,0.03143874001008389,0.053417523343734466,-0.030443524620036355,-0.004835464536301716,0.008398479931628873,-0.09929722695377838,0.00621957983931141,-0.11735467392518406,-0.00122790535175079,0.013388673085616342,-0.04283876390596211,-0.007549754219093298,0.0008821078246800378,0.002190233470240958,0.016526780184421032,0.030066043367830825,0.07655699363621193,0.05535367053961942,-0.023207656930451143,-0.0013466604437337541,-0.02141120887865939,-0.0038288020231335247,-0.005024089125181426,-0.0050954844527407355,0.009504983083973,-0.0012717274743492993,-0.14907972415251008,0.02606678668030744,0.003664539258888627,-0.0468970861455816,0.017222770275821597,-0.07300890970026676,0.0204578276664019,0.007191987104342027,-0.02652624134536022,-0.21162280436228215,0.13765016998923113,0.06827338284753558,0.09892850598447663,-0.019360868176455298,0.09270935692972897,-0.004351493511090723,0.05401362827596712,-0.011002499579525142,-0.04763454951855178,0.07473148238138838,0.0499570758273499,0.04570681643960851,0.038817413880043325,0.32829729976240957,0.14211430531567923,-0.06733639525171527,-0.021699608242438634,0.4629429838516695,-0.05754284610651657,0.2111424119401554,0.08543980401290144,0.3617219591498494,0.4656341047947533,0.24149975372404328,0.2188869437089339,0.2459713697460546,0.21574666310623244,0.27811418226441015,0.7495635233224808,0.15368355256231536,0.25709851798253913,-0.080702262752703,-0.14985404997941876,0.32182194369460193,0.4854780351664053,0.21303001119070417,-0.32773142551303963,-0.13175876874439718,-0.013276152780570483,0.09421883803729686,-0.02255844206243272,-0.006850204192722836,0.03507797951790299,-0.14708768267379246,0.6811899915295646,1.6277972120016195
21.497699737548828,1.2893009185791016,1.4239028772320674,0.08855583396079633,-1.0471865911581304,-0.3373600555587148,-0.5473829362623791,0.04932836615386842,0.006509360201081832,0.2276266819890032,-0.3786946739959649,-0.003746441152987834,-0.26417675187748707,-0.154300513714951,0.9136796898584381,0.005036034175068607,0.04703324553566454,0.06645335862216238,0.03377588322484543,0.12351216873270927,0.03346725365161122,-0.03539154870357075,0.062348880858256725,0.02546633868291571,0.03018849778414105,0.07225580344884344,-0.01654006205414756,0.07696917076368735,0.11857452811810064,-0.18080418062743892,-0.04411435219215113,-0.05146890310961118,-0.011148938104990014,-0.09242806826172649,-0.03880458035544491,0.014797405375365651,0.11934533097065858,0.03597326483466833,-0.08087569138891769,0.029642733337094676,0.06141321994057673,0.060540522818305194,0.0019502050886009781,0.0009082789757188757,-0.0015686549387619727,0.006499815361593387,-0.019697029539743876,-0.018331708726237367,0.09096885072937191,0.09113743717468761,0.11175973701686678,0.16630925820009593,0.0885550880309138,-0.001142046878222766,-0.02137254239935532,0.11126799562384349,0.3070561900263443,0.20914286608861057,0.09161570529429963,-0.08631941609611539,0.04921387022269313,0.08820195127583542,0.06339043097854363,0.013532235854353813,-0.026019638343472568,0.000723966136794547,-0.07447547304316751,-0.0602385040941034,-0.3236341204363719,0.025865428219180385,0.16325162240416657,0.008066448274686017,-0.15503501345028717,-0.3509036641648489,0.11691240255891716,0.20401124801361778,-0.025249107473410484,0.08837292816693457,-0.2041390265965171,0.026643687499457936,0.19278886441589216,-0.11611930366387735,0.5962236086687164,0.15522495620691965,0.5541110015773756,0.28797146793224393,0.46392185802668523,-0.06289474281425127,-0.04534761249065048,-0.1548753349199681,0.3812600347459589,0.21347524002665264,-0.037204539674188755,-0.42042703454098956,-0.020365097375042912,0.5041764179877362,0.11020691114447945,-0.05859640683403801,-0.26412934770768015,-0.3972645422399588,-0.29877983342099595,-0.4540847344196669
22.78700065612793,1.2888984680175781,-0.46299036587576237,-0.38832949820168505,-0.8568917113935873,-0.2362652676961251,-0.8558616171116341,0.14047765523280775,-0.17370205291911395,0.011259686837575387,0.6737733252392242,1.109847444760539,0.3270441700757542,0.30794600721775245,-0.21179725550900355,-0.06322085823293623,0.028327379165076202,-0.017851716349007184,0.03320708783971491,-0.00196344616338244,-0.09495352649344353,-0.03422507111427877,0.006758814841758779,0.015853753712126974,-0.0008944496894559098,-0.11367161327042893,-0.08886863695043251,-0.033068517563516,-0.0009850916316219563,0.039585430501242004,-0.05124205724415962,-0.036629215562417695,-0.06458493927774409,-0.06660467418537205,-0.04608742998302207,-0.11692575433771711,0.056454259269087925,-0.012740976690335496,-0.009560164442004443,-0.08572777036991702,-0.06206484298512175,0.10748624928845081,0.010517568251948273,0.04385680255642753,-0.06744953729623121,0.08576379334201462,-0.04260033019745411,0.031084847879175898,-0.016475384989621904,-0.06835016007055933,0.003407909118915338,-0.04061355987934617,0.00537181092539771,0.16053767698632795,0.09224944662849605,-0.036335362231105166,-0.04103526253217022,0.11710878228241851,0.1000525990250122,0.11433745318965548,0.015118482332818785,-0.06452441402556512,0.0342560979499033,-0.006243113876759496,0.02207466673753547,-0.05581648328284186,-0.12908692509124234,0.05782500065420703,-0.3212854375570001,-0.22039157331507767,0.0690605923106837,0.0438425529056252,0.1668550550924429,0.610217563944257,0.15027258317331318,0.10779739370512618,0.5071931325948549,0.16511303116937523,-0.032340074236210645,0.24533328219554756,-0.26880883876386685,0.29226765749081246,0.14556683516101485,-0.0484293221661515,0.02406427029069703,-0.07119548447933516,-0.47567006588751426,-0.09895159138815895,-0.023498238404433998,0.060149410645461115,0.02350385148672642,-0.08740959968813605,0.20433284435854895,0.9642191865086429,0.39760318179568,0.006667037162778387,0.17737636981282073,0.4155446448073877,0.2584853862083745,-0.2509255276834612,-0.22091534915499053,-0.16514352998432733
24.075899124145508,1.3192005157470703,-0.17028517380786135,0.12339290393933686,1.4203935665035643,0.4310379941230396,-0.10408111834724931,-0.7936147180055311,-0.02396604971470148,0.027303070319907155,-0.00749750869895157,-0.6346450213006587,-0.5084510831702941,0.1302055194747887,0.11434957071185994,0.07940742723030597,0.0014331418504878609,-0.022816140017424203,-0.050466796779088816,0.057697552624815754,0.08137103918031496,0.044350321988405474,-0.009994171030246041,-0.031990413037710136,0.06875114413639513,0.020535823992169234,0.003073510132689852,-0.0678536313340384,0.04872120005649769,-0.02586622481207032,0.11986709952205349,-0.0038190548445817124,0.012586785989318857,-0.003872055055485422,-0.08043996759023578,-0.0064074738808719,-0.009154463049445285,-0.01721725578061822,-0.0018478768588498652,-0.007701732982035498,-0.0372736494346425,-0.022484468001969307,0.1028590844489735,0.029974335176666346,-0.023793664341786536,-0.21671937764331298,0.15002455958959324,0.015507580181976805,-0.19479155041526122,0.03716580868160529,-0.05827063851896627,0.057504008757228706,-0.026219937395130233,-0.12210390313672904,0.10543169005368683,-0.1107367790540281,0.1255985365962884,-0.1746236928335242,-0.11036211806065852,-0.07518518600411221,0.053642279447209604,0.028609823007068807,-0.023268224719565904,-0.001240331552516502,0.14157963334868212,-0.25974307220699866,0.02837993076983135,0.38219807165554115,0.26370179943238503,0.44572644810271794,0.30079466706484137,0.4531024826850082,0.8434593414012682,0.5827840273171518,-0.5784673338364433,-0.3157163130644495,0.15556469922928992,0.012492024586531827,0.16536082887919856,-0.19291964048351223,-0.22963665157310265,0.12283076659186697,0.100549490926757,0.33602482159774294,0.17434131955615692,0.048265426828601216,-0.19511469761533576,0.09444869776137704,-0.0004501563896378649,-0.10656650139245089,0.019011472734406634,0.24776418802545933,-0.16889956742357093,-0.09904471577336743,0.15307355453364346,0.9312973240876168,0.1569541939919908,-0.3614283748605743,-0.2813171072379483,-0.3451132065903164,-0.26254068499860955,-0.6673894009390009
25.395099639892578,1.3387012481689453,-0.7921882865816035,-0.928069923201682,-0.9056055365179381,-0.7333465798032336,-0.6367431567972522,0.26613252006573035,0.06826635844317032,-0.04839129044792923,-0.2913225214390905,-0.586548696763138,-0.05217396567661539,-0.022084142407904333,-0.21746369914107028,0.05576754392896901,-0.017184305323099735,-0.010724872174206309,0.11389001839916235,0.007321073465910313,0.0038991211165468297,0.015482248192598483,0.08332410890019298,-0.002989020301878422,-0.01141697371825777,-0.019264753417245026,-0.018096797176077886,0.006303630373434494,0.05183961170464406,-0.054925667969873186,0.003059017922634237,0.03188127487596457,-0.11544563907267484,-0.049402328674109666,-0.01456426505971822,0.019631264713896594,0.10088469150047749,0.04806849428853377,0.05178648768435515,0.015348646601070604,-0.05942984262957135,-0.04759920036570185,0.07709511917833124,-0.06964580603439728,-0.17353377373783685,-0.05122908426369103,0.06713076191553863,0.002701629410685774,0.1059587504347066,0.029985795394477086,0.15951919250038515,0.18804587283835128,0.03189416665096577,0.18638245132736395,0.14989276743112387,0.10395324784147476,0.09501040843827102,-0.0876589060376087,0.05535456974303579,-0.045893391626464525,-0.04155476136856316,-0.002632992393415928,-0.011966542836950709,0.03136490041782675,-0.04857332739567816,-0.046048008054064,0.21592580003252806,0.042552893637184064,-0.08257523292148877,-0.14134058793765875,-0.13083092143519903,-0.012554618254403738,-0.03464364624894802,0.2060761300593856,0.07504551467042661,0.6430218080850247,0.3086522701445456,0.1243111897942732,0.6345531907309887,0.33200229695761346,-0.22257371131488754,-0.15820718208993698,-0.08996678518866592,0.1403058731108741,0.16172477707086133,-0.0915531901810367,0.050566855890595536,-0.08644964197089887,0.41548603495539055,0.1417607072294828,0.21035209037799837,0.22315832546203682,-0.19694187764078047,0.11237864252844401,0.616018241229857,0.2406372010714566,0.0008389154203490899,0.14274914038762165,0.1470236177107687,-0.01087516416744344,-0.12171585199986601,0.4469388164258785
26.733800888061523,1.37969970703125,0.5470986684221988,0.2120796971266355,0.010224097821618858,0.4382300532413819,-0.7699295602767662,0.06630703480882832,0.09682431437131822,-0.12190173545012621,-0.7091202136116044,0.10747123988475435,0.004433281740968312,0.15482883322246965,0.08987736613300959,0.05992253172598985,0.09438595600873013,0.05314907608244873,-0.06231345751006197,0.015677167590739276,-0.004022283741024914,0.05105105638128364,0.10085081075366628,0.010723250853688205,0.0008909353636995856,-0.007496290975695579,-0.057042157629075815,0.07569732222804879,0.013855555978751474,0.02388109984875132,-0.030596349056017547,0.01830245097308149,0.0006908884619140875,0.012307558509601831,-0.024741820595632597,-0.005780065262406533,0.0007599003191600667,-0.009861261495491385,0.014124958983646645,-0.05764323991980586,0.12330009879398668,-0.03712614996226476,0.013036219709070039,0.019503953608064055,0.00017744393798901985,0.020602174112874322,-0.0754281441674374,-0.08345258703035256,-0.058028861252441964,-0.14892330255037634,-0.04806049177218162,-0.058009294506618694,-0.19841776796967966,0.028197875002507162,0.01533209441478249,-0.011530686357281215,-0.09158879942540389,0.13438705394345862,0.03804131936458054,0.04389072339429352,0.07838426688038672,0.04122764110164083,-0.005055488648051346,0.006320670812674426,-0.04032034867107891,0.030026870876140612,0.21057327830003778,-0.3794512362569401,-0.7088868754381606,-0.09791485565786368,0.06121147238593128,0.0434529279138225,0.31028541995963754,0.571639472396115,0.02473851722919356,-0.10757149027492845,-0.3661814995551253,0.16556586739730783,0.0524016818219441,-0.48161171692184557,-0.2336865087678685,-0.677767694387924,-0.001941694858240868,-0.062080045909841265,0.26614192824890964,0.12310412798228207,-0.2976901630217153,0.10209131569944,0.6502921267998757,0.2418491394625844,0.18215610199472404,-0.0004802695610643601,0.3730984167611343,-0.03743569054602765,0.08426736720991446,0.2035017216066179,0.1046610168005187,0.41238798009288186,0.053503883537900934,-0.016399070079749608,0.2161430607582679,0.2853075570971542
28.113500595092773,1.559000015258789,0.08584960155763943,0.10408338010806167,0.4671835620620773,0.7129081765507729,1.1477849206698307,0.1858786498503353,-0.038517953183816976,-0.027524007255832,-0.2949931017969357,-0.1558665974427863,-0.022769939956974055,-0.09660946809097087,0.02617878039014221,0.02344364524667585,-0.10322582772596879,0.019625828623311893,0.15731565533434747,-0.01656922131720664,0.06136232432784277,0.006197282171517927,0.005788685869983682,0.013936497493729274,0.07789168866490025,0.08801069125394172,-0.02636347856075308,-0.019754858763171186,-0.005219312345455911,0.010616021414881039,0.037906217092028946,0.04339134597261471,0.0037114353589087594,0.09117686824856602,-0.007617729464875879,-0.0029564782864992946,0.021347650563788383,0.015521804569182526,0.0674534089634096,0.043764659509551565,0.03833897298012803,-0.01996578424199631,-0.06936017027882145,-0.06206891923695303,-0.022630708733524508,-0.04655645391895377,0.16971967486965953,0.08725407685711926,-0.03430079148916389,0.11977521388793631,-0.025222158011725546,0.054210118750853534,0.05540979870459985,0.04596285441798747,0.2011874412343711,0.12033068081537933,-0.11355892042267385,-0.017772239908586746,0.041797157709900896,-0.01877677881517866,-0.043609705879302386,0.00026373095496864756,-0.012000339415348145,-0.009022431831538015,0.18169074699768054,0.415478983229365,-0.03131425639050804,0.13444616407380547,0.21581224423725165,-0.10568594888707156,-0.14071118657619947,-0.0008413648239479488,0.1170895537792116,0.23804696759113134,-0.9320841929235559,-0.4673888263515501,-0.3245321371260461,0.7451614283742092,0.23769377990272475,0.007405505641837479,0.4501929284237005,-0.8895577312300768,-0.28289845110219275,0.4939002549951438,0.064040714755841,0.7538001731937013,-0.0691727054996189,0.5001599703478709,0.5692123188979931,0.042485113262648956,0.25711233694561453,0.37225698936528784,0.33393137544584894,0.3168188769953261,0.026143053688272716,0.7794668914347271,0.32536423771313755,0.341031153504874,0.06170179471229252,0.9478337219363099,-0.33351911458969863,-0.3085407010052782
29.672500610351562,1.3990001678466797,-0.31013837614682427,-0.4438037764227059,-1.2662290610770501,-0.8142815666882949,-0.176405088394624,-0.3988148209299643,-0.5548408087129503,-0.03949591744040455,-0.10978442551556017,-0.12705233222590534,0.10547739131106698,0.023168042654048846,0.054779836234981505,-0.014864810636677404,0.06543365772277272,-0.015813560253430295,0.03341227247639861,-0.01080705051506362,-0.004750943615120139,-0.04999244246703412,-0.026056516927862677,-0.03668388486222332,0.0312572817280683,0.06677829637353697,0.02351277465099262,-0.08689415071593203,0.0993714679803978,0.12008139061818049,0.05510180414143714,0.10420379293426245,-0.01864024494508753,-0.0333197318253469,0.08875548197356593,-0.15331359285792934,0.04374854242780238,-0.0477329062444493,-0.09035034045446579,0.04026846124196875,-0.007615049670930767,-0.1022647997995788,-0.009569519174916514,-0.07886331208376583,-0.033982561508008595,0.01234979127097087,-0.046024567375214646,-0.008134783537828203,-0.048010144583690434,0.05993217422779787,0.022602679965910533,0.012276525902620959,0.031910768312525435,0.05093071243551751,-0.047550396965124475,0.028376452900225727,-0.0019077248918037775,-0.03441091689739418,-0.11708207634016732,0.003736686140921529,0.055214316204421694,0.007448730480900952,0.04684128725148361,0.0026360358679338785,0.017040727085364846,0.040989757672498066,-0.002208596393682239,-0.0007622313716763402,0.338543630694058,0.06850367289818185,0.18495092476868258,0.02518136647947791,0.1817953623625868,0.21496498574343273,-0.09043974401251488,0.034096431804884406,-0.39868968961535056,-0.20725047212241623,-0.09547897218842505,-0.38516641185341,-0.3633305918671474,-0.21153555132496232,-0.06885724410083685,-0.38592517343982846,0.17047399161688725,-0.27816865919444606,-0.2552396078348038,0.1207233262239159,-0.06723600090017653,-0.1723008577524553,0.4863066581471815,0.07704151049399383,0.26334837273945133,-0.07496037731068918,-0.07083532668422056,0.03443733568205776,-0.1490070759341585,0.17578794842282677,0.12055364299880611,0.08715316725484436,-0.10555670775725821,-0.611511258789865
31.071500778198242,1.3393001556396484,-0.3715271529538539,-0.014554262732524168,-0.23471503859608503,-0.3516070649939728,-0.6045079494478023,-0.2407098429278926,-0.11663627982831187,0.24312201283591287,-0.08254065032637542,0.4221262076858144,0.08144130995112926,-0.11032768686565578,0.011142180424248685,0.02717782305757823,0.2045044679261225,0.24074687710144343,0.004717817645140021,0.04531253628879947,-0.04762519339424222,-0.03034456976525217,0.09216413327493043,0.02296742510206561,-0.12918389992437956,0.10884288988390008,-0.0004135098384690256,0.024406823135389243,-0.026114677637230674,-0.02054795393022955,0.023862201155780444,-0.07401603896325759,0.03341757847196524,0.08755593923255878,-0.016516498816168356,-0.0020080009864194663,-0.11716129804681845,0.03669489065690512,-0.060162494488064065,0.031220410826865785,0.0013621382085912824,-0.027141223010206328,-0.008467395693241153,-0.04750740751867505,0.01634890302910985,-0.0281707726813036,0.024015564049086047,-0.04507127250963344,-0.15498560660289695,0.05804350172174779,0.04656047056598478,-0.13484575943276778,0.022053262661196858,0.09888701417171081,0.04371052464956336,-0.06758747387211603,-0.015885184332053867,-0.030741158352392422,0.0005097055970109533,0.055984998952931346,0.04506022031371166,0.012590909917735328,0.015874319390444952,0.003298968090015335,0.029560684807677762,0.013402778826490455,-0.010043915507734258,-0.08775510734140295,0.40606359902518996,1.0062555767951378,0.030386151122382174,-0.0465799050969755,0.02270719211650929,0.18112775235892553,-0.005802881763142531,-0.010141629777531844,0.12067210242454486,-0.2596115027662831,-0.0731469699688442,-0.14087145494988737,-0.3507629822974392,0.47684792227635003,-0.04267144595667645,0.3724550788540514,0.3253733699834406,0.5035704844334773,0.30842821140642895,0.0930204295091539,-0.3285592940769251,-0.5081664940689917,-0.1988068600409801,-0.158742684686329,-0.1562149688989294,-0.1710524568716284,-0.41405282784923436,0.20715065110609954,0.4180214669723159,0.04175455823217779,-0.007104567637925333,-0.3447947919778142,-0.12492449890011603,0.05306189302891845
32.41080093383789,1.4086990356445312,0.045347833463413756,0.3411427940265711,-0.2856389982443508,-0.09811470758756366,-0.6216013680526931,-0.7421358146871537,0.24997111714531783,0.07792124266755393,0.2912266431293342,-0.2242254529544204,-0.5466895917556962,-0.11572686710218966,0.01605236721247158,-0.042349249389754554,-0.023160771317533205,0.1482041195327403,0.010097369627488632,0.11393560602101484,-0.06912185495217965,0.11369364940871729,0.1015984016400598,-0.011614580204867008,0.07304067260195529,0.009415418687327384,-0.02996381019295057,0.0532800225066155,0.07613684642389898,-0.04949873240357854,0.002156725374546438,0.013654858390136934,-0.020234422855755642,-0.13384433796246845,-0.1200617600873118,-0.022333122816663775,0.05363361167895508,0.016925126521542516,0.015326004070013687,0.03581400691715272,0.006243601071361564,0.04647390962088269,0.010575720825708079,-0.004516202222650419,0.008994945233480258,-0.04562227624477941,0.012760130758413906,-0.06196226837009622,0.03330922737019622,0.07900286954587474,0.08864789777383729,-0.06796337276230403,-0.209785937703324,-0.002279453740990164,0.025262402260881316,0.14917461742277377,0.14280325144745995,0.018129704370413578,-0.051078142717580106,-0.0049318415345629835,-0.016018514303495667,0.01875739137258075,-0.04566241665481352,-0.03189086241962928,-0.03818374379315345,0.03234046611397277,0.011540271257610278,0.051444174578683624,0.4200480105962538,0.8685821504858058,0.07535849435602635,-0.04495157538435606,0.045471594575944345,-0.0445491185011787,-0.0851565845046262,0.16968469739742925,0.40035687813217957,-0.2908467680789861,-0.484038897971059,0.13191407494231666,0.5506540136877962,0.11601057694377775,-0.06286922013824907,0.3616283324391558,-0.07394210359464921,0.305363552414152,0.1937104146195101,0.2935684747570426,0.25495421119474576,0.05619478104588811,-0.24972742636074208,0.12920413051510105,0.6557220761018007,0.06730608159563918,-0.11100396087495486,-0.08206963364247231,0.0193132447943123,0.2838340117315012,0.14706086545953245,0.18466533712479855,0.15898824842644252,0.14529831602056525
33.81949996948242,1.36920166015625,0.16982598499670742,-0.6200334626465343,-0.15662765095066564,0.3144600012484185,0.14463531550169365,-0.409905659026477,-0.1298688583157032,-0.08754440074247,-0.5633031650689211,0.5405458226343071,0.6894806592256619,0.21028412210543268,-0.011318014155655734,0.05749759940143849,0.0011307685368805596,0.04129360279916113,0.1077223026189822,-0.004047633321387281,0.12808577294140422,0.035392892584313204,0.007539032013819218,0.0028359122743302897,-0.002006105301355976,0.024810112143443357,-0.012534711090777296,-0.000529519860229009,-0.0576931483451117,-0.010856889205637633,-0.03455234549188265,-0.0982398021504347,0.058868905805236876,0.04115404062098815,-0.0032858978222144574,-0.12881524442700543,0.027955863085029502,0.049138468934149235,0.0023740563093788847,-0.12662682432196298,0.013138161740483115,0.07852840381540752,0.07919476281153336,-0.02917208041189237,0.10789305932286011,0.01004150780326349,-0.05420787113435533,0.030078598132189112,-0.013746869450535224,0.12113337110398352,-0.051158262346215636,0.03559460963464803,-0.04429909430322804,0.04700149323709088,-0.005324201993797475,0.09032516646489622,-0.01224182987844845,0.002978761252480304,0.027150017856358833,0.001255173078554972,0.0038422962358889232,0.016057685317003887,0.03519437349779861,0.004768042087936988,0.015679275209626753,0.023290197192228076,0.09249784875261363,0.0032810595056104036,-0.19599497871304866,0.03407515610679642,0.2970773556819657,0.12073292001191689,-0.04925298416117023,-0.14287608843603405,-0.3023257420021499,-0.5448938762427658,-0.07024726895173963,-0.10041416581755834,-0.13466580638970727,-0.2815466432645002,-0.26062151554470064,-0.08297955473248092,-0.25859851296425707,-0.23759324227236375,0.14878524907363855,-0.19171102983524355,-0.07090173336081135,-0.22286789776975974,-0.01190503944955972,-0.08683953642125924,-0.1354932090830967,-0.08586258375279558,0.23516573270894298,0.4579924903829645,0.07082950069591057,-0.03629734255815287,-0.47560441161337774,-0.314315280601846,0.0016739439701690638,-0.15146059863742808,-0.14204986553416138,0.68279876583599
35.18870162963867,1.3692970275878906,0.4297103046627404,0.1523278210865212,0.35571975758927055,0.9499556494045455,-0.22210091733603538,0.1689817051934987,-0.07214771885353986,-0.08550581927443439,0.14391603375729503,0.0992937986380436,-0.04612153459678199,-0.3055438671166124,-0.12530528999017326,-0.047011879365184764,0.012073815856070248,0.06002120064108614,0.013375762060460098,0.06760349792905415,0.010894958100762051,0.043504275223334644,0.010102893528030852,0.03760491328978072,-0.06849055462114337,-0.047095236440422954,-0.018906363656724066,0.0406940718799113,0.047053734890715966,-0.0011073477040844729,0.024817388025587927,0.032083242149499286,0.08324394147092078,0.00043872719693397274,0.009470870747130725,0.003627748250894217,-0.07755152630243059,0.058535284075428025,-0.04792351208301018,0.1021300365567036,-0.04084436873238426,0.003521567137862141,0.03255457389365463,0.02945747542838031,-0.1145739717062283,-0.0785631463303964,-0.08219435811687213,0.010145678789445289,-0.18747092347481598,-0.18213808734378556,0.15814183057375003,-0.006307854209103624,-0.13865312491154674,-0.004794016618221488,-0.043194508276094196,0.09779048957266631,0.14183316301845386,-0.04335877746502795,-0.006688659302643783,0.1321011608549351,0.022189727099770497,0.08366422323708705,0.0016002239295371,-0.020161767059771227,0.015796849413562127,-0.0733249767656777,0.08258086191849523,0.16706611501566931,-0.05912440899744468,-0.11660207603900208,0.40438303894602995,0.0904528068906442,0.107264497913839,0.008591589151770995,-0.16402660187961463,0.18698874726751494,0.4815483075051756,-0.17829418654731613,-0.1668494835038022,-0.1259822296279968,0.11153755205894368,0.3657503309186647,-0.37972249652068923,-0.05310249894978871,-0.35142405908693836,-0.41061494628716777,0.0762062678158481,0.20659853471835493,0.31827462907327453,0.710584675019862,0.12525464461335434,-0.04918468002225902,0.22383045416072297,0.25923392987246363,0.17589583989117824,0.04231265836735139,0.036193543631150606,0.15842293804211036,-0.35299266289121584,-0.32678630281389104,-0.07754855782526524,-0.24434325898902295
36.55799865722656,1.3591995239257812,-0.2266755858381121,0.059441676712952925,0.8568988274033131,0.08200857766226602,0.39433222049168215,-0.2705248704823428,0.16715366306106233,0.17422719321582775,-0.2833410020043416,-0.27620217315757767,-0.5400082322434039,-0.03521927108295272,0.08287669012662616,-0.03391909385042933,0.13363360325661744,-0.07514505312318777,-0.07541883920743578,-0.11285046469489252,0.017140531611139195,0.0019105550272505206,0.030138309960456994,0.031148839133192233,-0.04717743464095561,0.0876746510710279,0.06334636579764834,-0.006766967385701861,0.0883309434905188,-0.032042572713601974,0.03192861349240005,-0.08549918918368116,0.015249713316444617,-0.053610844382187016,-0.0055291017411553825,-0.020740810168343126,0.03866420309319955,0.035085830116852644,0.007344591849431612,-0.008810393080553362,0.0045173316627253645,0.034994506662942834,-0.00020778844757743387,0.07270685661750816,-0.045083093905734166,0.04815448364889302,-0.06077778707538175,0.0796682449429063,-0.06070872451918512,0.07641409021277008,-0.0077159547296636885,-0.06215821855059362,-0.24490214225873533,-0.047890555799718335,0.13394949166463943,-0.05546169430127007,-0.04689697314902863,-0.07763514971238696,-0.10086874479146345,-0.04320734337573895,-0.04674832425426685,-0.01356088382232169,-0.013072594405607913,0.020188926061150747,-0.005252315317946407,-0.015454113029135286,-0.05652067361072956,-0.20072708067761175,-0.06523568478544947,0.042680374702179814,-0.03681459791688083,-0.03619329896663294,0.07279250397404302,0.1162621752787931,-0.17791850268919196,-0.36436701571702673,0.17461598709801682,0.6870888446133764,-0.3914454108674718,0.3599787672574912,0.30500749922771464,0.06308696659080988,0.019879826556413148,-0.0837414272329321,0.24627688381030727,-0.5366533421058879,-0.07290824034356021,-0.11681228621576556,0.17475921155857477,0.03386093992346012,0.1837864428418627,-0.07425955399938274,-0.3261154186475535,-0.2894379411683932,0.04669851610480849,-0.004106142056962379,0.15884875080969266,0.36026768601112963,-0.04379716274129167,0.059743794470612635,-0.3436720368628104,-0.07685347777905824
37.917198181152344,1.3191032409667969,-0.09622953838408482,-0.11964193311979747,0.6527625395653931,1.117869286199266,0.5822569994071781,0.4396195743601925,0.05311843681617685,-0.09736170805191843,-0.36883058783076766,-1.0069464790585236,0.2688969635725794,0.5597091754306822,-0.03502401891018873,0.025700404483612417,0.018424544217052558,0.014285036325746054,-0.11917453484420393,0.004800643123597485,-0.03225631613560666,-0.048578776929987466,-0.022795361478982215,0.02633443700603154,-0.09554940472462514,-0.1289143800919994,0.10830527953708817,-0.007067373036769345,-0.020473108276978045,-0.05151512850383725,0.016985034832236876,0.17264122526885908,0.02551663848691936,-0.1231106812538772,-0.025548258763463363,0.09832347698641207,-0.017344103170996883,0.10493532135344343,0.08511480272957817,0.02459019853289988,0.052151552889238596,0.03429996432860436,0.10430820722721376,0.02992445286274209,-0.006823565446716362,-0.033892353765534525,-0.08820357820065854,-0.023677338981707825,-0.010697114107135957,-0.10384452788076765,0.023564255713136285,-0.06154207798189503,0.0437772985584107,-0.008218726279720196,0.1386951067294622,-0.11377102955967391,-0.0012227824866577724,0.010058058044621732,0.0013641450340773076,-0.08048236251337501,-0.05391446373278316,-0.07978157091797326,-0.018691831533912632,-0.04988498328398067,-0.008239906279289708,-0.013909414328563656,-0.10458492366996942,0.024076434498014002,0.4307546803065033,0.1311228045667408,-0.13232351348865687,0.10544300696727635,-0.1359359366230841,0.19170744594189051,0.4851299652366149,0.21921423582861044,0.12628506889377256,0.06121519131026509,0.07244313024100947,0.13553379943275554,0.41082405536541305,-0.02046509693937723,-0.10763304085096462,-0.04406960147057675,-0.19725736103444205,-0.3469937629668604,-0.3501441319426729,-0.20417590370131652,-0.07125028059054653,-0.005840318911015843,0.18166484095206475,-0.16252329155880169,-0.07017910563473165,-0.039721218606406296,0.17967973617253066,0.14741344534419795,-0.3950722601810317,-0.18211969824138838,0.1295438041807461,0.05682370745965197,0.02539808534473344,-0.13920811138874406
39.23630142211914,1.2990989685058594,9.253474346504996e-05,-0.813726708949823,-0.10443951469096066,-1.271332223819722,-0.9272467526948716,-0.3191454757903168,-0.0007508558844377686,0.10389219465356063,-0.09305124387140429,-0.30874363572092645,-0.17968392952099435,0.03824286467106931,0.09530491867911786,-0.034410809639752335,0.006215147937070934,0.013068014801935637,-0.08279726541967668,-0.19957640026451703,-0.012109014877967218,0.022250145193349558,0.004149453090619885,-0.08372745353491691,-0.01259901902690014,-0.07246044252513263,-0.03441346711782247,-0.011777528056705972,-0.0825928139628577,0.048152958291349336,0.011004432141972033,-0.06013520870185662,-0.04057476080333269,0.012536855059207439,0.014913212442094335,0.03029328973985171,-0.036272830584567234,-0.00020117170201910874,0.01575317143584359,-0.08642850004787733,0.0009792279753959576,0.011275817352056058,0.008047517456219485,-0.10487211309363403,-0.03522835888415963,0.042781905869948095,0.007586642367018158,-0.03436143348288645,-0.1967770545207386,0.027347624212344334,0.07795172208893296,0.05026813649983797,-0.2475583922428504,0.025219798278951322,-0.05299762697689706,-0.02153316136317479,-0.07566238349014476,-0.06730856703580965,-0.009156871897586585,0.08045944124959412,0.024198061498898568,-0.052113404337545466,-0.04524923633740821,-0.06308564105571961,0.03525709532786948,-0.013337871209534368,0.07233119345813707,0.21426397069020048,0.17653961613880512,-0.12396430088050414,-0.09544132057327642,0.09331322037525201,0.306421117471695,0.1883269108807286,0.04211563441337832,0.00855015931166793,-0.2003935811215785,-0.11882448544135392,-0.09998060682001218,0.07831683361745657,0.2129448662509197,-0.04541943732050594,0.301852721640705,-0.006287936852996834,-0.20798262668598108,0.030149903123743882,-0.38907700414457724,-0.18247710841725223,0.08074586997885924,-0.09257805530876803,-0.2542082792639244,-0.13848753842041975,-0.028190587970461513,0.058384478760052774,0.02203723322598601,0.06088334537281592,-0.19293900729543206,0.038795572332303144,0.0946046774860891,-0.03081714888425452,-0.17972236404511435,0.176862038904459
40.535400390625,1.3092002868652344,0.03305866185490998,0.07603326447890023,1.0234341044043136,-0.11208372208054454,-0.6341079275350843,-0.22821137301173883,-0.05174788915006701,0.11755031109256597,0.011082844268395856,0.11354605886335567,0.33088233501167086,0.22364747111570105,0.19429246490300628,-0.014467268337673393,-0.18664102940610683,-0.1567295521368654,0.06979612837707781,0.08602215501049187,0.00508227739515162,0.05991696927097713,-0.038237227747305626,0.0282678837628205,-0.001041173243886001,0.06717160586182691,0.011926904061781447,0.047413227112088556,0.02099297274535624,-0.0017572813650475626,-0.056957371043609636,-0.012460938274753832,0.19572551698248383,-0.003187048897052659,0.0366153733823108,-0.09386229728048935,0.05782284006039384,-0.027903856913548145,0.06413480055485715,0.003099156936892583,0.09148955993659759,0.009368642674147575,-0.0009009221583278679,0.11083989246892571,0.009271206909846647,-0.016995493724243645,-0.026253116236750022,-0.027766208207681532,0.0012462096194060493,-0.11003304760203828,-0.0062876255053025305,-0.004682878707767332,-0.15787897810195095,0.06653090072968823,0.09624411566536498,0.09080423359896461,0.12372311084854723,0.175323255130924,0.2348565272302224,0.095211929884681,0.024503740361853942,0.03511561077019074,0.004558589635061783,-0.011525559055488216,0.002879268861868316,-0.0013280315298806501,0.022338745822282714,0.047780801962755595,0.22635016158679733,0.28864149982179854,0.05571230127097619,0.31590368401133956,0.15538656744267404,0.0565846334919591,-0.3995177108569937,-0.409813749541978,-0.0599454321626405,0.09793387880247789,0.5235237603504396,0.08390417958975276,-0.23460889132821613,-0.08722245147755789,0.0659010096699864,0.4513789107561084,0.1068473149170151,-0.24666432754968,0.29777769619845723,0.1263312274272982,-0.31696769692145843,-0.18368923834651468,-0.1639642406676983,-0.09172117034105512,-0.20279123953498598,-0.1609014225659268,-0.08838274008231939,-0.199365130998377,-0.16628450015064578,-0.05754762603604538,-0.11824926431937254,0.3570222388772078,-0.04679248451714406,0.1146697422829549
41.844600677490234,1.4189987182617188,-0.2742792912204897,-0.17496955140430243,-0.10516809299458484,0.4073424391116675,0.17676390726063193,-0.18946266405653042,0.08091877823879166,0.02798360184557791,0.031510044870592724,-0.07293959946993923,0.0968321531350941,0.20719279484024616,0.06458729219865425,0.032952118763156846,0.3160946684783749,0.09628463451653287,0.11254849888475899,0.0348048927917283,-0.01618168349255943,0.05583573002161794,0.031733333124441224,0.012053054796367483,-0.040694088775692805,0.051366660990436776,-0.024549227996584277,-0.05954230969288634,0.03105641165845438,0.07670346238320301,-0.07076647308048124,-0.04238913683340656,-0.04830845359861494,0.0024376284228101314,-0.024074039820779478,-0.00048738913559149904,0.0014092141497915995,0.007660260792053236,-0.0006173778801932419,0.029604010864085418,-0.014483025000810033,-0.050801880854119075,-0.00042962392664872505,0.00018733435486592575,0.07816409416074058,0.001108216926396715,0.006425071968241744,0.022369095853945878,-0.01276986775485715,-0.10107259595649318,0.09555207634108594,0.012760179919520423,-0.04276829079568235,-0.022759694904755847,-0.03714710623854987,0.02742138146070797,0.011927426040382575,0.07359310277578016,-0.028134745512976428,0.013275804789521874,-0.02143672999883972,-0.012965599197360013,-0.024516944515617072,-0.0010413935912044897,0.14244652750136386,0.25281920312977657,-0.03408934565736965,-0.013288243863843405,0.11675451508658152,0.11442144929823331,0.17720738024543822,-0.1698990568331874,0.12927154679883268,-0.14056519368256354,0.21013150607658881,0.39314200036218433,0.40421252824762877,0.02986384581291163,0.475133199050569,0.11058912896267703,-0.2586005190861722,-0.11560845991329657,-0.23142593217801366,0.07724323089062404,-0.454568859061812,0.31839518542890144,0.4588140717622267,0.2319633297254315,0.3776540615066912,-0.4034095535173336,0.15297728471804936,-0.09745280634514382,0.2859944785225352,0.20003955317557826,-0.314678954145807,-0.4621482562418481,-0.3794469397815471,1.5228256425745674,0.2294324911972826,1.4792485153810495,-0.2953800854312567,0.15704328998437783
43.26359939575195,1.3390998840332031,0.29242104968350724,-0.0019153015690520133,0.883369283655209,0.09937315285914353,0.34316217077405087,0.1914097257162679,-0.044346056787288625,-0.16084410275499186,0.06496805839779193,0.09873835922822902,0.05844854518179429,0.02514045064925341,-0.1758204855649201,-0.0533234602954786,0.005713594351758372,0.06352255121083622,0.16969406848657256,0.07416634403807901,-0.00207944796231941,0.08170288786071589,0.02997808669823461,0.021628288270315175,0.05538593601760972,-0.009886886607101263,0.06293506745475197,0.047637908513534825,-0.005493900708768876,-0.000517580462416364,-0.10058809838856549,0.07962333259553406,0.04512646650223891,-0.036169649569703366,0.004743380638873175,-0.22483103112650094,0.003912079194670338,-0.04509094400477322,-0.020831952262711277,-0.04722084301388289,-0.03573053034748696,0.0031261087932979758,-0.036321821499225,-0.06477203628674456,-0.008610945946827726,-0.029732196725736695,-0.03110748578466666,0.0998281950287867,-0.05632962179496947,-0.08870126674185964,-0.06054192111836104,-0.25554486721211495,0.034621139654757785,0.007098585659673128,0.07130348252422429,0.14861416920138132,0.0016412421670839537,-0.23044793270555014,0.09812802772673551,-0.019264484413461735,0.008899399917245327,-0.08312955532820249,-0.05673720426694737,0.007286718910850469,0.0993644822518604,-0.021250522783724454,0.1152970087744517,-0.09122556054835147,0.1233535767491729,-0.13006060023936972,-0.21027924328827668,0.4677560277967888,-0.08729304416590576,-0.14292057472600336,-0.150505864618597,0.4604828872955436,0.09364285226630847,-0.16431106698361686,-0.39958948528786514,-0.11661405317253956,-0.26092238789112926,0.02916072139816991,0.3840024552969879,0.3748779602252644,0.05172445146780576,-0.27137037077197845,-0.18487491445480586,0.09518472763195268,-0.05653388651084852,0.25133037676172093,0.074926749708473,0.3844738302953835,0.07455052767287682,0.17377063525864064,-0.07599145613235889,0.06926115064094918,0.45510925206300124,0.18686005839558945,-0.06026708060520139,0.061892798308752876,-0.8452105633931071,-0.8618056012990816
44.602699279785156,1.36920166015625,-0.8358869370278302,0.3250891653532919,-0.6995292534736196,-1.3148856669896558,-0.23600211135596888,0.026664932102175916,0.05599860626914768,0.01625019750896703,0.2152817552912634,-0.16711053686191643,0.039878575966539445,0.037718831550422244,0.005220461608872198,-0.029412458965909324,-0.026119523447816897,0.03346824780055015,-0.010552551452932416,0.0011297506979251954,-0.08101304150970311,0.016925121680631997,-0.04187423044961128,0.0031584695092088735,-0.06578165907526681,0.05296654279613147,-0.0019644621191490796,-0.07340078611396006,0.050562934337918544,0.060858698170909574,0.018208423869088136,-0.0040068528430437225,0.004152451716158301,-0.0820258308595236,-0.03514329468152416,0.07778017794143705,-0.028753479442043168,0.02509119135851451,0.02645132219653946,0.06554758375680157,0.049499072697974725,0.04108481696240516,-0.051619469795036295,-0.04130954138623845,-0.0006171615253674043,-0.022587847735650743,-0.0037610805926051086,0.008678948800733863,-0.00912921000838602,-0.056602498926205974,-0.022751645541295468,-0.07403933821860553,0.12766441713166915,-0.045715053879526076,-0.07470296450623029,0.0863428823604784,0.07007204706281378,-0.09778056269058326,0.042062394707836966,0.1424756065397854,-0.08368967428990881,0.004486314821752151,0.10872686461774791,-0.04236207371913858,-0.044670104181122876,-0.0024145875949969607,-0.20682766391308713,-0.14004635092360562,0.3976701640169427,-0.40882740480171464,0.18091865206374064,-0.07631694408694335,0.03314114189281184,-0.16111234424188875,0.032330150571989756,0.21334939531225522,0.011018727896654756,0.13945343229669976,0.3422101757980928,-0.6120728608354343,-0.3795415282201525,-0.2539517588372694,-0.20718248669385295,-0.12648741545009717,-0.19284685381314534,-0.15415101811151843,0.0846047151888814,0.15336249982396968,-0.08315143405546693,-0.1817422458346182,0.26931140518327384,-0.003490542053402476,0.11268976028544225,0.4833646179981766,0.03720377632600912,-0.08369014180843425,-0.14586523564676002,-0.231605902697533,0.1395137304527724,-0.04490208967383894,0.24560897184418148,0.2636647148870828
45.971900939941406,1.3288002014160156,0.11868179783808332,0.4150709225728749,0.43207830784458756,0.5878921322783452,0.5286936814297932,0.48567334547406527,0.06385866590520589,0.5600709674670052,0.8275299362847035,0.5012873873755036,0.39628790375597756,-0.5733251444506495,-0.040916898448834206,0.051706066358572084,-0.13731431995327117,-0.0213658286696976,-0.031794706914110654,0.15007559360119427,-0.005631175389897168,-0.23076372867433032,0.0035288175579623314,-0.16535133824660794,-0.25552452297016476,-0.05900729296303603,0.17132939486157978,0.08059887435974994,0.14239994780580426,-0.0419191007793694,0.055160960715718375,0.11112379213573813,0.06070221849801467,0.017074019681721137,-0.08812778572567738,-0.0120564892451514,-0.14047082481056808,0.05753883349636899,-0.08790428841322431,-0.061816249758203864,0.12815916106159914,-0.04915381821889499,0.014345296552414878,0.19552694829751663,0.07705674987615496,-0.003086891854670914,0.02438489072039118,0.06420690193922143,-0.056973043744289874,0.0430709345752161,0.021925901836849872,0.19360619476970894,0.15752910063799783,0.06508779831313348,-0.038200026972635144,0.005881991733528921,-0.44238606101956657,-0.010851269298415213,0.1790686713544682,0.036888282743588456,0.050698922757593586,0.07746718900517095,0.11378380947733313,-0.008449678646038874,-0.14630389990210102,-0.011555003702978362,-0.06107087744530904,0.04122001143126261,-0.0930886898682459,-0.08483811231575764,-0.2332279145954942,-0.32939408640473566,-0.164985619771242,-0.025902873348735766,0.10120974261538396,-0.32122685065123174,-0.2761538001516789,0.07984602204749247,0.2100839637715295,-0.04600674136419067,-0.3239126644562349,-0.06517252253014147,0.13748658194929098,-0.038747519578962816,-0.19875097114384244,-0.24068716266249168,0.2667490541509576,-0.029591702893919936,-0.04880160367485567,-0.14395268816692772,0.1734550316469634,0.11632951092697623,0.11644819287854855,0.013783153073356546,0.05881026170948621,0.19227006790627674,0.05030061306843391,-0.028585838906099323,-0.2066155972689019,0.147256821565603,-0.4783555920509794,-0.21422775599139077
47.30070114135742,1.2896995544433594,-0.34862787127793465,0.29359130933395117,0.7672402566743513,-0.31305425725387953,-0.41079749167962565,0.3627268886225077,0.10513362809393978,-0.2783703926118368,-1.3042129682469084,-0.23412810740898157,0.24342264029487334,-0.16573619234439285,0.07778279797740013,0.07231467418312079,0.03407886213852496,-0.016134915469090415,-0.08700594719597443,-0.0006368635966165715,-0.04623652713919078,-0.0039727398357929196,0.032528089610933085,-0.05187597544470695,0.00320614156104091,0.005050959274324515,-0.03941307076817687,-0.006962308177205778,0.024239862749353174,-0.039500174199223526,-0.012157954216082314,0.013737159759596145,0.07414949975417223,-0.14857146079820066,-0.014172066001671042,0.0010795600488058472,-0.004375772774798689,-0.05655233460599965,-0.03052004349887777,-0.09414398037716022,-0.010628965458117222,0.07376990033439372,-0.033284090411511986,0.010066030141049094,-0.023755971791191096,-0.0005002162047383048,-0.005362021327794618,0.009531441900371654,-0.24626247732113865,-0.010096832309222854,0.04556629167512107,0.03725220098914001,0.1517251782384298,0.09098929509528376,-0.05621834969676706,-0.009128616113499206,0.0977310811701684,-0.0005045327000113331,-0.004875812983837768,0.0019783918330366474,-0.015287056318430248,0.00980187639692208,-0.03909556520332917,0.014146669925329767,-0.004009231468420347,-0.07724690685626964,0.12224855501271958,0.09036822313762212,0.2994709756973723,0.4091731278541229,0.22371221818677894,0.05571966359660441,0.1678287523347115,0.06285620197523281,0.26036284086339145,0.3561675817790371,0.2133826003837356,0.15442479140622647,-0.5531211445038466,-0.6504588439641382,-0.27500672103874485,-0.1823344184175738,-0.054610001639979755,0.021553594363497443,0.23586590436682578,-0.006164514482028968,0.06890773384952387,0.008633879776903532,-0.15846551565003372,-0.07573679678283615,-0.1551935114815471,-0.5941495968602059,-0.4332138129872568,-0.1575472495208175,0.1950633661883529,-0.055722516225116404,0.052044601285606756,0.2372043031350749,-0.23148369078184783,-0.0966618447680334,0.39842060215621394,0.42128270497191567
48.59040069580078,1.3085975646972656,0.15811435578345284,0.4762224290573147,0.9837773202563551,1.3488143462964908,1.5206196663019678,1.0479038084384142,0.0745861311913534,0.022678137258260803,0.25793805080784393,0.03890564803157803,-0.2549667063554775,0.12970364324990205,0.028853747426976127,0.007393615997406927,0.05412951347204688,0.043868788222643756,0.05458517596654086,-0.01963828959803458,-0.029878359156244413,-0.06076590914503664,-0.039361757109814315,-0.03937978005854565,-0.00987702027020157,-0.14479119732113221,-0.0033224001559874145,-0.11423922064161973,-0.011379120340095585,0.13889159510034477,-0.08526378725107656,-0.06497592423312007,0.09246479953110263,0.10852073901810337,0.1038416996576959,-0.09114229437215048,0.004372617409795138,0.031518293952741055,0.004963273167569587,0.03962145152941446,-0.04745241655119452,-0.05932403967970884,-0.050062110760709974,-0.03708225373985334,0.008531037573160696,-0.0734741077258216,0.05133822104938547,-0.007363792330792568,0.028776279272340794,0.04560094288149581,-0.09010967048255668,-0.18118799229180954,0.09142789712250196,-0.024879726416019023,0.017746764122797798,-0.069330390113918,-0.10370446586920917,0.0902107657511098,-0.02614587625929815,0.0046883538901607786,-0.0700624651776202,0.002652053883629795,-0.00048805593906435827,-0.02002800107668122,0.030381972108243054,-0.04244810874464416,-0.19987653882569933,-0.3275639130069713,0.03105929998978095,0.026204351794711665,0.0045214913396786315,-0.07324337711150354,0.02828625513821373,0.10395905200774216,0.09301448465595356,0.21482801033788096,0.1443379825168398,-0.473233605021816,-0.10980518813460853,-0.42549948900669443,-0.19658591347631957,-0.08469733223604203,-0.04128556233323841,0.14054256147054345,0.28531528153913227,0.03315248001589096,0.01025794599370939,0.04518501031474295,0.08060297795165572,0.2668059157616456,0.12370750120288797,0.34009211305750503,0.06607433868806725,0.14058147212622638,-0.04706287611446298,-0.03323301942404686,-0.10698643347319108,-0.28886886161410136,-0.18521313088230268,0.33872591286192655,0.5898432464946326,-0.28845033688662997
49.89899826049805,1.289703369140625,-0.1567636036960604,-0.0384531051328245,0.6498517300907269,0.4810615294761947,0.5388587725193582,0.06971642961587449,0.06885529750143576,0.010479602690025028,0.06360327192367873,0.23547310969741952,0.08922803658809939,0.10106428977209006,-0.10625891003486199,-0.05987986722720681,-0.02998990976507709,0.010874254097082972,-0.08598068432592629,-0.07271132548517927,-0.01669784280919164,-0.06426472642974011,0.13265656260017375,0.0759519675498187,-0.001794002516384972,0.04250644661227127,0.11376206266974885,-0.005665755969249469,-0.06509562990154023,-0.11899543475247285,-0.12514035810947552,0.017380572050113893,-0.029539223827807142,-0.09700850838312333,0.002349443745406377,0.005131754478244374,0.0038352246690652805,0.007156202620243815,0.03989410013533448,-0.10900304764852838,0.05891502036857279,-0.09451641296509845,-0.049421286192870784,-0.061097183950423004,0.09849488337057868,0.008939808098336543,-0.07368257057828499,0.031946489517074426,0.10879778203280414,-0.00980375999041724,-0.010030800666492142,0.09198427749443061,-0.141411275757783,-0.11262486718453388,0.05115656707226331,0.006201641386348368,0.11213736466750683,-0.03279550234840938,0.011811012215777692,-0.25646316316810985,0.02063543370206661,-0.008218248446786295,0.07196652307448191,-0.013018273815662673,-0.014838718455210086,-0.024720669145856307,0.01015959283876279,0.11422837953651666,0.19863092110315467,0.4435722887744162,0.3454004092544298,0.14039433227964448,-0.09074165735868334,0.0717200104686218,-0.04150763799380401,-0.3625551068129798,0.11075821368577123,0.017067822822880645,-0.184924706658046,-0.18421247015186554,0.32632739277101863,-0.08300580351370455,-0.19011857498135812,0.3112905510387642,0.31560320165239486,0.12624443023020376,0.0770993675193335,0.2872500644931032,-0.06744516022131936,-0.019299449396606903,0.7439818535898924,0.24613686902080723,0.1575510865272031,-0.19212323907275985,-0.2430344272826526,0.26988331582250796,0.8866320135249435,-0.14136316230064758,-0.4007983391261573,0.1247487354955185,-0.49461934901123683,-0.23302625993007237
51.18870162963867,1.3585968017578125,-0.15620013467689947,-0.581476870989044,-0.9499624226007248,0.5056360785343477,-0.35088921934095524,0.11909985960757125,0.1023875857200361,0.19078813167581052,0.26910593070275857,-0.3094016964219869,0.23040354412368694,-0.04452074612525064,-0.11894792770097984,0.09695494502780974,0.10133471669590668,-0.07727565150317608,-0.02700239552476011,-0.09358289068421614,0.1216120716556365,-0.047425382070550456,-0.023755900212562766,-0.061993251394131386,0.10445739586170026,0.035675799167315135,0.07305696686770652,0.013607846019263792,0.13845460176122934,0.008229855647460564,0.012969458469241506,0.009236645616323078,0.06086835560055944,-0.000959551818880132,0.002884911382376502,0.017346378089935437,0.0009809686663801234,0.005902830452543975,-0.02705302065587217,-0.010106534071034201,0.08748682367769828,0.008282339695805914,-0.024944523479709955,0.030144586770454153,0.011630393758319075,0.06462221926614835,0.13605593575855482,0.09231284164244544,0.26595716966409927,-0.04846956255451555,-0.012432654523488322,-0.0217282673954784,-0.1527825138498212,-0.09271736961286547,-0.023968863105932436,0.057886152072597286,-0.04979736580818184,-0.1121977667248343,0.008934185340878045,0.08041647906301673,0.02817358606252606,0.004732687188671753,0.027062406189714394,-0.024177934254204586,-0.009678187958125271,-0.07813624659119606,-0.15841973941066734,0.01466573976047594,0.5122273337356945,0.6507992964184043,0.05612355950801392,0.014148171551269632,0.03479726954401435,-0.23607814497834168,-0.37772659754023286,-0.037940537620115164,0.18385195288918574,0.16213408497155501,-0.043624910390907476,-0.1478432259520815,-0.14527493916595763,-0.22408973690975137,-0.12547179132152356,-0.2170513411406935,-0.6035860600667685,-0.46867925985418313,-0.2993627664104898,-0.23103759125041878,0.09619896464902919,-0.14988004143165176,-0.4385490863702273,-0.29373387209117185,0.0644066145632082,0.4063080229260815,0.28607366874356244,-0.30587597247299325,0.21357197162863786,0.3280921433927471,0.13043789353770102,0.3556066349818667,1.1589026537416645,0.20211859126696652
52.547298431396484,1.3796005249023438,-0.04942640140256671,-0.24712323873838474,-0.4539536661179201,0.40494353416642387,0.9360348608225469,-0.328488631796053,-0.04173065855259307,-0.2125046591012777,-0.12143000813085761,0.5414676329998778,0.04615418782594273,0.4438259556997792,0.1797427183115637,0.27755323274703636,0.47240021969758655,-0.010928341694280022,-0.011822864183473981,-0.1085340986195642,-0.22925251950799985,-0.12137074239244179,-0.009999781525633312,0.03517290926212028,-0.058467719431523214,-0.026417466728526465,0.007282687701774102,-0.009097019927492293,0.05669810580082765,0.013545750071612283,0.1099681704294316,-0.01220870945001229,-0.08552125325517589,-0.030972222528884468,0.0006065737435312405,0.0016810343391098726,0.019160158752334067,0.04955438940849548,0.08005461634764721,0.03239549796555545,-0.042680132422556916,0.013134886497897246,-0.038448561781238184,-0.025903600179521105,0.03608968776596248,0.020282149580405417,-0.02836304880350635,0.04094560133435621,-0.1707757958861468,-0.276488251032147,0.05512137888156841,-0.03793104568850001,0.08123774583117825,0.027987363176907386,-0.18777825239685617,-0.14176373205858708,0.03271602266296548,-0.22228911663521544,-0.04771651942060093,-0.06940568206919603,-0.0250041075044434,-0.0640626769304892,-0.006062327533964919,-0.011376138261081548,-0.027770349802213948,-0.06676566430071024,0.15402980463273616,0.31097286439374444,0.12786649788565144,0.14242160988853073,-0.050444339404408074,0.02744519429946096,0.43323984506962565,0.8269297838885838,-0.01810416742870096,0.19008205863514624,0.35207602308184244,0.740836662374519,0.21519546296189618,0.02988041034168254,-0.12026156659249787,-0.07799553508752102,-0.11183483534187717,0.23482783454484057,-0.11999120821352754,-0.3528057188653221,-0.08010632239548879,-0.26022432464998757,-0.06747825538397183,-0.22020393248636594,-0.2615965919098545,-9.904862178068685e-05,-0.24201938343623292,-0.34877746401097354,-1.1335996394391767,-0.17444452653337486,-0.2109175873621747,-0.29455703342862594,-0.14479251860174622,0.09541662944823699,-0.19187619851280527,-0.5390680847764104
53.92689895629883,1.5387001037597656,-0.4650121967360632,0.12097169716388384,0.8067522318908693,-1.3762887455700108,-0.7340976636939895,0.018730522733591062,0.024979916734317684,-0.6016185444478787,0.05184670011393516,-0.3495978091097696,-0.2258567122607046,-0.03568231185948592,0.030068806308461146,0.014571735475107659,-0.002711313190798433,0.1575403288102294,0.08297449100095641,0.016018848928972533,0.11916071106128977,-0.19374505858432486,-0.023770939618213756,0.03772313468822581,0.041281066507384424,-0.1804202369594485,-0.04897391020025841,-0.055429181614275874,0.11539865100200773,0.01473553848069608,0.04168505024530075,0.040004314584755646,-0.03886028340257798,0.026739740337944663,0.010847373712314019,0.13091180070603997,-0.0031692334138659854,0.0308447502403913,0.014777324358067457,0.050766957812945206,0.06154902914791486,-0.07393082402140776,-0.022368680252272902,-0.03424859680766349,0.14058076696848013,-0.004139344453915047,0.007103686058079463,0.024954554614384394,0.002089462193274047,-0.04455009925713695,0.02648652777167869,0.08037732098981488,0.014261793773616832,-0.04919134328949632,-0.02062067313881197,-0.015464988105790965,-0.09970656894887364,-0.06731121292787817,0.03160273824546482,-0.016673742962552432,-0.07185952574055249,0.013568676929870238,-0.03632026371842115,0.038400970616518926,0.006734867798438545,-0.15502514676111345,-0.06182283109327815,-0.36051390290159396,-0.16740596132378796,-0.09590591934202969,0.2050629136519104,-0.10659929963921205,-0.5433020839754508,0.45156007155085365,0.17548496156590665,0.10352122813137668,-0.2847652166038813,-0.5145366906602905,-0.3170860602723714,-0.6218898094297635,0.05746639674782989,-0.41594559476742304,-0.45344509715979414,-0.19666336947915458,-0.20692224311714275,0.14989661696130088,-0.21195688685080563,-0.10300143921516225,0.327033852234512,0.5561423775966274,0.5727777414041431,-0.20336465019218988,-0.19307956650286945,-0.09070628330919052,-0.045107019093980696,0.8683868514559531,-0.5828105156750694,-0.811877789734211,-0.4776304816870996,-0.03901331657670354,-0.21570822190267117,0.04761215173244325
55.465599060058594,1.5188026428222656,-0.005457138394103051,-0.182927636931739,-0.014012234365512459,-0.433586730384674,-0.01471623000756861,0.06680355206391039,0.07416516006998183,0.19472994772218327,0.22012509098336885,0.09650013015958475,-0.07078877866616495,0.03456760647445632,0.11407108943461326,0.021836365989286583,-0.06261904104985627,-0.05673153090932849,0.009792298452416557,0.059152556810377635,-0.0021359026801343454,0.06915629598572098,0.008144963317412423,-0.09326581370189053,0.006080982586656483,0.15470118099671615,-0.04363225929919581,-0.00745640397501253,0.01664788339752267,0.11059305000313838,0.03246945089644928,0.021405678718741154,-0.11076735075906957,0.08630873881011633,0.04849169054381601,-0.0626887590975515,0.1263544902373959,-0.03764874142242088,-0.057100095397825054,0.006167751295047312,-0.07531022565683526,-0.3066287583383942,-0.006706570254603361,0.04743108569825835,-0.08698698966623974,-0.13611035262932114,-0.06286289999708908,-0.04469004340380292,-0.02137256657738766,0.005788210739083338,0.04368659510420788,0.005015168517874139,0.0029471826554094555,-0.027526353446592215,-0.027972829211609124,0.022306786230482028,0.008872931024465548,0.030693486105505645,-0.03304535925212259,-0.018836759620962932,-0.12016852784842712,-0.06175864788066766,0.088802513012366,0.10549763236823995,0.2648698185068381,0.11092035764551181,-0.022581347249326825,-0.02043591165337031,0.0410980936095148,-0.1026206745853559,-0.26393029775207993,-0.11174599819348456,-0.07276998522602146,0.17104257854546362,0.026668455175549798,0.3728672421379215,0.3442839440475361,0.01408651203550225,0.36182983200652213,0.14120525417458646,-0.06591888318489669,-0.1050913239040362,0.1806973374970693,0.09319280800054724,0.4757449112535859,0.13419320758616965,0.020735323070382325,0.174812077754266,-0.150375448537981,0.0734288290597331,-0.2782464384080173,0.056566834442840025,-0.13097517882569276,0.13100360873335862,0.09053149290789944,0.13828336873769756,-0.2898579216118707,0.06613246266502139,0.13788497466355304,0.04214100034103981,0.09758517884143511,-0.15025687535948046
56.98440170288086,1.4095001220703125,-0.004560993998732277,-0.06501305921812288,-0.11226361784889897,0.2280329202998679,0.024425952135907605,-0.13803972791828678,-0.19260296046966593,-0.2825533502499456,0.46388838805438515,0.058863314402236716,0.12368102205890628,-0.03784804547282729,-0.12831696198336945,-0.10980410632914599,-0.13651196368660234,0.02241521046694833,0.12274263767782241,0.5890602027092422,0.008130155348475995,-0.04202702821375798,-0.049011409335463364,-0.14372114420534077,-0.12054628290267498,-0.050945199826295744,0.04802163516947949,-0.02489366563248903,-0.033257735122484054,-0.0764998980538383,-0.0406917370042506,0.11118292269439983,0.012063318871797252,-0.08934656200962077,0.0476843274817456,-0.04545410095672236,-0.026248456209888096,0.011828948354353568,-0.03398641479996076,0.023901063856294587,0.010701033758826268,0.003888920702904703,-0.00566881409232009,0.026427903113409465,0.05014174201891659,-0.03732077955408782,0.07553834545683732,0.028118840660661767,-0.07606064334088802,-0.09290411026174063,0.13669601191513187,-0.10339310154820484,-0.11611917419562368,-0.14115260307525426,-0.16838099878192542,0.0817792113610823,0.19554500302632777,-0.11502692134796537,-0.12944359314408077,-0.016309029853964242,-0.06427534093174213,-0.011580561008783727,-0.08920037788642318,-0.006584414958572795,0.05283707553536551,0.0030135536503247376,0.0779317940796726,-0.14954821245958924,-0.26437213769928136,-0.030837804408209848,0.08152068862799375,0.05159456844385672,-0.12193616977750076,0.062218584311189484,0.2603252795161169,-0.4014500825613724,-0.09714159648008938,-0.43274577463184716,-0.0832874883173291,-0.4640362957318746,-0.14187709088429795,-0.07071715227377856,-0.03495097160361302,0.05524047993554582,0.13665606930113125,0.04804705488952912,-0.17150195046772798,0.02686916715478023,0.07608622910762025,0.05400005688437254,0.33820564362584943,0.05596297099546909,0.199395916596058,-0.1574564145732841,-0.07642212479972874,-0.032487326887732794,-0.04530280182429055,0.1845872483796227,0.0486046410758722,-0.3959134283078286,-0.04399089381485531,-0.18613114541937978
58.39390182495117,1.3988990783691406,-0.05529182992575854,-0.1622420173638865,0.4666861937880161,0.14620787258341372,-0.46310196071355225,-0.07078851241606537,0.09916706512097871,-0.5520658627389461,-0.6552695237426039,-0.3251924637278498,-0.9793595052155581,0.024504780816195032,-0.006240598878317349,-0.009243428941382558,-0.22735828123431848,-0.08353900258029698,-0.04842718676373386,0.0072459527691936445,0.0399140891820854,-0.032789971880430605,0.053856070775540596,-0.0884148055859962,0.05349274611011011,-0.06212190293118485,-0.026761521423008257,-0.1847038188313948,-0.012518471744947475,-0.006990854522781289,0.041508242235893576,0.003927103565837551,-0.026984593969833524,-0.1369698759755505,-0.13458623399989317,0.04340200924412095,0.022185454194888668,0.025792335667714064,0.09191746769966969,0.1101760043643906,-0.004979601339386548,0.01432393991537987,0.007138475938996394,-0.013821733953310452,0.001599475467752759,-0.004290468021573108,0.007246444361827177,0.020726771303211135,-0.07645368914585521,-0.00021629162678252106,-0.08702131701314923,-0.20010655994485113,-0.018263892740355316,0.05665729251004002,0.004861270517965154,-0.06457450018237529,0.10384696622202157,-0.04163236879641439,-0.03841118427548316,0.07522511081291208,0.08537942287420662,0.017434495218402374,0.08466545127083203,-0.0008209233742443398,0.04973177049155058,0.004805332766474761,0.03872128631311217,-0.15533875632257071,-0.37618100632906465,0.1969714629015848,0.1530909505234827,-0.20868841444627986,-0.2616130376896466,0.12034210238462466,0.34271989217909365,0.2836158194743762,-0.12451262856117443,-0.7144667338619647,-0.16808633624021946,0.0648356162528501,0.003999850742034603,-0.20270369764614882,0.01693256942296309,-0.15485839716080688,-0.1740022630200425,-0.3104760342966767,0.2862372509680925,0.2087540129072221,0.12145547495171322,0.23092637716454417,-0.17284109249169483,0.03968486396278522,0.07171522902063503,0.05832879483774377,0.08952109671359576,0.6311502086040265,0.051747651789918525,-0.0026293008894589676,0.0015272054855301198,0.12152405236047946,0.3125426069770369,0.49310976176497556
59.79280090332031,1.3993988037109375,0.9010895115669603,0.24154165646837084,0.6452990299061743,0.48360708889467935,0.1353510258773068,0.12145098439159943,0.21225866514604497,0.5142107985292624,1.7424164642948974,0.2692086877299125,0.26929120594895156,0.022546197066375985,0.019000526119393468,-0.04447076342943032,0.08152075718757072,0.011068852197199447,0.06773255430508324,0.015932800020972592,-0.001528538549550236,-0.03894227766780648,0.0062084306538798045,-0.038059668392774804,-0.02495003104501402,-0.0002104153352359938,-0.005547509320142903,-0.04370399253549804,0.03863898485502869,-0.0013460125806294704,0.009466288527131606,-0.04419602781442938,-0.005197097718543659,0.00562660091460199,0.011881878246411409,-0.06524599994418509,-0.03934016615650299,0.08267700429217593,-0.05496853728972689,-0.03344599322425168,0.005310928958498195,0.025590661881633166,-0.08353758448912718,0.035618139773502915,-0.053764638901151636,-0.008169499439112625,-0.022663936233974027,-0.03559984001539313,0.050854783279937615,0.13989503618418545,-0.05245507872516626,-0.15307212120368272,0.04466188778378422,0.058102272462142855,0.030597698318700548,0.29141444847376313,-0.001166457201531479,0.05305283646447289,0.07986447686599428,-0.06960390859741257,0.09698769790101483,-0.07585586611362956,-0.004383082707340862,0.00759423815131764,0.007391126562483148,0.030660231851931806,0.019392285745733883,-0.09881835581766715,-0.1601475798489187,-0.27590375998333744,-0.20305406057576295,0.10698307793561843,-0.06640728676424747,-0.1030514321421533,-0.6403602338025287,-0.3046772859832096,-0.2164898413617734,0.2943050933697891,-0.13703443665086568,-0.554057584602494,-0.20171601437455547,-0.07775090431849073,-0.052461926503355544,-0.01042002738888273,0.3283366474862829,0.10724969972842943,-0.3508038430711599,0.14069312962240155,0.10761381178482339,0.06908037635154052,-0.26389983613575935,0.07783116115040067,-0.017151969822945687,0.0503271926496114,-0.06623793479855768,-0.34877092829956235,-0.06284687468820511,-0.018419073709711103,0.10591477577206983,0.06325702454131642,-0.18734594487551692,-0.2655217500585088
61.19219970703125,1.3785018920898438,-0.24868534912113954,0.47911234223903293,-0.17566634867479408,0.6524199697280693,0.9922365249279831,-0.39997592585745073,-0.016575558760336576,-0.04360129134726884,0.2688194162904388,0.25294285777147685,0.20693011815072135,0.053215707720282224,-0.042262515358537214,0.14579545698521312,0.03880081378564897,-0.06154092685966693,0.08852818211013104,0.017947656526356274,-0.004350154123375911,-0.0008836158287770192,-0.04385425166502931,-0.0018228742198672324,-0.020561132362068114,-0.17619669423931178,-0.0034825884868312706,0.029922575486616226,0.09969515085486932,0.08399427199741524,0.03410893237953902,0.01908864996631359,-0.0032517212745263612,0.12308339480635094,-0.0006063050166262829,0.04812772251766428,-0.043418251506711705,-0.05747330051707614,-0.027198434077900506,-0.028990147072448968,-0.029628280289778288,-0.009091081601457817,-0.010808742424432532,-0.014361877750139033,-0.0013058961419480707,0.020758074179010513,0.15408583971135317,0.14167003199742,0.04663898241310414,0.011657646608465924,0.008929841285362065,-0.1325737732313485,0.044630467449653544,-0.10315104141718527,0.0674023361221563,0.0026474686401342182,0.15920167777462058,0.08323492709364243,0.17944289922207735,-0.05379917303285231,0.007854472553692754,0.02287442152013501,0.007990386661320893,0.021898260378403644,-0.02107932919471157,-0.03204626012051644,0.18055629907631407,0.03239850737265115,-0.2154790253020537,-0.009570188179509748,-0.14403657523911795,-0.27017097031649934,-0.16244335860425316,0.011478762930054731,-0.19290948438972463,0.13815018952160693,0.05937732993517467,-0.1171716162229075,0.16090462540833636,-0.8198340088206804,-0.16455664220425845,-0.2996181198866724,-0.4794270166313284,0.32075124823720674,0.003229761977804127,0.050173126731832954,0.13121163730292598,-0.14956314106015065,-0.06628583216460165,0.11382428290268755,-0.01695488443351656,0.04500045112400615,-0.046383426173096265,-0.14798945477931996,-0.16421481766992121,-0.15999348746745395,-0.0013628186599616372,-0.10009497322465813,-0.058293155177291875,0.17845722328040975,-0.04982647873263684,-0.25859635153120025
62.570701599121094,1.3696975708007812,-0.08828466093678072,-0.2501805282426597,0.31548951513253415,0.8300488085312427,-0.1302363725165566,-0.164652612563512,0.013457983939683407,0.18760857323236133,0.16396467340315965,0.15655949862374596,0.06675495035642097,0.05914172326098379,0.06244275751045728,0.028303640197295907,-0.21144144888704813,-0.07552716426557508,-0.007666918957232902,-0.004690104820069525,-0.10916491274314886,-0.019073870752964555,0.028165363739533558,0.008115149435849518,0.0073569919431132795,-0.009611869017397917,0.07909980972689841,0.025393767380670288,-0.06203978737635905,-0.05820911798477881,-0.09898361210821521,-0.048716615248762515,-0.009620537743905734,-0.03583158804770806,0.08315322604723403,-0.021982907542462564,0.0012888393480369254,0.011324583260908835,-0.01282501797731434,-0.06063041403909797,-0.07055122510869585,-0.013364556090022683,0.035697575119686555,0.0010236356060582222,0.07888959082256036,0.008686107769283958,0.08594618012981904,0.03744989864999687,-0.04235550325689225,0.011161199454672248,0.2861466945511661,-0.003684554068573752,-0.0072853699744531986,0.08321433198390782,0.043221591160751936,-0.08291658934350059,0.06821147069051736,-0.006245424652201214,-0.09835715357489702,-0.00027990696549077057,0.03967635041930748,0.029205015041702347,4.0464690979016013e-05,-0.08498570214097526,-0.019074417033094315,0.014170959090327475,0.026166643835271744,0.08288893240961864,-0.16341453310941328,-0.3635775036592065,-0.11624561971038876,0.022010754878968614,-0.05799338898639676,-0.3605378310561435,-0.18639443379088624,0.37350770045729054,0.31016552500835237,0.31731656419596244,0.1993251707404275,0.12324923980997324,0.16375308208827327,0.13501419136789752,-0.045515446037710995,0.045063769480295515,-0.26211108487846857,0.06068050926346026,-0.12209156652733189,-0.0105500013978816,0.12372122495103044,0.06885534573124132,0.045580669024297485,-0.1582353534434491,-0.273586114170805,0.15784666663049474,-0.03037170108968421,-0.12814594402768092,-0.418083090352272,-0.21218869906491264,0.24592250746847472,0.04445105534618875,0.08281131846222409,-0.0866326057180673
63.940399169921875,1.3490982055664062,-0.17191350851040615,0.30279023595677057,1.3852457541404273,-0.14573755193065285,0.42109566021158995,0.0304756663501297,0.09777481034099993,0.44073232755800945,0.12301473779248491,0.04482015242656035,-0.1612946046429719,-0.028690293234389316,0.16663058960636748,0.26449214515480973,0.016172753376916683,-0.019763127098416797,0.04017840320565296,0.07607482387449026,0.03745987372493434,-0.0814912181248054,0.009853705522889677,-0.00770080560644551,0.04138896821763555,0.03765882179055897,-0.18812415309985359,-0.034051216822345874,0.06240179089384111,-0.007684565616256986,0.011432688760476813,-0.003946018101732536,-0.05435067093513593,-0.07464511091818936,-0.11091194774241195,-0.03125241397441429,-0.08763631975789714,0.03652583861093152,-0.03605238763174028,0.06503486163756753,0.01346950011864712,-0.03296121136953925,0.01118983610602172,-0.024298095734326966,-0.17678568380155124,-0.07616389833737812,-0.055933639522584705,-0.012663481260142034,0.21320478909165674,0.0478367783812488,0.2118792629481321,0.03190007853993368,-0.018710410164658055,-0.28708948453399236,-0.030971111939499446,-0.026207110548571128,-0.0005944822628899109,-0.0217608748880129,-0.006181077346710264,0.06795979243167494,-0.00912543934355306,0.03830900272531817,-0.00931398713398107,-0.007847383209227437,-0.017881534956256318,0.06880398292439194,0.24167137916890435,0.1382373628556281,-0.11489823478519738,0.05823797254802979,0.1812195581161821,0.1515061810252856,-0.293169690265128,-0.07095793262570357,-0.24944832127204766,-0.10557530701952791,0.27817645561693444,0.2841123630029344,-0.10372156168310986,-0.5036340021845293,-0.35270485027909754,0.15505165038201052,-0.019371354001956456,-0.15308919772229274,-0.1388833197117321,-0.16367401218341027,0.10371676180995648,0.020105894346149858,0.28867360609896503,-0.1691972670462768,-0.031223274674811778,0.2826674450457518,0.09005175202577274,-0.06198876699545937,-0.2016988651186732,-0.17793889672236812,0.44448070813174667,0.10211865826338079,0.022675604986586325,-0.01785788667380933,0.06138490789075848,0.05957239530221459
65.28949737548828,1.3889007568359375,-0.05063122571154097,-0.34989235811498165,-2.0164109523492995,-2.044042914312465,-1.3918069564071507,0.007558703985929326,-0.05402091471829201,-0.05957617760691054,0.25656209161820603,-0.08780986684330702,-0.28289726389216996,-0.14819700918424877,0.01375116845375652,-0.05931161413111381,-0.03223915523006381,-0.03559972614814033,-0.1109174026979445,-0.05371188252708562,-0.003695690426192114,-0.11166169746935647,0.014987376579224755,-0.00314109254375256,-0.09172948892999767,-0.09050622496694245,-0.10313092962525397,0.0052832490699591065,0.025063451286280708,-0.022064035530794054,-0.011077890131566218,-0.11831137539183417,0.04267477257216065,-0.0391949902148744,-0.04408290049199874,-0.021373593349776964,-0.006572648051447638,-0.02124649869846311,0.04182678343363067,0.012650063586609691,-0.10195400115202474,0.013832468212655005,-0.014937856880194333,-0.018871634615477532,-0.02066579665944738,0.03093914297066027,-0.015971329431277995,-0.14352598190323448,-0.08614278640944463,-0.027646981385392642,-0.3089865257628209,-0.19950359041324864,0.07726313748246035,0.03641303272493794,-0.01123062605051498,0.04116513136318526,0.003735033047100078,0.04017086507184155,-0.06475653430453485,0.04081486612880248,-0.01894704773393152,-0.10581101228737026,0.07037559803185225,0.07107588907371358,-0.023184974758087534,0.13674281311065095,0.09270235123650922,0.2862076737762526,0.32851802102724637,-0.12208693162294898,-0.32633449958723276,0.14329945709554237,0.22294771476188044,-0.06096876527369109,0.19725780533911666,0.3031965719018803,0.05630289001451472,-0.17059899505799442,-0.4529847549860013,0.5044056851912928,0.43117297865641735,0.3760526848865141,0.4207064517646586,0.10318326252361089,-0.5700442311934104,-0.11998226959932239,-0.013128293520139202,-0.12663917499416577,-0.47252329002252974,-0.14710104523394302,-0.19959091847200025,-0.22089638495564376,-0.2597213602887236,-0.11966883692818711,-0.5699380793179687,-0.15977016951054462,0.24929179372056837,0.20867020993607074,0.722861804634224,0.06715198742025198,0.13802386572361383,0.06576326320507614
66.67839813232422,1.5290985107421875,-0.1738053315568687,-0.6871609576412725,-0.23704283163415707,-0.4805319170118598,-0.4676524431532915,-0.24292439933402862,-0.10010153641909252,-0.06185013287445845,0.35607888663796305,0.5799340127461007,0.5945778949313577,-0.22178528730739705,-0.04868650956676374,-0.08003335400707948,0.03824148499422049,-0.039649768955710596,-0.07769085753759801,0.0039298513244366,0.004879414256636103,-0.014260666298876873,-0.07294442736166899,0.11576486434319365,-0.16050752954026654,0.06810636348366345,-0.02577117773105575,-0.1382623851822626,0.0320970516672127,-0.1054069772830805,0.008245538929437888,-0.006021379997827699,-0.0019346472871358197,-0.002020711405702784,-0.0646733952228775,-0.10419040632330441,-0.0341309516386196,0.021659750517828143,0.018353464334776942,0.013779625069241352,0.12493276095259312,0.018708683796189327,-0.0032435932131528664,0.019233604659688663,-0.08529569701669301,0.0036203372476340256,0.031934319391437115,-0.01250573747368998,-0.0570487064707009,-0.12073097783092035,0.06591536830286485,-0.0010570979924922619,-0.0411482189635675,-0.24764576595827134,-0.2494100020621855,0.033631251895481856,0.0917907575897481,-0.03872146493431708,0.01755603455473456,-0.043354117630571315,-0.12148650147351431,-0.03176167699081241,-0.00533790417823523,-0.043971442349015094,0.013887331301537733,-0.0049602756058836,-0.14275399238438138,-0.26754083950803753,-0.1902003804480477,-0.18323637879903126,-0.13236135538185076,0.21015138650101278,0.6010557455744902,0.03499136381679127,-0.40869331866532704,-0.11110368420022201,0.24883634226086188,-0.8889746964212262,0.15831231347790908,0.04945107341075026,0.22951916047866966,0.00932177756182475,0.2958860570685994,0.31297612240987455,-0.2231687086738139,0.1992996558150663,-0.3260969135373757,0.11191697630035416,0.13963600771734663,-0.4528009147307497,-0.01500581738947307,0.40535900627488586,0.7918745688792331,0.08736131108088306,-0.2050825987335556,-0.0751430481638309,-0.014081819585957611,0.0947923250705085,0.1647056885102164,0.6784897010114201,1.368483560498092,-0.07646601271393838
68.2074966430664,1.3891067504882812,-0.4044166422746397,-1.3651249316735785,-0.9485398300830991,-0.7439973177196978,-0.2747314811397771,-0.10326282045180223,0.05828479437254734,-0.027578078243600996,0.09473995629119779,0.10143908445684703,-0.04579510216088641,-0.09409809814158844,0.013715430302801007,-0.015289584206305364,0.03138640698942082,0.0748946402727955,-0.03602382206022835,0.002443898935641062,0.020926238966205584,-0.04106889953239114,-0.11881758087111152,-0.04187722746613386,0.0470221073480293,0.015227695751494005,-0.0385127456056747,-0.1218280962893114,-0.016881906965150077,-0.05958903709604703,-0.0004761456168217021,-0.010509816759699048,-0.038466275612067086,0.004007252237823033,-0.051214889702062096,-0.00991843865627352,-0.07922108492865373,-0.07384287608527398,-0.07304829424818154,0.05828484181684701,-0.08524455331450131,-0.08726321054331901,0.03548256849626507,0.010583039945704753,-0.03444912269004625,0.028745034802253898,0.06365614071679325,0.10706600375213206,0.036971613278335536,0.03376474572573507,-0.0135123059018239,0.09134377961834636,-0.08998293657228557,0.06649181670861681,0.032072753713423455,-0.06497694768528552,0.07064428861369314,0.014648932266344568,0.0006488609916691561,-0.03002632695499116,-0.0017648718562763555,-0.041210538982737084,-0.029059521714330783,0.16982406576975645,0.011755377188481242,-0.29758029320263363,-0.02168587856235028,0.06277480314299759,-0.031106360815520262,-0.10876010195313032,0.0007425029940218535,-0.12069459578770578,-0.22761423052831087,0.03027954454679723,-0.07638579955709424,0.014783376959195044,-0.09091081535922761,0.006159462981719072,-0.20942918773649305,0.2688933273207895,0.2232239843072773,-0.07554537018490019,0.016363193285487042,-0.33417238028347923,-0.02631997160597945,0.12744103080393435,-0.08852587645113504,-0.1886302060483547,-0.07904491763892921,-0.06155549845419601,0.053825181551263514,0.009113461077008111,-0.08504600824866518,-0.003393717621568343,-0.22947179681824886,-0.24882195155232967,-0.23863625879834768,0.06688430448041896,-0.008286142249241771,-0.10796733434224734,0.15563685413632278,0.22206896756714642
69.59660339355469,1.318695068359375,-0.06393252940253658,-0.04937275861850195,-0.05774838486798005,0.5375427121168701,0.6213735564252496,0.035778306856246875,-0.08560616949143549,-0.11712182071001148,-0.19285691423237758,-0.4831344266890453,-0.03536847240012274,-0.229028541790636,-0.023784386387186565,-0.014486550409967857,-0.07050309076328214,-0.01881963945587366,0.0512010443221642,0.1395645072393086,-0.06424940343454143,-0.04098240571273148,-0.08072273153916047,0.020854829119042333,-0.11486183960521489,0.025727421847610017,0.08855448579548292,0.022049584306815306,-0.0332594257085337,-0.03128938926752552,0.027297006632582128,0.04060145474779066,-0.006389291217739429,-0.05488460561457933,-0.0503763387842167,-0.010520098194858458,-0.01099156256096962,-0.1004076519871164,0.1029465495029715,-0.01518181574318796,-0.005450328196989924,0.016397814462947507,-0.12681924938762032,-0.10404624265140797,0.021459928211124905,0.01803100913793608,-0.09894887848497168,0.03488343018515608,-0.045294337565510844,-0.2159224271594522,-0.15662644869257888,0.006632375089677322,-0.03615613541936196,-0.08747636440350116,-0.020962270279109158,0.10846061875449912,0.0547320184899215,-0.05078695189237781,-0.06944258284041896,-0.05886683348161347,-0.10768009039799745,-0.024990765664089462,-0.0005162638142296744,0.04876964370931745,0.0965299260796386,0.16021303047689073,-0.03150588046455305,-0.10081532837771368,-0.047603687845071574,0.09465594297890052,0.12223616002164424,-0.011041789779982839,-0.0818766058052821,-0.1538632641792396,0.13300783511058129,-0.029568491782408324,0.04978759075787392,-0.3051183652011818,-0.5756698157475949,0.22812682356153013,0.3397204100363706,0.02684474994816355,-0.09580229084213909,-0.065474514520292,0.22581193170073463,-0.17333948925810821,0.00102668104754617,-0.3490915193350516,0.05560239921623011,0.20931124310239102,-0.25201887093097936,0.023051076671950863,-0.20247304754861062,0.02307517315338006,0.2007637114838094,-0.06313163768350391,-0.15906984858610748,-0.017112610640103155,0.11846342936351842,0.021686779038095343,-0.13830734187664864,0.20880772245226203
70.91529846191406,1.2996978759765625,0.10756665757310988,0.053339903767124164,-0.3986724667384219,0.15274125036764458,-0.6394975865778636,-0.4532616204587892,-0.07829966487597108,-0.1282795297017576,1.1651596749234283,0.6641205804335297,-0.02704101861890275,-0.14360159303409575,0.12573641667942426,0.07967047932510941,0.051251341140690035,-0.09878919484461979,0.055474154034613005,0.10143329455961976,0.007639672688292572,0.014128778351956837,-0.030784478573190027,-0.001132629806278451,0.0082737077116858,-0.007183081078338537,-0.02430600282602889,-0.007147323077181349,-0.0061177315605028485,0.17221492300110475,0.011536044134675474,0.08750549934970088,-0.0020144293843853147,-0.010565814759208715,-0.032889767169507686,0.002243340143421819,-0.10698980253823583,-0.0007068704668551425,0.04097233131558659,0.03864137092641977,0.017859254653486596,0.04732674186526922,0.05668561712276247,0.035374133344488065,-0.1932065196559311,0.06558765992534583,0.04637101086397842,0.07249211443111225,0.10468364508959153,0.38411182565605984,0.21971279926653053,-0.051619385041026436,-0.008953298901362455,0.07965991034534019,-0.006352165431708717,-0.0029853184676210615,0.014628348923498354,-0.17920840911800812,0.037302538687019625,-0.01100213330309288,-0.014184042474904072,-0.022070060766448452,-0.0954552088202734,0.022228969909079552,0.039418421568233546,0.029921775974526596,-0.06158133777816634,-0.27747577938021134,0.23967366488634223,0.38116864024162006,-0.001353554808315914,-0.0360202213654215,0.15689637251608854,0.36229992765075647,0.07882073715003925,-0.2256464556643624,-0.1328235444393539,0.13594966628367078,0.7005373827442405,0.23554262823083283,0.14873020356529362,-0.43620691964247343,-0.5262013544642627,-0.03391457593581773,-0.020492867819466312,0.028159576954536202,-0.32810257473678106,-0.37802275347269226,-0.19536339332307495,0.004139646380706699,0.20589861934125187,-0.1775827254107632,-0.1591798275665442,0.03714845326533121,0.3360840566130631,0.1310189400930073,-0.11467744545865204,-0.1307143605871661,0.39811819906530704,0.17525472316641513,-0.05335598654670941,-0.023281478530173996
72.21499633789062,1.2887039184570312,-0.2776764922816963,-0.513389729278897,-0.2931351743532423,-0.07341740361169916,-0.39123785873299666,0.03589771549717499,0.10604767567513865,0.037860670799520955,-0.03405126548340374,0.10305501030568803,0.28648484618420345,-0.08176553002718713,-0.04024153635131292,-0.04348606902218207,0.0020978034995830937,0.023383180851941927,-0.0252854466731529,0.09793274966224685,0.07327088822122715,-0.10034257419395855,0.012078159525592502,-0.020551210285213103,-0.06413227144791284,-0.024520533831175643,0.005494880752668974,-0.0036969775244931314,0.08672523597044848,0.07637596924558039,-0.006154678536136223,-0.007487318470899227,0.0013574277679097122,0.038439541278267306,0.005982661692934623,-0.11235079911712001,0.02642160040503686,-0.04970827753640557,0.03532301077322134,-0.03144339460293903,0.025706978619321592,-0.053788933287980456,-0.015934636715749052,-0.06801088428661403,-0.030916185214454554,-0.12062155108171599,-0.015354833098075482,0.09065206162841727,0.0939830009071405,0.03479227987720634,-0.14926902553278895,0.05296423738187303,-0.04065069923554895,-0.1435256084281584,-0.20423905573792608,-0.04480561113529491,0.03955944928360655,0.00383364938398594,-0.04286483621918216,0.04746218035537966,-0.01574774048217365,0.05275910950335183,0.0075471944871287845,0.04073320377903597,-0.037247212606250475,0.06918498512204219,-0.11915231837141799,-0.6565493412109956,-0.18068556423148244,0.11500235588312112,0.1730105771696222,0.2193307634710863,-0.12383867360434961,-0.32347111828513364,-0.007703874051887261,-0.1937633513789096,-0.198301451378734,-0.1476217012088493,0.18513220752210147,0.6949929505089423,0.44212158996996886,-0.07929846554477843,-0.2609552321249772,-0.004244535292628887,-0.12509580336804546,-0.060598785011026744,-0.22519826102886087,-0.06724779842795663,0.2858782160469536,-0.030338085963663428,0.16400900195328486,-0.2563794910028408,0.01964766328554955,-0.05375995275614347,0.21184325124384865,0.29237081520038477,0.1933742093626587,-0.14009941323237346,-0.4630553098835265,-0.1868235203123979,-0.021640834189198283,-0.1017184470852261
73.50370025634766,1.3095016479492188,-0.2910073470548448,0.3233765337829877,0.3718126894855539,-0.6236833604200115,0.059936836485768585,0.4925985364392203,-0.29380689312918085,-0.007112453502878799,0.255561899254032,0.6873900474996877,0.34539090695715186,0.2093429494146383,-0.1371859354800987,0.0021030716515844875,-0.05215596080653966,-0.02084299993223574,-0.05863993969625364,-0.04628852100390009,-0.019307702935636294,0.009057626558031372,-0.14058299634187976,-0.05146056120439557,-0.012971802761337222,0.033333119687592005,0.03479537771859909,0.006751741270472426,-0.1265574195158005,-0.045877691179266086,0.027672809262892714,0.0694902827826881,0.09843132164147131,0.05888251864397827,0.11926944356959418,0.09149153658166136,-0.020070699161795092,-0.08836608609985253,-0.03549818197293392,0.006923697623965138,-0.00026903934371074606,0.017925894335458124,-0.007946564625578086,0.09956145445518404,0.12686197662179974,-0.01709212927129124,0.20114509199681707,-0.10342135613087108,-0.06826297113791335,-0.02970451280277417,-0.04264094990624404,0.013790676698518821,0.05718849336702523,-0.1614600407430694,-0.09917098107855823,0.037115943170402406,0.12121961066934081,0.06277246170589283,-0.07372688012071288,-0.04260844642583986,0.031131179947763044,-0.005294426592657411,-0.06999140807274883,-0.0013860453012941871,-0.020978878255090785,-0.13157535120331262,-0.09712027849218266,0.3421423379749456,0.24796049145644056,-0.016416853642795576,0.11227065482652149,-0.04794675105234014,-0.002998918266541681,0.07429068274669642,0.017794878846777946,0.22659267113490558,0.028304576448901275,0.34124606255982953,-0.12150784225307062,-0.15709473128268395,-0.14019233617515495,-0.021445001909665005,-0.34119495542475897,-0.25469085976160794,-0.013082914631460274,-0.40196136465796434,-0.211583324655047,0.06533393411192708,-0.08488980124640044,-0.10166092310053075,-0.00016493308070006677,0.14069840760464158,-0.4551675650121882,0.027285138195508256,0.4045347547404984,0.08390308882320374,-0.4341396730007071,-0.2163978820242292,0.040071426898788995,0.18386697473842145,0.414329221085643,-0.4805980759997765
74.81320190429688,1.298797607421875,-0.3573913809850011,-0.31802090763882335,-0.07280340234706183,-0.34172201637846844,0.04440093840955581,0.914140999027804,-0.07853600782580052,-0.27247089981737416,0.4724350608629657,0.5074840888909123,-0.11539070873160226,0.061643155726698824,-0.09723786902976098,-0.09065694961597674,0.2076326812748191,-0.36363560360685176,-0.17973239326760537,-0.022805122727977842,0.01447399872190689,-0.05449447911746266,0.018172259469191605,0.10980018858576361,-0.025686283979376643,-0.08847349732689401,-0.07805747250964411,0.10565913632936777,0.02412279065727929,0.052552740064873,0.11052295475201167,0.10728732959253776,0.19572619034734584,-0.005606419563973056,-0.12283780527273806,-0.007559470434761543,-0.0742058684229565,0.02161067620380099,-0.038212525685399984,-0.06336901478729645,0.031129750431596933,-0.07478845030349102,-0.11479518939734637,-0.17161943130541246,0.009604666013587587,-0.007411293562436183,-0.01717546605715876,0.03692450403469359,0.08463565977870478,0.16340144517175872,0.08411877950856013,-0.042128861923537285,0.19610497911975555,0.15647534151219888,-0.1177496035856401,-0.1869250582161558,-0.019408125738083315,0.14771728488008806,-0.08426382451654747,0.08125960175962496,0.07385839305467423,0.011164761496870415,-0.0035909441594684805,0.011106739131928754,0.015284407732668058,0.08388533694883293,0.08312316373053387,-0.46019098778247297,-0.35719716326631523,-0.15430795278292375,0.009589980567776046,-0.082341698387105,-0.16805878316478934,0.13001101200741436,-0.23848765643836947,-0.14757810711200653,-0.14725061145994114,0.3993858860411342,0.35533448900930653,0.3086147223823772,-0.48463464751638746,-0.2915651155503467,-0.31570443457578895,-0.4922836483469837,0.06532663330172093,-0.5138454851028333,-0.43830394161770536,-0.34147838140633313,0.022737084732622523,0.05625445731009272,0.05208261237921291,-0.09763508214609479,0.1581865387401578,-0.17322789306937592,-0.41301329793447095,-0.43468362991715614,-0.24592563335911327,0.17929026728095643,0.15264266798688,0.12922855535816072,-0.08932498551446387,0.052269029802665457
76.11199951171875,1.37969970703125,0.22393397088276223,-0.4197568776864227,0.8185110935241922,-0.11323041338412344,0.15429068842997667,-0.02018099069388199,0.0012341802212345269,-0.10501188802154784,0.12872311215893084,0.21886076958735418,0.028021230923622843,0.010680185728749025,-0.023097464994313196,-0.13890511030615704,0.05131806357481675,-0.03854829160418835,-0.001295876525741274,0.02266301132761323,-0.06730469353350257,-0.01748251795020866,0.058221736098780306,0.035288891679052185,-0.03860697110408611,0.10197734418748418,-0.016460285185979886,-0.001251240349240312,-0.06789720267374671,-0.02653095633819108,-0.08985127937454097,0.038704188763626954,-0.11644620871793038,-0.038515699841006716,0.06608440709704946,0.09509615590270232,-0.09203460476792281,0.066454188135849,0.04191601384706346,0.05550615770669564,0.10401817313287383,-0.04001214219176443,0.017287135578343233,0.033845287660526024,0.02746202324677412,0.046874284950712886,0.15428246845166768,0.026166765719654157,0.06207033759382356,0.021975988832204838,0.22167453481447147,0.1415764272599131,-0.06981340760265438,0.015641644296679143,0.09491236890164767,-0.010001178924986212,-0.017040825326451056,0.16817298079669374,0.07526021458457408,-0.01125998464420851,-0.037632596973783544,0.004004445772009042,0.04713227028214384,0.018315510111796815,-0.012030559188236749,-0.02044475544489474,-0.37139448221356075,-0.19840371057946787,-0.1541365917109731,-0.038972963124059054,0.18250239636710194,0.2062619600658,-0.0990619672921407,0.02417738815171245,-0.227982939827684,0.34773667498515054,0.16949321425099823,0.2124534772625527,-0.09646421168578523,-0.3994240392613503,0.33599427096518064,0.24899821113518467,-0.3280541017174556,-0.0950986284721365,-0.2869555524467451,0.44993535206614677,0.22907753274085418,0.12615431227163681,0.39215104304963544,-0.16235506483004994,-0.2442808235963636,-0.24885944726042653,0.0846296102042143,0.456641477721756,0.12712424311776785,0.177194786679873,0.1748255735735256,-0.18285612877541418,-0.060495578858685395,0.13208757864447387,0.30047020575398975,0.8991493842927012
77.49169921875,1.47869873046875,0.7356967826025411,-0.2556979683443134,-0.9986389433529929,-0.9878099202180194,-0.5307603658225739,-0.20721009899292137,-0.37676551480303744,0.2964030856597012,0.14534896559335123,1.2470443178870858,0.7820326129162077,0.8666920826105388,0.030162187141580962,-0.049773099894124005,0.005683679372313026,0.04229310997688391,0.04438842484152237,0.02547016639289622,-0.11263376860850033,0.09522115194670774,-0.008331182177367566,-0.002518641323498675,-0.05211621018126205,-0.037548370494300404,-0.06379997307349082,0.019732694675801164,0.029079782205670108,-0.059486078106502006,0.06142628694224217,-0.04272332982591699,-0.007518937700938128,0.0053828099659148695,0.017258193749791543,0.00987311424733723,0.030574207909481885,0.015844092432179557,0.017297891207389993,0.021532957683285312,0.035279177181437506,0.018003671554296878,0.027423208678637487,-0.004291191778845061,0.024976644541567776,0.007167834270698792,-0.13464064912513254,0.04314470146634095,0.08412635289782262,0.20678892580332128,0.031418194940913496,-0.12325990728459327,0.07692580181992922,-0.07955456278659521,0.09012133152164017,-0.10698900538328142,-0.1759861168372634,-0.08900655404920307,-0.15134431393489606,0.05260149230366541,0.042534988846091186,0.05161644142235007,0.008266579844990504,-0.019215425703488928,0.07677490436997539,-0.04576446784368478,0.11968976826984659,0.7458078751189501,0.291498831071372,-0.2691204621856217,0.13404607464617596,-0.18809414825357484,-0.0686041394467898,-0.32415554706365246,0.23134254789618836,0.12782849438141375,0.3922488725361644,-0.24598677461569485,-0.5672311178648185,0.29725069818851596,0.3942943722450671,-0.28187598263500624,0.4087209711212952,0.42774304795754137,0.4858438534717161,-0.09314919143654528,-0.10485535114874192,-0.053207093722696844,0.13807734712672115,-0.11525139600539432,-0.16738522416702561,-0.06148699964284234,-0.4325964457139475,0.03634833396262456,0.1068088414993553,0.008196305537125883,-0.007669137364630175,0.05120622021494378,-0.020479713672284558,-0.06710746902136182,0.29154710460672506,-0.16332519909718451
78.97039794921875,1.5592041015625,-0.16168148729023646,-0.02837634374795031,0.4184128104727993,-0.35889367342774386,0.528589130835307,0.04678649790575523,0.006643277534056253,0.1621030128848163,0.34257226713691424,0.5068546444209903,0.7821327067562747,0.06060614098561111,-0.05068614747895602,0.01459535871530325,0.1959069786711864,-0.25445512853689906,0.14555381969213352,-0.010468143802780768,-0.029580661738878897,-0.02957321929362898,-0.05274077292283924,-0.07317417357983512,-0.015096333544345824,0.1285146103547918,0.09054138151184224,0.17564274120425488,-0.03019504587224053,-0.047686629484707345,-0.04701998631908257,0.08728976016021361,0.03414555855282943,0.09111337573614411,-0.007137664796075263,-0.02640556900341641,0.18085726507948138,-0.0214731124705152,0.061734103562725004,-0.013718387525692311,-0.08279361250903663,0.022513458631108714,-0.020516283427481484,-0.010909830886495045,0.01971755455002037,-0.004212268500962125,-0.01003234889840441,0.024449513695075337,-0.036612994663577106,0.010647040636299128,-0.023419237217703247,-0.18011433078113606,0.0186861934598271,0.05192598298516789,0.1579948225100486,-0.07498306404946006,0.018770174940069443,-0.006964568362356059,0.01096628499619814,0.06810878977772308,0.13271674255454202,0.028491814092356786,-0.007113704141466641,-0.055717278594676525,0.04065142862015812,0.013726159199345861,-0.10978460839188918,-0.18554561021880994,-0.5141017093429858,-0.037041427402804666,0.14679819932322838,0.12288746241614813,0.15960858064712274,0.18440926248842987,0.2452844554400414,0.44581216641872645,0.09039408253752226,-0.332021958963488,-0.10348517849148696,0.44768278282521634,-0.6249242611689834,-0.3646441139234186,0.07771648159184182,-0.12429910210919617,-0.2473589764392659,0.14113649630770564,-0.018510463538627436,0.05452633603889151,-0.18232604064425761,-0.2300500121392995,0.40435659003225427,0.38138546522341543,-0.19820137904987234,-0.08963645212444671,-0.09275034939652557,-0.020224535710247765,-0.039179085177939235,-0.02730057645612119,-0.4327373678466744,-0.2965271042281296,0.3454081576316155,0.20718894917620723
80.52960205078125,1.3889999389648438,0.21687814227500457,0.2856368077253728,0.5470396028931921,0.15080344570960036,0.16128135885505063,-0.023847167498784134,-0.02739228132438469,-0.037412950418429056,0.5109231366922853,-0.06466569459273475,-0.021437175538600833,0.060641789743344485,-0.02472419244327985,0.09768004170232973,-0.00935282843022417,0.05349908857251061,0.11206628133267355,0.02249392265830613,0.014863632638281249,-0.026470457634014385,0.09401347456959,0.1156719481399058,0.027441248336131218,0.0005593317637176611,0.008786556150150513,0.018080324671138993,0.006342022638093569,0.018844756437674,0.010522053816809963,0.059748002761737175,0.06337886283037429,0.04925870348692333,-0.026074121550346926,-0.044692938407062885,-0.0021654151470855143,-0.03462207514200787,-0.03308902824999845,0.09822708018156974,0.08246465180314455,-0.05950823983695689,-0.06747263618951009,0.056874454043158745,0.021522021347436457,-0.007051677229564755,-0.10851926098066755,0.015580932502084664,0.003753665473414357,-0.0033396050161770188,-0.004289551801354277,0.003134710400744334,0.04809513484622065,0.05793800852605111,-0.020045951954809862,0.03910948892729739,-0.016998737141998274,-0.0020511059118739692,-0.008011638399450582,-0.01069806875862183,-0.03804275318635944,-0.09667541813156198,0.04428369835713724,-0.00618729273776235,-0.05600971489435983,-0.020719833077094203,0.03580482112398868,-0.2242151155946696,0.04126578050061078,0.09328532006805187,0.1994639423597549,-0.03895698406240011,-0.13216365759326548,0.05315114262477022,0.06879564310747013,0.6361483183549976,-0.030515853694802336,0.17269445770247988,-0.377519977950175,0.19643125249367369,0.12915089141094066,0.2587416020817726,-0.18341800016840862,-0.11750635318657242,-0.09135431141269734,-0.015009184549586996,0.2023310587387851,0.1169310149870452,-0.0672796944623826,0.08624807492881843,0.05269157733674411,0.004429718281272916,-0.07508340793967806,-0.049339071030666565,0.18799508544556576,0.3884555335583098,0.0432272676271039,0.06643228021294072,-0.007662860711738259,0.01630101809426332,-0.22419707207842773,-0.2168980554931823
81.9186019897461,1.2991943359375,-0.17078959263901727,-0.04016441371883489,0.3319994262826615,-0.49557222781728816,-0.010507250435950855,-0.5454961797771883,-0.0007588792192689021,-0.05414614627661839,0.2782991102167229,0.4569870016022017,-0.2748668014685719,-0.23396578715316843,0.0823282910407541,0.17182358872582298,0.23175222802189643,0.16607832375611142,0.08631239794638634,-0.1322952323018167,-0.02023434540912661,-0.055859637062276195,0.038223611498966345,0.06789863849925898,-0.5599794512935956,-0.06019314900848847,0.037101735362523355,0.046296503230784984,0.04368916534976441,-0.02271477135143052,-0.13497433879870116,-0.028009281037087247,-0.03683178156471795,0.024330915350771233,0.010738406384180436,-0.04714420355932802,-0.013022531733922722,0.002513902826457478,0.09690275701309176,0.012105893969741904,-0.0238746739433524,0.03164183617216039,-0.03447178505459743,0.010818418718334982,0.063833362647275,-0.057201764081065865,-0.07286781332604429,0.06692473833212621,0.05643314298164258,0.02771223790186369,-0.03274833065668734,0.02910586511166597,0.13350047703501097,0.17645897900741575,-0.18118291875878922,-0.09883853986673043,0.1044537872160481,-0.14722136476492675,-0.08248301477071843,0.004566376235914035,-0.04219836176890432,-0.015735253268018088,0.043386510047190706,0.013175253061650728,-0.028210747855640664,0.01362395936885964,-0.05404709132332004,0.07673286379675685,0.00023401337975169356,0.5895805442060188,0.8336444935248171,0.19006883458387167,-0.08399845835347843,-0.1329234529986841,-0.3907671725479699,-0.1301534719689818,0.18186085250066536,-0.042390268571072046,0.12899655321527545,-0.18317257716062538,-0.1120528681407366,0.34250793177981936,0.34094968703813705,0.12260928902372979,-0.06839239763825526,0.06555721274695589,-0.08477944873218016,0.306146930424768,0.07202630583214911,0.022594634526835147,-0.6355633815844267,0.03729804660474081,-0.0011498161270939722,0.4931628796442657,0.45619252507704156,-0.01098296412506729,0.11017282278352808,0.4097038173900631,0.05581170810427132,-0.06568083957418441,-0.3238196365461325,-0.19461108948735667
83.2177963256836,1.3491058349609375,-0.2909902899672858,-0.0803463793788044,-0.18794859918428217,-0.5612838933624548,-0.9567564688793377,0.03870878477341044,0.038063094039712086,-0.18376972604791594,-0.16307690980973125,0.3609749452607356,0.1482898130809059,0.14850724934098256,0.2271166984494587,-0.10447225490351886,-0.37674116137567826,-0.47777510297410297,0.005173365602240132,0.477230405333181,0.1950021758602428,-0.10926218051009574,0.034408691157163274,-0.0014980460296346184,-0.12665714059290467,-0.027121637008290306,0.31554769006269556,0.07747838330550118,0.00746809847585315,0.0705497505131108,-0.07038837384953597,0.028368665897214804,0.009434249132928748,-0.0760735264552501,0.07459172915493081,-0.03267106891961362,-0.013995699590861577,-0.007059868226452026,-0.006248834071142989,-0.0016282784548348865,0.048677770640342496,-0.10367371145702818,0.02527020731818755,0.027492643799450697,0.07953979068233748,0.08190515816997931,0.08811555153913554,0.1052921535365528,0.12952299245771284,-0.05695821717628731,0.04145232370459317,0.09681801259791147,0.13862073663560326,0.0316890387989028,-0.05304508335627628,-0.06466048551794792,-0.15706365373476108,-0.1773115856182588,-0.07380672972062848,0.01442219808230211,-0.07840919016139969,-0.04563680331267377,-0.07036279147747775,-0.007783872143794269,0.002150617852722136,0.015995817380266255,-0.015890572166843215,0.22117374721697022,0.1996465757132638,-0.0037764398293956836,-0.1543930994616495,-0.3416780826312452,-0.24013424856595397,0.25661915868285723,0.40462476771477685,-0.044057922267055814,-0.11041272912979573,-0.1692914987285651,-0.3110971851227279,-0.3583131166447129,-0.22972072899871246,-0.019680295138122528,-0.40533559102930916,-0.03996939250545925,-0.45150538261302176,-0.20810487547115347,0.4522969073717222,0.35513926204465773,-0.07168708099412768,0.12413985811072259,0.2626392807172591,0.21938008407643042,-0.10388259586411581,-0.08540811693020912,0.2731493973194368,-0.07450415576462052,0.07590154727250896,0.04046547791799045,-0.02354470244565162,-0.40319332857505763,0.0028041842384111115,0.42189835116881186
84.56690216064453,1.3492965698242188,0.571685916419127,-0.2093930773708012,-0.22361738905965936,-0.13874001478924944,-0.19341653760644387,0.12811673277591684,0.015826791347206496,-0.13903905661388039,-0.07583685936088921,-0.45093720145141575,-0.5619517347903491,-0.04119425468517217,-0.028811272573339916,0.009008638394484703,0.0817976299895585,-0.011431770867282892,0.0032445953501688695,0.024308436118250412,-0.03548662577314585,-0.09846690367144029,0.0627717516905058,0.00023867627752873844,-0.017180870513877768,0.03944759160984562,-0.05220679274609617,-0.003960640733610472,0.0001406412402825139,-0.04929427188000364,0.005497027176665072,-0.07700963054382144,0.06341247376868721,-0.01557042178820758,-0.011974038707916827,0.025877342350077104,-0.13708671201615513,-0.04947896089226879,0.02831119619147332,-0.0022681341457453062,0.001803243579704506,0.04227847731840947,0.14431099434376032,0.019493946043048303,0.1496267309275104,0.031852290955183736,-0.13427753341358614,-0.1128432544469958,-0.03334568698962162,-0.03260170125348159,0.051643957279975665,-0.07967919514057259,0.1346946199857953,0.06269833526271294,0.023869870951985506,-0.025405842066568544,0.015907276207373693,-0.02403037641121097,-0.013904302471237837,-0.09429712075748492,0.022412566554718,-0.03465144049576524,0.022488541361816456,0.004405537582003347,-0.02265663787673694,0.17966525493792826,0.2558189167472509,0.27913141366045346,0.08932005175075783,0.17493798436789368,-0.12228412268468333,-0.1191354425537822,-0.25209248452243516,-0.3182341129695429,-0.041926900813176717,-0.12384678253748028,-0.04861835025609566,-0.16252578246144406,-0.006267701588936246,-0.3579404914770697,-0.25929939851012307,0.004920485897835676,0.1869414980650001,0.10144596781753717,0.0023548846991675552,-0.002112404828136863,-0.049143824854741947,-0.07881658765437245,0.19518536440325182,0.11442160657568874,-0.08369529870758517,0.08649625196987604,-0.027228283250559805,-0.17659885946744375,-0.08286639452305135,-0.18187200935401523,-0.06563211003086512,-0.05685189288137946,-0.0067486036300723196,-0.28119521577194007,0.17189327527063553,0.008480040631111768
85.91619873046875,1.2989044189453125,-0.02781523487256843,0.013815274676515915,0.2677778682616357,-0.5020050123695408,-0.33037938941825706,-0.5146027517125387,-0.26350804830594476,-0.1306225649490611,-0.32893516988621907,-0.45081787312503285,0.18867624565467842,0.028057727129927212,0.048726405861590924,-0.02374315625763137,-0.016793621596027333,-0.03819766083738283,-0.08943717849175932,0.13382371258790335,0.06102121160053166,0.0964188251863149,0.02053829408914226,-0.011184669086529833,-0.0026340618924897826,0.006996341046661278,-0.0688606347575639,0.008548035021643098,-0.027195190164502996,-0.0428591440882515,-0.05519401581007409,-0.036240068470101555,0.010619059842138158,0.01729056701294828,0.05456948959513009,-0.008690488759963935,0.09606870486631877,-0.012927356847689673,0.01894336932764101,0.0018974901796491648,-0.10149046210484539,-0.0071651091252523565,-0.02589406597213284,0.01967969063724248,-0.007756203587670644,0.05751557507934568,-0.13403866185151658,-0.025437177389507497,0.06491271692089134,0.02810720422803339,-0.0562798823483026,0.010250960670942324,0.1352958683895521,0.19957643453926485,0.09404580271095797,0.03206761712022547,-0.10990371951381579,0.026542644025197074,0.1149564843201171,-0.12200755232827787,0.042509396745089155,0.027330224887478386,0.003554307215467522,0.03442334942437511,0.0436105556071857,0.05490249894723559,0.0331527323933796,-0.11102673808564682,-0.26719469124127715,0.01154510910618841,0.1379953698620343,-0.008940577435418665,-0.14426162814522453,-0.3864983795699258,0.10306942377486765,-0.006033824952599878,-0.060693595448358145,0.17426845171719615,0.35631563288120444,-0.05328430630443808,-0.4006753263661039,0.0034701115024493878,-0.09920188199949286,-0.32744281566876693,-0.30984869218505295,0.13857736004081447,0.2080662964892817,0.1394274388220174,-0.04332561123422571,-0.38262997560553763,0.029392571368883957,0.06853271742406405,0.11862623908037578,0.10715515588724504,0.31254205426403375,-0.030083043632154676,-0.24116851967781794,-0.13809543291462015,-0.1665180660970154,0.14025734148832228,0.17332548764936412,-0.33200143371785856
87.21510314941406,1.2588958740234375,-0.3664466516593578,0.27945842782590197,0.8775227545508418,0.18319225034696918,-0.873665244372088,-0.061574878548636344,0.011801269081790744,0.3333048489851692,0.41734637179221024,0.9667652741691741,0.06966043507633178,-0.5052440807675858,-0.0949969150230377,-0.19165612896832387,0.020680378621418402,0.0554369320106891,-0.02460329002297663,-0.019366713048065705,-0.034968892541738975,-0.015406646785397679,0.06140763492719749,-0.07526897460795615,-0.02248376807104377,0.04241422192042237,0.03295474836757144,0.020571607428990554,0.016828273360115227,-0.02526085811839443,0.0717944437235289,0.010616433219421436,0.024438667403838682,-0.11706335592954017,-0.06404373882200692,-0.021611031109497983,-0.0068213412648703495,-0.03134677583794193,0.02512442483813154,0.02847846638515048,0.14291559394542364,-0.03960753262603441,0.01225539594868466,0.06401761667652614,0.08654227336347395,-0.04460265183771004,0.018420310944584625,-0.04542382997239245,-0.00433325975420357,-0.03501466736968843,-0.03228786871182103,0.10141888628154867,-0.09221899371007769,-0.04637078593562099,-0.14537320691607836,0.013315580269224428,-0.013497407505549851,0.004294689279085329,-0.0758796018003312,0.10378084542112292,-0.000505276877900346,0.05363701478407659,0.002384545274673874,-0.016016135471001846,-0.13073732400033258,0.01549398346825299,-0.07307964444407929,-0.01283848917132184,0.2775526714624325,0.029851548050069204,-0.5346455783635516,-0.26230376008426937,-0.039990012204719386,-0.013972401429307085,-0.008592317783567649,0.006030023769544538,-0.6238980035144791,-0.09601561689698196,0.10278043216085278,-0.1723794615765712,-0.6895221899552186,-0.17924054045589954,0.1961523380647333,-0.10178193733915748,-0.06876529978578379,0.12010971472811344,0.013210537248385768,-0.659392171309573,-0.3913126947510461,-0.14476901965540184,0.24737340575266262,0.21831571166449787,0.18285253930292017,0.44233277052133496,0.07387023050104907,-0.5231110371852656,-0.06679919330541442,-0.22138670870511445,-0.004018883026988031,0.24497602509332295,-0.16753141500410051,-0.11012088474513587
88.4739990234375,1.3097000122070312,-0.1473194901058385,-0.13718777476842692,-0.1539059961834426,-1.3302384809276708,1.6985932653261233,0.6212658999386484,0.09109557062847094,-0.006704603521807124,0.0910312403811147,0.2070845502519441,0.04146990292092483,-0.057309005071826416,-0.1559548457809653,0.14045586151296058,0.5038617354756401,-0.007134838142330072,-0.07548889811751341,-0.010159821855266074,-0.10204808879463524,-0.13301028790984132,-0.01916040690723022,-0.015748322653756534,0.023868759162556912,0.028534008317627306,-0.02809104971292227,-0.022627579896282005,-0.048372232243666866,0.035409385625529054,-0.049075088850410745,-0.02046897089359933,0.008525371294155594,-0.03023189991946512,-0.039480795622883605,-0.04842143987098743,0.07603935470383229,-0.025087591360973778,-0.010527177412077513,0.01357194812837286,-0.009856616489313394,0.03940992188078333,0.03384492585684044,0.045215698881788224,-0.03837571599083206,-0.15061024997460187,0.048402458630623,-0.03685204896188597,0.06237593069037668,-0.127055539530556,-0.12668843247791367,-0.05971986089847814,0.01667980669940544,0.15113282961343638,-0.10652694964717677,-0.11918604119006407,-0.10729536258228099,-0.09189017092852463,0.0005651879479726604,0.11717115834822033,0.017688177449150518,0.012876749236330271,-0.02187330981251694,-0.0933607675702527,0.0028457287131748808,0.0672724971358889,-0.07066203802555149,0.0940659901913252,0.11940716243224664,0.18564559120039176,-0.0666378469757679,-0.027927258022290218,-0.09579355072842205,0.03332574826968618,0.009505272543744076,0.03380791465832931,-0.041662915656099364,0.12173409226716618,0.3227245984364291,0.2547513413657635,0.5915292096152958,0.153435081455625,0.016147064675504315,-0.16648694069044562,-0.23522494294225596,-0.019065149285735716,0.34853406514211416,0.039817128861932755,0.0935693231129332,0.09895472170396359,0.051166007461863866,-0.4106334914131878,0.15276770164913792,0.6778020861662956,-0.04675181126125055,0.07061402301693465,0.06115605424374902,-0.03802129767597884,0.11551867125507004,-0.020005778337667944,-0.15517206930097413,0.17139611102553476
89.78369903564453,1.35870361328125,0.051559976451405254,0.2664483613958835,0.35441552337897375,0.8674420999605879,1.0422412772955447,0.16752464305415593,-0.30082493847812225,-0.05145945076054636,0.1916616899900742,0.2834586783027562,-0.6509240321435174,-0.06043032552253092,0.004529842588842075,0.029640461467799695,-0.038543620773614166,-0.049375973373678425,-0.025591982767728744,-0.001247011046050346,0.03044148357338751,-0.05043360767530812,0.009117052744667238,-0.08961543351694483,-0.026653154322921743,0.007011947575604123,0.004324574739874235,0.05481935023190812,0.06083545638867298,0.006053265486336265,-0.00793582765937959,-0.11515642271408087,-0.013661343200000762,0.04839667911494688,-0.04192653529811819,0.08975734038881324,-0.018701224410854957,-0.006646277779825386,0.0023842836010542824,0.017733532083455083,-0.01866494904797707,-0.10100867454279336,0.05325044623316164,-0.04921597415426956,-0.09578720386881225,-0.07369402515456923,-0.07228568312075083,-0.1214048437543928,-0.08154336692313982,0.13150235407410335,0.024717799289258734,-0.04928818783709473,-0.13831574561960083,-0.03179857210318964,0.10408038582591822,0.13143760718468925,-0.05208637913214363,-0.02203148177009026,0.013850807880759874,-0.046099189872231126,-0.052601745118096475,0.03966355817083863,0.009933772790822509,-0.02053345266699546,-0.01555149951292721,0.17358833241513053,0.37008188454935265,0.42652997786281827,-0.09944713410216732,0.14810524693717061,0.041237597368982214,-0.025108372560841724,-0.15386077272374515,-0.018348392508232267,-0.05537771623125037,-0.2695608129604714,0.0071550855806138645,-0.19106856435325656,-0.4641938363732125,-0.5928531417892418,-0.7417229153709421,-0.23714750028192882,0.21533255458571487,0.035836980841216094,0.10877258240275176,0.014436612293434473,0.31973065146266055,-0.31651771212658,-0.13496447987388327,0.5027969916839732,0.2763141715993496,0.4859240101118087,0.0782756435615878,-0.14303273690419765,0.1342839477077752,0.3593910498530179,0.07452729200405998,-0.3741544532376976,-0.21486770114973996,-0.10486900777623641,-0.48218647648521984,-0.663141666734821
91.14240264892578,1.3694992065429688,-0.7121172740630187,-0.17308102888555113,0.8622565107369273,-0.058403461549258726,-0.4160354193595234,-0.2560175700172278,-0.0688520766485794,-0.042720288276748286,0.14780237419193107,-1.0932532432872568,-0.13416696193966982,0.44447388369939866,-0.009399311906846064,-0.21513068837043786,-0.05087277007412978,-0.06703146076948976,0.06312379332737184,0.1335723585829944,0.15377719606379972,0.2202839495765582,-0.0036354628427808415,-0.029238926659421523,-0.047414620609867376,-0.009202616468228867,0.06943583936474179,-0.059338123899349504,-0.01852177427422553,-0.08465106255197892,-0.052957292611238924,-0.0594171641202814,0.08755049815448371,0.015948777448102254,0.05661792913707333,0.1084495117933528,-0.20534143613067948,-0.024721564097669253,-0.0011097371450478916,-0.02943121924142408,0.0025461961910082202,-0.05799788644947947,0.015868985261848226,-0.10381413604565486,-0.11799603645214579,-0.01454583298243285,-0.11972508446865268,0.01926898974410618,-0.07020977844323519,-0.1798058671943689,-0.009088101318338093,0.010638863179762354,0.07303195709262507,-0.12611137528868832,-0.1787660988486015,0.059021484943851246,0.08335116553387563,0.20446517013104365,-0.007324567696362897,0.05609670171038239,-0.05160321970072815,0.08016282948983518,0.016585877182173286,-0.0033399741618544347,0.017674070285094375,-0.01968655010746691,-0.3101499443263786,-0.7196558023757289,-0.1492944100619546,0.051279465345132835,-0.04387345880848686,-0.02507706697935897,0.050062394237766476,0.5176315519499306,0.8897280942134767,0.2889363814350331,0.694915169256034,0.3644122409307194,-0.4705324271712417,0.01569627572807336,0.06980907901045319,0.0019074499346430906,-0.16497649717797802,-0.5837920473125707,-0.4203975442727441,0.6825287012791543,-0.18236168502647362,0.06805265314655068,-0.15022122319073714,-0.4869433684339597,0.2885506731354857,0.128019239361867,0.20940035434370075,0.2530515494730694,-0.19519526784640934,-0.2155124167730113,-0.5478470263166049,0.07476071204502327,0.425085319244348,-0.41657651985472793,-0.40166127039593336,-0.4440971481577632
92.51190185546875,1.28900146484375,-0.4299798989921218,0.1782464103334209,-0.17929915056765608,0.138609821538133,1.0279271515885398,-0.31892133520878013,-0.017538796428540306,-0.18497086626161874,0.14333610492252558,0.6150156797850436,0.19779107629776838,-0.03880777520456474,-0.007322932552473315,0.045731663952340525,0.02874766997341057,0.08025311419280684,0.21255441595490823,0.08073033954937221,-0.019040059200605617,0.004502509661982234,-0.004053365245557522,-0.01861656660227451,-0.005175539204974239,0.014354797457269872,-0.06439659320662945,0.08484730919492242,0.08545472175762966,-0.003529648936529051,0.013094831921223175,0.021844769597005365,0.07065709207484304,-0.07397397232026479,0.037374480586902674,0.0751929577001187,-0.06346336310590134,-0.024623474427434518,-0.013582529575981153,-0.013235740262523152,-0.07978779141013355,-0.08926576527546363,0.05616941954459378,-0.07976927625481128,0.02783145207830122,-0.06386947616593905,-0.04613409657824209,0.05640226625603653,-0.08830520031440783,0.015699016961102208,-0.08592038402565044,-0.04801160343714668,-0.021758188272404763,-0.000712962518178115,0.002823620887778749,-0.011992077774511592,0.015558219085821159,-0.03892876260680852,0.0018148220330953015,0.07832391713148625,-0.06466637842751939,-0.07294044189505995,0.013397203375821096,0.021923010125099958,-0.20551322627438362,-0.2530078599464856,0.11031753304339423,-0.3458722956590404,-0.1854390439225504,0.31082460616319935,0.17927032349076424,-0.14370296342937466,-0.010737781200012807,0.10381032377007945,0.045505717281572225,0.056221413960746834,-0.08086397249214987,-0.37909397884301765,-0.527655090025754,0.1670659053113756,-0.1059671469130064,-0.07799365306055775,-0.0801998104541916,0.1203832674040729,-0.23404449578091374,-0.26922591669689366,-0.28252670780404154,-0.22889820641710412,-0.11216348064614937,0.0650676940358753,0.06886626407387922,-0.1254781083158681,-0.017573825770943408,0.055173780756868816,0.18375882209131889,-0.10261590447191354,0.473447430401812,0.5301285544522885,-0.16057458441559633,-0.02327870925117321,0.23489940141368407,-1.0712726332123017
93.8009033203125,1.2791976928710938,-1.1361275429058288,-0.2514138336351374,0.12116941258696899,-0.48457299566919737,-0.2960288306337848,0.5674687567037632,-0.005498975353284315,-0.018566764661348045,0.0704600908209948,-0.35382427112165993,0.10933464923119668,0.06167779440422933,0.01161360228855765,-0.040522485523107006,0.014487931524701759,0.07788463738650674,-0.0707266324110018,0.033419066407639995,0.07873196241536594,-0.09753610515722777,0.2436799865475784,-0.0539219742150148,-0.0020420663299898843,-0.10636711694996129,-0.03977270118014621,-0.0368936332543929,0.007817664418567998,-0.07148589957449765,0.030459530416189068,-0.10948685287155632,-0.016081595106829057,0.036066191033790884,-0.001764158959430824,-0.06590192793757489,-0.018473830816200035,0.035741582101547625,0.042705433178943694,-0.0001783734632171231,-0.05123047028388089,0.03388442395287405,0.002608169126459888,0.08384015100564897,-0.08099238926609578,-0.0537664283043382,-0.006787967154748688,-0.00964662121417219,-0.023103262150172613,0.07344112829882529,0.14681979006086707,-0.0989535370809585,-0.1460070562848104,-0.021361807783524662,-0.08547296248324124,-0.005088331480110493,0.17409690409373288,-0.2434065856956877,0.008013550077305615,0.05951101602948929,-0.015462112852965462,0.026257323830256207,0.06083120678610639,0.02417401024713544,-0.133643134683613,-0.03611621877060293,0.20424709954668685,0.20883394892477386,0.19374508777679256,0.23804705382767882,0.0599705196260844,0.037417074804192096,0.09475033041781229,-0.21696478827304996,0.09559834563517472,0.0032922201653363984,-0.09020323068131485,-0.07692018028614794,0.16554373631200392,-0.1319260842165811,-0.19007928761501766,-0.4052357634898973,-0.3901336804214037,0.18002241532703428,0.20570861747310765,-0.06086437007816055,-0.10207429652228181,-0.20126685271784447,0.0012901925609712789,0.10198875534410413,0.12492975306417921,0.27266130065969013,-0.22950300683236377,-0.17124161537339452,-0.15176845913192455,-0.017369762927710468,-0.0014101071188962156,-0.009827387933790083,-0.0768386856342291,0.03691965190898527,0.14913464797128986,-0.07705517427573255
95.0801010131836,1.2592010498046875,-0.029732198238569874,0.11279193490543371,-0.4903706234386068,-0.22175830468926974,-0.30863326945437775,-0.06015686274026713,0.04589817287288134,-0.14094171908122852,-0.08772615141057363,0.6007150857807663,0.9117184429301235,-0.08426434624371215,-0.15619622720882104,0.00098198866562641,0.08381315016323,0.05504114877731181,0.2503161787875872,0.06426983851648407,-0.17424559388934024,-0.05054833369910045,-0.03010506442750997,-0.03991369786147577,-0.04111291006648092,0.007793535886922963,0.00941127306326873,0.026757242064037286,-0.021556594258194468,-0.0017630187850551802,0.02021629446119053,0.05151808836982831,-0.013971369198252143,-0.028384669178822527,0.005597074485297782,-0.00805091789711644,-0.0606864814341684,-0.10383167156526711,-0.028263342762237433,0.047240549405288726,-0.01525530028044237,0.004390745773899115,-0.0009523055777663099,-0.005236176769897781,0.034986284817915776,-0.00836460711086957,0.02427939203760696,0.08107467062385716,0.03958292427429002,-0.027367144353540606,0.01860769201279623,-0.03393325977425629,-0.06565506625376508,-0.07938476312439478,0.07790616214473225,0.01567990336820657,-0.07663986606109063,-0.03183718153545204,0.01440132224992986,-0.06275187672765518,0.005395848612098573,-0.011395394848864626,-0.02894899609211441,0.005507618504538081,-0.010346507078758093,-0.06843048277958369,0.0676925075632694,0.14076902778385633,0.6437311960011672,0.5543782866126589,0.16364032341364868,0.13893687042087677,-0.07377864947127716,-0.07153363071940061,0.19411154196649355,0.15555437920220017,0.020538733186592564,-0.055669772759156494,-0.21592760629139648,-0.26075077963886756,-0.1585877018016557,-0.17575945901375656,-0.15823491526237565,0.3480821887127005,0.09025566721008378,-0.0712273180793161,-0.17642752729481714,0.1575502436171476,-0.029577893373989222,0.046875770879383154,-0.05012947954071464,0.01295023006995382,0.12894169803222505,0.5584600043357495,0.02126976013142963,0.13257087720654023,0.04625767190951368,-0.09667953232911666,0.17494276726947927,-0.07951786978488326,0.02150437479735064,0.13004395561947274
96.33930206298828,1.2690963745117188,0.26608208713584314,0.4407145754514724,-0.6413670052739904,-0.08937073842749395,-0.3494600965807657,-0.016596884504833154,-0.38989735435679845,-0.022609881330229828,0.023733632663976614,-0.018579102471096752,0.17542294650446133,0.09631161174071612,0.11440816590778549,-0.2355845726919955,-0.05034602131413479,-0.04215641124638663,-0.13735893372860197,-0.09778082014926406,0.02806933606488117,-0.01875554101202573,0.08335375046072477,0.03815615038549873,-0.0752443144009781,0.00024579626347594706,-0.06048082111915804,-0.04312869849330741,-0.03237616635287949,0.020425928191334413,0.0173056149269557,0.05317227727478231,-0.025807789286362452,-0.021853075428859087,0.0007055668036186206,0.029415687617841562,-0.007072837459899726,-0.12133828317570541,0.05850717674640423,-0.03267308980319021,0.03878706808657004,-0.04075229812628045,-0.056446416195950665,-0.04042490692550494,-0.07213178090816609,-0.07345900616897405,0.08618147224324528,-0.10917518729107109,0.021913630120597702,-0.00902322468133152,0.18940876071123028,-0.012718774952364295,0.20593376944440012,0.044878110197075494,0.05731479799450056,-0.031196005136469872,-0.06014328716265051,0.0535038153797682,-0.042323674822977365,0.10433074132298342,0.03812051991745056,-0.06968536280512488,-0.08093400822974649,0.008468078825953424,0.025647854600894263,-0.21514895809224258,0.005707732085229518,0.32800231816459285,-0.19261870439783849,0.14731757873583579,0.20886910744514062,0.011019204839922036,0.17069976296056957,-0.17960674296614132,-0.06252721629835421,-0.11417108763212726,-0.02574730666030925,-0.24987610720889705,-0.10782736016626648,0.11517349723881806,-0.20453333350266673,-0.04370088165245983,-0.015018301846707317,-0.038662397824792,-0.05401579661434952,-0.1334832948438273,0.19602517225486035,0.11223656999048172,0.29256798253259053,0.05131912716388363,-0.37654702972171233,-0.2615699572886553,-0.21960969800588503,-0.20350783999946162,0.5364313893188021,0.41689287451132584,-0.016669500962535316,0.05319853986216652,0.2359185064612038,-0.05248220140641417,-0.0694144416280843,-0.47816483268706506
