start,duration,0,1,2,3,4,5,6,7,8,9,10,11,12,13,14,15,16,17,18,19,20,21,22,23,24,25,26,27,28,29,30,31,32,33,34,35,36,37,38,39,40,41,42,43,44,45,46,47,48,49,50,51,52,53,54,55,56,57,58,59,60,61,62,63,64,65,66,67,68,69,70,71,72,73,74,75,76,77,78,79,80,81,82,83,84,85,86,87,88,89,90,91,92,93,94,95,96,97,98,99
8.663949966430664,1.1185998916625977,0.01840842540605349,0.0022651633391061066,0.07102386864976258,0.24541993968568698,0.2709695224035103,0.3726767717452509,0.14186038697920628,-0.2815625244185969,-0.5904410586702166,-0.21308439143228758,0.031722936453947324,-0.055062715399576155,0.05038075532597865,0.04090363758183401,0.11706607458761129,0.03863193895623499,0.21433004185632165,-0.05318359896947991,0.10738479498029861,0.06574501087682137,-0.11379064259746859,-0.05288296573789393,0.22960646566649523,-0.09397168258553812,-0.026954563380903185,0.06509523692950374,-0.00695896519443273,0.19140750323496425,-0.12681592736594033,0.15648209421438383,-0.18365560381644086,-0.06271130733170313,-0.38272515227754644,-0.38334652748844694,-0.03489181126553972,-0.12705846364548506,-0.1695815281945046,0.13363631353934433,-0.32512286425149634,-0.038240491252451284,-0.38034735862766245,-0.22219608626516318,-0.1276376802415741,-0.24850864113589446,0.1634614246241168,-0.08988595793715505,-0.008140594809367012,-0.30160905483949013,-0.2022997957246601,0.021496968030811667,0.10246849180684829,-0.09730777169334248,-0.061163932246660876,-0.05758284973302219,0.10142429331351774,-0.0790261041371864,-0.08860494657424783,0.08642266153822406,0.16178022771291198,-0.03958262373897771,0.07188617688812274,-0.09265593891133582,0.009190629188514834,0.09057391433896732,-0.05302918121477496,-0.07298991582413818,-0.06293686728082504,0.06448706135048785,-0.0007973337878770526,-0.00036343886280220273,0.031186892557354195,-0.0368576402527211,0.08804557236701449,0.07981170285328015,0.05320716769803237,-0.014379980265090112,0.0034850420484508413,-0.06835319700458983,-0.011052485386300909,0.09297707172232558,-0.04411055487138986,0.032980151339759844,0.07564783188463092,0.05795864265759624,-0.10391153213623633,0.08225061156148558,0.16346335802376172,-0.030481326961721844,-0.06360145832466112,0.039272060327148264,0.046775496356638274,-0.10007315131347302,-0.01084218073043243,0.07223795468966754,-0.14161778440907155,0.032960056255139265,-0.026757371994477197,-0.029241905786774165,0.04762562857089005,0.04715912495101293
9.782549858093262,1.1086997985839844,0.03919950600567053,-0.09333695611117074,-0.06396364766477315,-0.272352278739916,0.05040410306907993,0.13150087229849544,0.3630117048037014,0.09082136739152454,0.18252190309901337,0.2696227417563592,0.02171385745926485,-0.10591812033643666,-0.10354361593713038,-0.032324901347295446,-0.22362734479577592,0.051243822335850196,-0.07684826910313738,0.058754623635474665,-0.075846879330977,-0.04451657907630025,0.1315146754668223,-0.11597444347495738,0.04771339107486662,-0.06603104988055383,0.10929562686889022,-0.09598578257370091,-0.0034391241406652104,0.074471892950049,-0.07298274417099303,0.01134246273575707,0.020905327072974274,-0.09504379740728759,-0.009493483384236112,-0.021566453753219493,0.06650288959284445,0.026027052022007738,-0.2618504859192591,0.11604622412775875,-0.18793722255268935,-0.229790375328496,-0.1150500561698248,-0.08364366083655866,-0.03878048986350948,0.21971507528574086,-0.3632193693332165,-0.33682729021697316,-0.007943567153639843,-0.11774944860407889,0.15757371792936975,-0.2764186963258449,-0.1320317814076241,-0.045096687672980654,0.21677546700944048,0.11384608943260116,0.17766128052294058,-0.05223075248992137,-0.014826306382507239,-0.08082409365383725,-0.058252320875907065,-0.004956202174249538,-0.04389560353796468,0.15517638901478967,0.03866093313051346,-0.0926328466534485,0.04309308376902895,0.050790705370814856,-0.0759553550644353,-0.03975388700294147,-0.02659486292914642,-0.058836415304745565,-0.10649352787975083,0.08366803560298253,0.015154669771778689,-0.026235800045339375,-0.10425900698479446,0.002081848861406083,0.07909786236942302,0.07161665497418415,-0.019326269204648572,-0.016007019316101396,0.0985473779572647,0.018081162105124227,-0.07329551043172425,0.0035069880160394236,0.06737044711874203,0.009192448428679865,-0.08328828872912564,-0.009731837330629756,0.08070285759356595,0.18499029663389616,-0.049534590420120865,-0.0069145935674823494,0.06646131650405424,-0.056542894669804576,0.1409790880190218,0.03353300964190971,-0.03853808664302115,-0.010014118733512649,-0.08277777189648175,0.08241847071733018
10.891249656677246,1.1387004852294922,0.08973348338360188,-0.16273579185779133,-0.03549601479202447,-0.08837751617784234,-0.05386046395230986,-0.08438649979297624,-0.07601996886520968,0.05978069696780646,-0.10390146742772415,0.07302898286959231,-0.21438238993546488,-0.058449012063178415,-0.0673319218267312,0.00842925300764548,0.05037470560524489,0.07532153522597865,-0.02650426418151796,-0.009283600870785322,0.1163109670829246,0.026466067059886654,0.07543781092907122,-0.13306706749841765,-0.01053909329203285,0.15563657237166525,0.09259520627532156,0.016303564530652875,-0.08170844230025057,-0.0288112783585607,0.031012508704487764,-0.06750092361758973,0.08275930638490847,0.11459258642036975,-0.0009475701559961969,0.05426935688862572,-0.04102787032762006,-0.22313795036581655,-0.02908489077696407,-0.2880996404469532,0.057809917150463776,0.0014850090351500125,-0.15829734198033454,-0.16991113041597153,0.07329643504700464,0.0439645432072491,0.15402527746104233,-0.20569531540702393,-0.27601899245649353,0.33001244924135875,-0.12124022086830255,-0.07606868562512824,0.3783108457050108,0.053454740991952666,-0.001259346229053317,0.06797539710784642,-0.024214113324829572,0.051491712236093924,-0.16612514401818573,0.07032252428657344,0.04967608594675202,0.001539474345290864,-0.11057990774757274,-0.1828135530117191,0.04097172564647525,0.06243613073435547,-0.042511147348355274,0.0842650923787023,-0.07197542607877444,-0.007481394881788339,0.06837856084424918,-0.04572316853945474,0.03236580044434864,0.021450076611233534,-0.02884437714377456,-0.05987782361444111,-0.08927212606370742,0.01611185352338174,-0.05642673802320822,-0.15946823507092495,-0.11873368666846718,0.053260735352370026,-0.08204172062514221,0.09603696538611355,-0.0041513407164553385,0.13784681992129455,0.01839802699188941,-0.06281254218835178,-0.03738286308647374,-0.032974095200364394,-0.08140241176792391,-0.0020612055397321444,0.16092312263661174,0.005908449392532347,0.20790125428287423,0.08041463931192927,-0.002313212885336881,0.12218048232462937,0.11461754516275796,-0.08665267677857452,0.06244790867153827,-0.0019117147810657764
12.029950141906738,2.636899948120117,0.0047607381873754,-0.0524938179567663,-0.025825487298408917,0.00826335825177908,-0.14839231247491977,-0.06379214075775871,-0.4330457307035458,-0.049671101705889606,-0.23775341486755916,-0.22035295956700446,0.14743691445429588,0.09593353297090461,0.13535389090464234,-0.013919659944686313,0.026723972157559728,-0.056559295426845936,-0.019649546844627164,-0.1714799167974149,0.04886876966566495,0.01225968734028357,-0.03620280389289332,-0.07818697510068319,-0.021997368105841308,0.07881802115814915,0.01036721748577879,0.09790204197902085,0.13135740220482703,0.04052858932252812,-0.01775731023522612,-0.01436511702628164,-0.044494247571049035,-0.03611681336146172,0.19630366937213045,0.10116856462808659,-0.1548281048551946,-0.05075269492278382,0.11225760891552956,-0.11458714740092885,-0.03203630092607658,0.04052803880069048,-0.09165261201077074,0.0050550530098168595,0.37022917985355125,0.22055362362929962,-0.05196243900459055,0.09288547425936661,-0.1524262042112567,-0.18792047369267073,-0.12149259226697007,-0.016687578269030293,-0.1449163471371277,0.17232119570152538,0.05122780022337507,-0.01873677904228501,-0.11728594354836472,-0.07070766262366122,-0.0037355549623352886,0.031186725964476834,0.025277849838017577,0.009202225498857738,0.0061718635683596455,-0.049346189726242135,-0.1624577026218464,0.20040064299361568,-0.0025981221499442406,-0.06035134812877919,0.010152651638128105,-0.11661513867327965,-0.01139450907228184,0.007073300514830841,-0.03328328935639313,-0.13632844847981287,-0.021314964524409848,0.037408428419150735,-0.0409938987280103,0.016391723745376837,-0.03944334619704827,0.060984445001674735,0.042917317444964034,-0.08016242283197769,0.12651372141472697,0.0934297134199012,-0.11400714059085817,0.09748987074361605,0.0014300047930704844,-0.04642967176854595,0.022704558196162655,0.016754810848819704,-0.09185969479950294,0.05010419797194954,-0.006308775991960103,0.08266018077938347,0.12072878147737914,0.01566483081133604,0.005557819307542783,-0.10967666205090604,-0.10407226089963985,-0.06604858792518577,0.09514053572417056,0.10420146926816412
16.974149703979492,1.1289005279541016,0.02287623694295922,0.0004883337103123251,0.21737043721118532,0.04372509625174663,0.027011739683962505,-0.005825506467819042,-0.08421979558617244,0.2148534774434581,-0.039645885359093455,0.008228403885090654,0.07424145912809663,0.0204022285175389,-0.022909462333229446,0.12421982346924448,0.03742736541730899,-0.00029996781519160166,-0.07506713906176722,0.06008820626264522,-0.03580175575052343,-0.05148552667464348,0.09763836394944594,0.012726564845773086,-0.012304229986260424,-0.06316287539033202,0.06173352213191493,-0.008672153819721626,0.05643489003125151,-0.04114477349279345,0.29618827667808156,0.21327823859597653,0.01157190238877337,-0.06203413615918598,-0.0314762467834902,-0.0358269948324422,-0.0264644135144165,-0.05708317820991386,0.13507798585808903,0.03590300407854758,0.09914626940620336,-0.329932734524032,-0.0025207934671154994,-0.14733442306723793,-0.09063327330906551,-0.1449841071712584,-0.22827498646361905,0.21475012616979505,0.1613755889468393,0.27760377538203684,0.08258967741979016,-0.23724266891116597,0.06297464312525007,-0.16917034348725618,-0.037970019292112495,0.24521983040493386,0.12073767506873334,-0.033193543638720464,-0.04009016393093146,-0.03547244342037434,0.03458618233926691,0.0012644404666509988,-0.056298315066102465,-0.05236530510048394,-0.11161585844945338,0.05311607730542017,0.10419179996212158,-0.013002661300871644,0.017716478057614886,0.014896956432210987,0.028412595422828545,-0.012464595732405376,-0.06132367781974007,0.03205255939454496,0.07887161435417744,0.09581242843552676,0.007561999953046072,-0.023739821392954847,0.011735114620961384,-0.10120080717759634,-0.08746710953477627,-0.020295818579357933,0.1070391341943647,0.11647948048443056,-0.037189564556307904,0.009042569663420536,-0.01460804930988999,-0.09201808140156756,-0.045348098501609535,-0.016023583993893302,0.0653965883784418,0.08832645429578898,-0.3013129501267508,-0.053098072423773394,0.0696586332808562,-0.04837880270274379,0.04515262775158834,-0.056670436236307,0.07323085712063465,-0.03936503014053022,0.045656702740305005,0.01722875808702863
18.103050231933594,1.1287002563476562,0.020149859051506843,-0.07109948954541681,0.008512329594593984,0.06734170750882795,0.2642298430117491,-0.020518134411048335,0.00922579533645286,-0.10890963559883107,0.07310411118391921,-0.12244313650558224,-0.12789160169541033,-0.04220026987513901,-0.07023491327372063,0.11796941119189266,-0.07836180920651446,-0.0481136501513321,0.10121988277536902,-0.05310805221344128,0.017695338081652336,0.04443148099107519,-0.022538725116070957,-0.01654572605446586,-0.006478375924257072,0.01780052833088039,0.02173461112955756,-0.18536890834340372,-0.09910659699210903,-0.13640711283585216,0.013776059644724606,-0.07873293693741719,-0.060417955448928196,0.09862023742491041,-0.057093658727691884,-0.1407880261785041,-0.09622517188819713,-0.07536970374190743,-0.2492297414947861,0.021064490934904728,0.0037487663202153644,1.689406782899583e-05,-0.1495630175565571,-0.039919858249195694,0.26706412942104885,-0.2988467971826892,-0.25767669387235925,-0.03973422025247104,0.24572108302052464,-0.28403072089984593,0.28655990233784717,0.14418049927107685,-0.3757303579254428,-0.053471082553960755,0.11591216071646653,0.08324874908626179,-0.004571392963652988,-0.03897410130498864,0.01684655977071103,0.0047908746624276905,-0.0218674864177743,0.013045751530892338,-0.03727118162692496,-0.07284848819197878,-0.01989726230942146,-0.026114240607735484,0.05008510320046791,-0.08673102176898742,0.009361673490894364,0.02377559478069121,-0.05742217977047434,0.004338806392743841,-0.046813858825764526,-0.012858817659015837,-0.02773840284929246,0.05002864639112889,0.05059007878454999,-0.0612194755356425,0.059601927361322006,-0.06301399637472234,-0.019121356504976657,0.09898065118810334,-0.06374268931122531,-0.03823097502521851,0.08611947729261622,0.02831748747052181,5.359728733358472e-05,0.013294737151667223,-0.008873431523127152,-0.015544783371620383,-0.14371260638778166,0.06349298272511758,-0.022438263016502633,-0.025198694760225925,-0.04610803039859752,0.03118094140046747,0.05350351767661522,0.023046812310933203,0.04164156822513995,0.024835722126288193,0.05145282298985512,0.0027014192247946187
19.23175048828125,1.1086997985839844,-0.001551485692109826,0.06368980457761494,0.14800499451965346,0.0721700222112311,-0.06004771760128816,0.06141597207575761,0.2600511382555868,-0.016678515798011176,0.12453387952058097,0.0006825502484672005,-0.01697306779277298,-0.09643539862085321,-0.17811695234717848,-0.17080256636833194,-0.16124584697699332,0.015103178409008869,0.24615930341861333,-0.13643524776248825,0.030432496604654108,-0.13890585130057687,-0.0793790318522615,0.12252095024491205,0.043052155134656954,-0.009021740133263593,-0.1637889921976694,-0.13607178745009063,-0.020432146577836503,-0.008285381677200013,0.14740659773804615,0.055003009555852314,0.01640546815279807,-0.07236873246187883,-0.04844236218513096,0.06873385051064772,0.041388971490918525,-0.07851921734852767,-0.1444777056558717,0.05411939541509762,-0.165954492532312,0.17261078539610375,0.07848617074417735,-0.0323296866035139,-0.5643693781471311,-0.08580810444909612,-0.048324607360609374,0.17033337921751457,-0.12336065827947948,-0.19599534523787013,-0.1594717766199695,-0.006491995129527049,0.05026652697537977,0.08714061743963178,-0.16925088365131818,-0.07283694661046464,0.39788854635988513,-0.08726034916126424,-0.06464949978755695,-0.07690222870457776,0.04131145912238757,-0.038367528074612425,-0.06677459883651377,0.034626864598883644,0.06744977484584415,0.06821622436838078,-0.0463098839071511,-0.1982866786405393,-0.014282181251605722,0.06297634438975501,0.033287587800380616,-0.04590159597467952,0.025547412309813496,0.04909224111763999,0.0952778122793388,0.07176671950259224,-0.0006307686536732257,0.09863453806388697,-0.04993039763385483,-0.14030334174131032,0.03994780144909435,0.1166390640189176,0.05021995146508815,-0.1369547153147988,-0.04161789092465443,0.03319809642790485,-0.13429536868085146,-0.03602904554275915,0.06848821009364725,0.0063804196170236735,0.03511453434415179,-0.11373004401027295,-0.01981913007769381,-0.05087720054766689,-0.04422014946991672,0.15997130449826308,0.04585762130938848,0.031185663901172923,-0.03639117659406538,0.10198984810201142,-0.06074820997982234,0.007549238426239077
20.340450286865234,1.1786003112792969,0.00572901734197888,0.028838335860379694,0.18167086684988024,-0.14478674195826596,-0.027154182654886724,0.21563106445791,0.024222175125835594,0.09893813075342434,0.0008497664643178776,0.09781440703922262,-0.021197927713009185,-0.0001989535143126775,0.0781250527739331,-0.03900889350485428,-0.08076022625639354,-0.015789795019338707,0.03372633949175809,-0.06214434039200317,-0.07268417531007762,-0.07644263476465823,-0.14815508993708054,-0.003653201747050754,0.03390321660559003,0.058265622016360465,-0.07752495604494802,0.0022831405679700073,0.02060700926255165,-0.03290242651455001,0.10105846212169299,-0.1037577715810881,0.03217184579430807,-0.11004643241390402,0.016839560395195997,0.020580383513031167,0.21631183265550494,0.21014008930026967,0.2280655008227517,0.07257477071699564,-0.0007691479547147148,-0.10898298006600905,-0.030546030532198433,-0.01286948361646335,-0.025884445736270786,0.18032184253762407,0.1567611833326157,-0.11675100693806667,-0.16401427023920112,0.2167093332405232,0.16786311505055093,-0.16590652243356707,0.43871209925520976,0.05502612879164435,0.05045654456318352,0.07803595486055423,-0.2306804651175944,-0.02922213223929575,-0.038753269056527435,-0.05222574430102963,0.0090957793034836,0.09491039806843565,-0.0016825842129220326,-0.08784597876568073,0.11802328554829694,-0.03646878909592926,-0.04582042431181803,-0.09610631109058511,0.0914539806324624,-0.016451406110318686,-0.11436641698892391,-0.08107080880672277,0.019303975681332214,0.000682279968672905,-0.06210405266004533,0.012343833061618598,0.13903481358506994,0.10496576228357217,-0.1535078232179803,-0.032670818308697565,0.011575155510780383,-0.14816184861337084,-0.04893806838800392,-0.04582583694052514,0.08530443484721661,-0.008160306225399299,0.07207445587861716,0.06216837222745839,0.0418357590684514,0.046430325430933575,0.06805395323115515,-0.10509149023893452,-0.10118480816213493,0.09667879403201098,0.05254172019321582,-0.08649238799202102,0.06447986256707594,0.002388700027622824,0.09130445574004695,0.059208681691344765,-0.010534160665743472,-0.013299739758522798
25.83424949645996,1.1187000274658203,-0.06803862028590066,-0.11118280573790396,0.14317042366475485,0.15005987109383634,0.20794503982812945,0.18982427531938909,-0.10090020728421066,-0.3549760229712659,0.13832982179870143,0.0025357011355289475,0.07268176707591925,0.01400286008764069,-0.01246583670098856,-0.0005416585599850384,0.008424091675987762,-0.1002562388475295,0.02612034934496464,0.1564344700613962,0.11276709634737858,0.019009355078064713,-0.13422699701205168,-0.04676213928596575,-0.020469667041067084,-0.02941267540493872,0.0488592400769087,-0.03553734936796307,0.0419063083088478,0.06154026963171385,0.029484514258351968,-0.021018670030002604,-0.20139056944520375,0.02568956003020118,0.104717606303092,0.06026168408646121,-0.007591591847917464,-0.1552686106791821,0.1683793237698597,0.01775181190060774,-0.05203631094447736,0.08826549286426992,-0.06110609945557654,-0.21032860007349777,-0.1139203889976715,-0.044779633139534175,-0.29977180959858846,-0.3133816662213804,0.15941514086072728,-0.20436125701003266,0.11775389552358623,0.05821813992570893,-0.027037102086748862,0.017389641016554637,-0.02094894998645755,0.09452943984582982,-0.22343247946546502,0.050061293460894246,0.08634575171163679,0.055246187272976734,0.023451840042284348,-0.03091552013701164,0.0005587014539339067,-0.0025226770316397907,-0.0249433529671401,0.04554815172301398,0.005965940216794838,-0.016727034032962742,0.007596936957718835,-0.041508280762906455,0.07143007906136044,-0.06937135580019688,-0.03491774414071342,0.04495972267942358,-0.044583175872322724,0.0817666773336552,-0.06542288629041346,0.005192505094173497,-0.021790752529861627,0.05880383762002297,-0.001217058725004383,-0.11952947170784958,-0.14807153682279245,-0.06791705539130709,0.040659075685194446,0.052125550542878187,-0.04837246630032749,-0.03975033598665682,-0.002292680044872776,0.0755160434708361,0.01778318483988773,0.021950273707574033,-0.06996694819586011,0.0037070451206832793,-0.04637979355725484,-0.05777326607312101,0.18746791117406178,0.04121902027072798,-0.1624829976227982,-0.2019091698182079,0.0014216321150905126,0.06941292603548592
26.95294952392578,1.1086006164550781,0.06381964702797356,0.034187685181552366,0.19789907578487165,0.0702424030990388,0.08646939664145759,0.2322041293829878,0.03216836101964437,-0.13938327243063992,-0.0288438220425555,0.05664812263887748,-0.1624990316571109,0.17901764807530457,0.06796050758102201,0.07457131992669053,0.06673761171399437,0.020342301020991053,-0.03052416845608578,0.11752107491170849,-0.058806261087332556,0.08731588257671823,0.046136497400290764,-0.05459284031058621,0.04910840915955522,0.10982974378491923,-0.04308147589520335,0.12542195076517212,0.031510570153929045,0.0034305949378718023,-0.020634087133365897,0.0025285786629111046,0.10228466814099466,0.39616593844095455,0.09903369215612717,-0.08420364434655578,0.17467365341799296,0.22059894492627088,-0.02917013128419907,0.05023196787202041,0.16935809472094923,0.055079187882638644,-0.08298656267129201,-0.2547774451650532,0.06140430759671822,-0.19864252067151084,0.05598130296439021,0.24389444395408377,-0.31035575521227005,0.12060011346367236,0.04307615246543211,-0.03901588170224296,-0.3552793575930235,0.5859327978406066,0.16684018300201856,-0.14023829458597004,-0.060802842650580766,0.033584052960573804,0.016410558013315785,0.06964166729771293,-0.15164038893451803,0.05695655100734456,0.021384138573808942,-0.06190082075885199,0.040737589244351835,-0.1906303079147614,0.13864484935298993,0.20811561374639725,-0.1850982288950394,-0.11493319542235296,0.04835864663747497,-0.1131343474503412,-0.020415639311939168,0.07115636848172878,0.06305363023055942,-0.056176465913419335,0.08814665967453211,0.09066390818861336,0.07343836805109633,0.011281166441560833,-0.12631090237306003,-0.1566672870761373,-0.015585123335783007,-0.03819198211753886,0.1011488765376133,0.07725355689800711,0.059748224812012925,-0.047970274518071204,0.004324285535221685,-0.0358212961392495,0.0879892406821953,0.034028792743420314,0.02495613371607404,0.04607317221539444,-0.04839207421200027,0.006152955369026843,-0.11315194131835886,-0.08444404630120647,-0.0772039952968397,0.054582394438864555,0.012644261216239894,0.047538960025088735
28.06155014038086,1.0888996124267578,-0.09462220959890129,0.21576363240648977,0.18703836757298797,-0.01218027911882371,0.09962519911882663,0.43918699697161445,0.21147771431736306,-0.2763709114335135,0.22456810875891092,0.16003533361783895,0.007750231495159757,0.04805472049081702,-0.09926886731123521,-0.12057042815228795,-0.17594382313488274,0.14582250290444382,0.042440290718783955,-0.04502938576009437,-0.21348217255590657,0.03388921704055714,0.028865098157778872,-0.2183135440632452,-0.04769791105519853,0.01988422944868566,0.1237283925345197,-0.02147114682053064,-0.1277565264192989,0.02545090888779797,-0.04746949259525192,0.017572849239841707,0.10388312800191273,0.1482229243993211,0.10707207581158977,0.18350203032598214,0.30213014031156804,0.10807361786574801,-0.06390476211542288,-0.06990846735626745,-0.3512747823927597,0.30083701306390165,-0.04956284443773612,0.14464537021819113,-0.11526120219756181,-0.25572379531721556,0.13019017835512636,0.008170358941033776,-0.37370126509270474,-0.4545096175527653,-0.049799306154347855,0.008508447869209646,-0.24985151930147065,0.07290548734100415,0.08274613223567433,-0.12982951648352561,0.04907966862959029,0.03136564022169249,-0.04307821608712825,0.06085245280450355,0.02588086992833632,-0.08549418215470136,-0.06543731431425523,-0.007618751790687091,-0.05637704814577357,-0.06353717526510057,0.010504638839115676,-0.052393831077557816,0.14885086471399167,0.09818785722951698,-0.024272860609942302,-0.03015993434553653,-0.023491578451599975,-0.061975863589894556,0.01661258695284217,-0.014513331296706674,-0.06139456848541191,0.0011781395069793696,0.03196445905800005,-0.0604816489068049,0.014507093681298067,0.1206641883318026,0.031210617771091888,-0.1109211276059411,-0.05353631374603626,0.01960242859942335,-0.06744093633484755,0.04828696794601491,-0.03654384805304457,-0.022191752401587873,-0.05112815729106075,0.0137265095733753,0.0069305454669229246,-0.03622644457882314,-0.01332496008880946,-0.05861831060914674,0.01727861582972883,0.041721462209379466,-0.06862362413932376,-0.005456282004366267,-0.02898770983963013,-0.1282375977338127
29.150449752807617,1.188100814819336,-0.12596274741369903,0.017722685415903428,0.02676153056421697,0.024593922296826564,0.19224881414955636,0.40240945717584076,0.28348782282481977,-0.13368998578854993,0.0034139105186207427,-0.021468624890264125,0.002419781117213894,-0.019964061930878393,-0.19243147837414193,0.2381103566178731,0.08491337874953878,-0.019486975813334695,-0.031267881319915904,0.03833608223949372,0.08068314358573424,-0.006675548569505609,-0.3032305087877184,0.1530918957018239,-0.21511170844418503,-0.20209841033620368,0.052702883948095774,0.022774030220924255,0.028436178521460284,-0.053560140484952404,-0.293644656741831,0.046331391108978714,0.07787480589630366,-0.012999183904081876,-0.020125995849899117,-0.05212100066375369,-0.04809922350629558,-0.04545962172859658,-0.17870232058813124,-0.06618165180957061,0.29172614507238465,-0.06546329677633315,-0.09571744142200775,0.2206933118504046,0.053215883670533,0.09647861547260839,-0.0035105308699695695,0.1153693056827237,-0.5104065545776062,0.1971224699442473,0.3076986923876176,0.18645993167997293,-0.3743567502234244,0.03407263421608389,0.005976273964156665,-0.07570823990868804,0.07749462386751815,-0.2731759871838885,-0.15451303668443916,0.006144940859026116,-0.028322930890241772,-0.0014207866057359773,-0.005099502726169855,0.05402980119968197,-0.006909051779714664,-0.027186291132590013,0.17211554443144436,-0.044026283371626396,-0.023112793140830448,0.19520341908265434,0.049279466099505925,-0.11429178328123583,0.02917465815348366,0.025906670698718014,-0.033931217131246263,-0.041835035627749026,-0.06424662113845744,-0.008836381739123711,-0.10431525787412581,-0.09067871304855299,0.031930424864606684,-0.10183134173975322,-0.05044366873156146,-0.05063672746153387,-0.052010812494136735,0.11971596342266738,-0.10136848306990799,-0.044168161368002105,-0.051465543294725365,-0.03085695190871198,0.04560566397168649,0.10516613065809251,-0.046011032830762764,-0.007980848617652248,0.007445646034407915,-0.040689899013527146,0.19772946769260238,0.10714861721544046,-0.030196534127928384,0.009646445854789912,0.023433178636457358,-0.03538783297424028
34.68415069580078,1.0887985229492188,-0.17865723399270886,-0.031843462509022445,-0.2540746915752136,0.15537126683759303,0.10439605338229312,0.08188996777457028,0.21775339579952624,0.07601591309433181,0.049097531303574686,-0.010790781345425132,0.0022344907512840784,-0.1218277143619232,-0.16107880215153594,0.07846599265003806,0.047479904093830905,-0.02619697752768059,0.005402724149921352,-0.0017227363298887685,0.032366558374972626,-0.03662799866825917,-0.06538127468055417,0.24417244446931097,0.21903803249675619,-0.09786842865435415,-0.0360873887330483,-0.0025280582440784932,-0.19161670079381116,0.10839656006416383,0.29125828829070455,-0.09623686251787976,-0.05041181290993381,0.0731547762670168,0.0532948350660373,-0.038951842794059444,-0.08707636305634271,0.08165287274150473,-0.006915502836075097,0.13635953390166122,0.27698650640618727,-0.7009844645082403,-0.05790099731195174,0.21439423566074448,0.02831202484238088,0.1357313947352214,0.17495358887077778,-0.130649770875981,-0.15331610257828465,-0.10131018294559177,0.01636715475454689,-0.0773602691890586,-0.5357940390938309,0.021021447437415835,0.2671918812390641,0.026166925948130856,-0.07674260248797858,-0.0653341666893531,0.02492571313457936,0.0910840033578914,-0.05190753666490961,0.07856404719926999,0.06756971177800139,0.008222908172071662,-0.008063666237343062,-0.09123142658661641,0.028706589173085627,0.06614546033589526,-0.08296531217207415,-0.0222739790233749,0.10449222669032801,0.05858350985417607,0.013610067351897634,-0.06825676175800158,-0.0033529948884579996,0.08436500505628737,-0.13453687013065432,-0.040134087639035594,0.038218986906346,-0.032579087053396336,-0.2199131002739258,0.02698495564151124,0.09814364706771446,-0.09930374222121988,-0.03303185526431318,-0.051137595226967,0.04737183756919269,-0.046287565851708345,0.023867784230778778,-0.07750839763615966,0.032516108364907814,-0.014502521702872858,0.014244117585917067,-0.020802542882696926,0.09396042988034928,0.01426861618540914,0.020708025979363484,-0.021644335736670902,0.11419904645206296,0.005043376223832385,-0.1103190212967381,0.0168860347754637
35.77294921875,1.0786018371582031,-0.003995452619158249,-0.260088440401521,-0.23644250798971994,-0.0953366861874656,-0.02704512546578946,0.06023173112581229,0.13054410038734882,-0.03630285837524386,0.17135300134131518,-0.09087784642134253,-0.06694240182540927,-0.0041017449886611955,0.06166727787223804,-0.021813218822588985,0.052284454328338455,0.3187518652663385,0.06250407638252092,-0.0664538928601286,-0.009392144026344971,0.15203789012144173,0.1716703354848734,-0.04301695115347695,0.027637303978347738,-0.035602008116999775,-0.07242794259978752,-0.21285677604831466,0.029880762683417817,0.004083537388051025,0.14963108058149982,0.021932745904238216,0.051525605330617646,-0.0922605016006017,-0.07192219632596718,0.3734045019808678,0.0007384794247564941,0.011135964855602322,-0.03557554423773708,-0.12912305573707875,0.03787734574740516,-0.07250408497682381,-0.11488338504508447,-0.15404088547819078,-0.35352795756458355,0.048353393679104247,-0.010109815545345001,-0.05842574772944353,-0.24623297730431687,-0.10716633921303893,0.008776082573349588,-0.0460772716469574,0.10231693479699461,-0.07567831665428396,0.12823431981736214,0.08528656123669051,-0.08002270242468959,0.06148605836376234,0.19871913365695773,0.03560298563218806,-0.27268472463041943,-0.18518933792953116,0.04959315651472968,0.026457209584886586,-0.08037642547494178,-0.06803595443468992,0.14779527722684432,0.12443558263485184,-0.18469774880848214,-0.0036977349756613653,-0.031396250778315794,-0.003103709390676347,0.00458067021576013,-0.0028441104449252637,-0.0036201620432763553,-0.004532952894868096,-0.019421964200331883,-0.012247523255074041,-0.018890840231025337,-0.0059321590519131676,-0.035767368937257404,-0.017982557803470654,-0.0027090399809409894,0.03924602639970638,-0.10039103085726722,-0.16830263187713848,-0.029909162282722068,0.021813835995238923,-0.007825256313129594,0.059607671844495294,-0.07803896525368333,0.08198625917109187,-0.10277829356497552,-0.02909259032352218,0.07842639866852227,-0.025840051282689038,-0.0111474748937479,0.011311676682270483,-0.00241048663772717,0.05968480166408049,0.06752791771530822,-0.08063662265860595
36.8515510559082,1.0988006591796875,0.05431481025044832,-0.20840418703364125,-0.09208093705251692,0.005540350182159759,0.13578390526147283,0.4684798371942022,0.0017228828063770457,-0.09913445878153487,0.028893450522172993,0.04740448430372604,0.10052304642626621,0.025758167263880066,-0.06344939857020795,0.12176046391703342,0.02442044673011177,0.019998932633104732,-0.01534364606210291,-0.02331123233166084,-0.11661700087239758,0.05782735085006756,-0.049522381009725634,-0.015949635958716648,-0.023054309697456463,-0.011028956626270542,-0.06184651219336058,-0.0016756110223302928,0.028969903346896933,-0.02932194387065659,-0.15800282661114076,-0.06413130436793857,-0.15462154811963788,-0.012923857629785708,-0.06710542146458634,0.16256320528230195,-0.09362692857956864,0.0175918972226402,0.0815856204938976,0.07434241478239297,-0.22707016000773964,-0.10303222053334249,-0.060857100645694065,-0.1764055310268996,0.18849837288135546,-0.03380265842168137,-0.36906248655665336,-0.394313238339818,-0.2912908903972189,-0.10218325876183083,-0.0990118139048352,0.11160819714314059,-0.042532163316198815,0.1291084948987942,0.02434991081561677,-0.3601564972772599,-0.04381639836652253,0.02880867721285544,0.07679327308100624,-0.09078936570255128,0.09780085244231948,0.023768833503407204,0.03150902526636302,-0.025282530400993476,-0.02169039715038469,0.033258516922972006,0.0681329637043828,-0.005536341665233676,-0.05841871570658063,0.0637807603226657,-0.02044714933617091,0.024548344175303917,0.06580187636161658,-0.07427927613376761,0.07130908119839455,-0.03111918987663134,0.03828919831333737,-0.057446335587375656,-0.017896662317906438,-0.03245030860851386,0.0014539229305397527,0.0337989954354455,-0.033292701205191795,0.07229030689160446,0.01615225436247128,0.05645704234117069,0.021882308205647467,-0.02335957523500795,-0.04255168058302537,-0.021844663678717666,0.0328660074236554,0.08951540662059605,0.019141737709024217,-0.05721463382515784,-0.07282012744950443,0.0067900969256927055,-0.02892144019295652,0.17816270138709056,-0.15286331231323808,0.08132023241552323,0.0485437698698732,-0.17729934027357036
37.95035171508789,1.1186981201171875,-0.1838927743778531,0.05910779575180869,0.18285473909172517,0.253804968448238,0.03156046217850871,0.06068525631701013,-0.566962531195387,-0.05990978412178474,-0.08863513881405546,0.019714567800233864,0.04667096368383398,0.09988680660275895,0.01359944742108319,-0.07545379491005716,-0.0063203709674263765,-0.039176030062198136,0.12327904585411838,0.10521110315171399,0.2124221374290397,0.10929075314449653,-0.02724139742058911,0.00833762563643674,0.0865685617958098,-0.10718121552666221,-0.02986905718535054,0.09421452072748558,-0.0448625408581738,-0.025462456483816506,0.08211352548512005,-0.006080279030649541,0.08582018608660749,-0.2938177552342503,-0.11066811711664927,0.06228115968626699,0.02770941029940907,-0.20218739664748786,-0.01715859406132937,-0.03685495694209728,-0.09956028316276884,0.17966937634630914,0.08772862652030351,0.02770810482755426,0.1651116007790844,-0.038486527478551545,-0.03288374500351346,0.023615127713284195,0.20067523704215076,-0.16232132623405882,0.36712424297842894,0.44707955156356993,-0.2996313257200822,0.023955459087807253,-0.0382526327948222,0.2009937839532911,-0.06315647571684449,0.29487704250914115,-0.07486882319352141,-0.28381865183016847,0.07734816047465383,-0.056309533987222035,0.023504296627459436,-0.0566728860821409,0.032334559848215955,0.002144114990633557,0.005072229141913097,-0.11977589624117642,-0.1182928040150894,-0.035836149395991876,-0.02500347562445155,-0.08400759872326508,-0.01143867308479019,-0.009773996259076132,0.01048200639979072,-0.012272417343568372,-0.01826895006514182,0.030632101810715753,0.013167999661571853,-0.007390939634894178,-0.03127311319301692,-0.07540237906768378,-0.039440785500914816,0.06187809283985562,-0.047857196804960714,-0.00698403533872801,0.114983105686647,0.03188172262108098,-0.038682167095890535,-0.020240911504253785,-0.06336452656752477,0.022909178689462656,0.0284667131451199,-0.11049401747208877,0.04155665739381138,0.07115944257052802,0.03919936365079585,0.038937053826598886,-0.12961415711498214,-0.020710642656705282,0.02469281718568516,0.010312189301144341
39.06904983520508,2.3772010803222656,0.01341304504545477,-0.05253813715110323,0.02096740037580211,-0.2915334118221443,-0.34075840713779676,0.2844414026889659,0.25235514814578025,-0.2087456863981886,0.2627898761967702,-0.08942638358479754,0.025071931995202114,0.09222686065540836,0.020091720377813788,-0.3686889370625067,0.0020240483113657228,0.0574623791519372,0.16971681149640416,-0.07817659440729251,-0.037004414448278206,-0.16223896857894732,-0.032194478646214816,0.006634532480268591,0.048833827865879156,0.13294766142939732,-0.004025810205960478,-0.13297312584416726,-0.10441286184581036,0.061897321149926327,0.0007007235653821876,-0.05341119208907823,-0.13601635288089528,0.007920713779761463,-0.015822909583807707,0.09179128393150167,-0.012007654799550255,-0.21394590156280185,-0.0247045824035547,-0.27844772722591293,0.0719258251427107,0.01788073489205929,-0.2666543956604034,-0.3075881148821244,-0.15434723396924416,0.2599783581862947,0.19894670671092307,0.5457053775752096,0.34562930459300417,0.18967359215767965,-0.1294400100239313,-0.1790613234633706,0.005561143139799292,0.1494582348244191,-0.030295316237148526,0.10641780776486032,0.266561451988386,0.1433602294034654,0.06039310307019247,0.03735100569714835,-0.10626375720989592,0.14093970826932256,-0.06295191310247619,0.01190119353182048,-0.07813071587781763,0.061364021523333485,0.11996630571013539,0.08153948458408562,0.07281497177820524,-0.1125115936920893,0.07919230570134776,-0.027004306060821878,-0.011593816350629022,0.023302355238529637,0.03828451071960621,0.08519872553935871,-0.02124205117265479,-0.2360689556032323,-0.03805987496635204,0.020121344814931715,0.0644511159768258,-0.10215085050125032,0.03977005505111963,0.0900062723379349,-0.022224409841206015,0.008797744792583771,-0.04518886763481864,0.0010049774734598115,-0.013042906342761885,-0.04820882081361589,0.06888538835946394,-0.007857289981589022,-0.010496434060823866,-0.0021449183049432143,-0.00018007616833902364,-0.05307398370400195,0.07906751097026024,0.10410716201797675,-0.10647013266778126,-0.3342272563872537,0.18658374040839756,-0.11760558904883493
43.663848876953125,1.0889015197753906,-0.12098818106227764,0.05471981836902392,-0.2419578632922666,0.10718450049599183,0.22484650373748594,-0.2563480809468077,-0.029564291244653373,0.05696392425801283,0.13444081258113966,-0.17047251689141513,-0.11373952310615561,0.010468983452182067,-0.1596375393884435,-0.13742311442745964,0.088564419833958,0.3729057794784987,0.18548213532669874,0.09151907358755854,0.10578320620180322,-0.005829127059798112,0.06700430808316886,0.05174638502759091,0.022806907141165407,-0.0017343236633098544,0.12051568195403295,0.11576534065229328,0.13066322657646928,0.05466913898592041,0.028290415726336917,0.05688953982971996,0.23903088188322377,0.11505110151193505,0.025013986854756927,-0.052851872332631215,0.2363137728767455,-0.22317539797137315,0.028972617226807072,0.22236514158837997,0.08259379780544357,-0.30395357725662153,0.40360097532923855,0.033069729351306976,0.25918881913657926,0.3205472300519915,0.007481690825192333,-0.4649659248220866,0.4650047227459716,0.6646486408911889,0.2220291079269073,-0.08618949200319986,-0.08074125613065852,0.329107944624736,0.08512836040347396,-0.0386125287926961,-0.06646209583887044,0.04008993476226937,0.06724232046853527,0.028944929888322347,0.14921898556160826,-0.07738794593714887,0.004633079410650934,-0.11218405484407615,-0.030430979071524193,0.06038982460399854,-0.27999979491203447,-0.19339265641938536,0.06253828339797604,-0.02077655118014591,0.07245268899441522,-0.06306376623228889,-0.016076467549600005,-0.020617084351630687,-0.061457410483751626,0.058188488356783,0.04765590951363123,-0.011783179784694897,-0.08709352061439879,-0.05853446940725701,-0.014461063795072282,-0.03946828530285657,-0.03741621971646751,0.036880619984731466,0.08923248645294678,-0.04467519893270415,0.04203249497384813,0.06327048231907006,0.01333335390978747,-0.02041877845592976,-0.028299243251064254,-0.04129774993952423,0.07698072268360338,-0.037940164629623484,-0.110175081979249,-0.10236324316659609,0.06224985556310656,0.04482759098897453,0.17398920410496393,0.11638545283502975,0.026838255392776303,-0.05949931070788442
44.752750396728516,1.0988006591796875,0.08089664784036303,0.0015536833842514693,0.1215417002815111,0.0965028175160204,0.1839249645300474,0.18481039463682522,0.6086937503340115,0.06435610582667003,-0.058986963300321986,-0.0726407246687916,-0.18588786022026313,-0.1330725999661305,0.025137071075226433,-0.04117275209572392,0.1354264319415872,0.016787799289558425,-0.046093122881246985,0.07772417067201376,-0.019488689705273662,-0.020356689993115268,0.17523183255174607,-0.019682021634318963,-0.10985520071194353,-0.06137332379326636,0.022824028156620064,0.03342524323157146,-0.06047008428649117,0.021762003142216404,-0.03898780789299128,-0.09265592342267286,-0.018272699129451744,0.10852999464319185,0.13773526668409902,0.13012702001858167,-0.0027830982354735733,-0.04444220546225306,-0.14899848477240285,-0.1003783080392755,-0.13724625883800817,-0.1888625116959763,0.15481476913594858,-0.09456615547561585,-0.03718324256502191,-0.011172155247059834,-0.2347127051769914,-0.29466212157926785,-0.22660952457560282,-0.3260794726867092,-0.3520182880759695,0.018094607191251756,-0.23319305014687164,0.033819181543282256,0.008759945603419942,0.02251384876255546,0.08762162029162317,0.036618655877512625,0.06501751690978629,0.029141844114217164,-0.021462521640378707,0.0508946819501335,-0.03486712696549276,-0.006185651360002347,-0.047176316618200494,0.06691520799071428,-0.12858395511353704,0.02034459653255577,0.1424995452160723,-0.02392917905685406,-0.0045377846019790235,0.07711943900201554,0.06334959923851365,0.024125100075008968,0.07910168583636641,-0.0018064933744617734,-0.05955473521631192,0.022998003148590882,-0.025209372773694717,-0.056899542960227055,-0.10016301931929435,0.054136984348113176,0.19140369091875944,-0.06132604723911436,0.01643788960091528,-0.019668260233764508,-0.11429423688767683,0.0879262691277578,0.03950799343473865,-0.00044119538454019756,0.19028870006781728,0.01363367280796822,0.001982964310251231,0.04723557597865335,0.03273564544749285,-0.07085888388256943,0.08901315810373939,0.13881626155266308,-0.08503159022205804,-0.09153202039363553,0.1632959253831809,0.13329290659526177
45.8515510559082,1.1282005310058594,0.12599825143113555,-0.015726054081699158,0.15486959682795545,-0.07940125473077445,0.3808565961151731,0.31620642213602057,-0.09062982406182274,-0.09300905394457461,-0.11674193293503242,0.07703621714846781,0.012975334972223484,-0.026330008380212266,0.024091933244488124,0.010513385071004034,-0.1202734190779763,-0.05503993741993115,0.10134556002945588,-0.028167061850666218,-0.1593978897433824,0.15306571158581905,0.10039432653132602,-0.09836625780172051,-0.04093852599703938,0.1305814404132031,-0.11508409587570169,0.13714761308612855,-0.18936903617408524,0.011286491238027593,-0.023834233660842176,-0.0821994303821678,0.15512451908242228,-0.05275393471541186,-0.21424174186511125,0.11055240277091698,-0.07888327835170476,0.03797641735983594,0.6462209976004316,0.6675274939390032,0.13672381894183497,0.014475284923270035,-0.22385764687946924,0.0376354369746206,0.22783080449122425,0.06005561735050732,0.36379216442536916,0.2204341146822566,-0.016914469873633174,0.3400471320616155,0.12083822478391026,0.05370067459910973,0.22512071896900568,0.23782187685261402,0.25442504774510244,-0.1836858272083804,0.22732494692215854,0.12168507879280933,-0.03120570859094561,-0.06987423115008534,-0.07077808482967464,0.03927123833030603,-0.09731590893285748,0.029400939374168485,0.0515621728428314,0.11796206042039124,0.09167772178949868,-0.002848538565454294,-0.02831115853805055,0.04809914552119422,0.028484115679582457,0.016578078101611722,-0.0016667903915961015,0.1030991887990731,-0.049062891653841506,-0.0743566886325369,-0.030343367286193617,-0.034857378451509054,-0.012354319108679004,-0.017626002031927487,0.12311994334948044,-0.005128665552516506,0.048559692963645484,0.012149623937879203,0.05817122478740654,0.10433973611957136,-0.051504134543301355,0.0495337650818612,0.06248126838494879,-0.0033180739228241374,0.12143287715698532,0.05992504478976799,-0.011614793377540109,-0.018545196727783902,-0.09635890360403791,-0.051719554217662576,0.00763070416176316,0.04554304327466242,-0.031048910089701398,-0.06478002115012745,0.1541545341111783,0.04524848870166906
46.97975158691406,1.1185989379882812,0.032065689747207124,-0.2699687228173354,-0.11013377775312003,0.020371831408645708,0.21973755965685826,0.11275865317731525,0.14633170073037313,0.009135122495964145,0.15919218360805712,0.11586514735448629,0.03914220250941619,-0.12625136630232972,-0.05902472413254578,-0.07052683425435453,-0.10463326916156589,-0.11128670158154039,0.05979969422856942,0.028011880929529148,0.10723156593179824,-0.04427776984315646,0.33892907136899575,0.14708012627140907,-0.007747252035778416,-0.07141425062933972,-0.08309556525353055,0.009499347012480602,-0.3159322174158634,0.07923811299067869,0.028627141834380112,-0.06150299714860362,-0.1608981342790083,0.0375084374849849,-0.11645539519804524,-0.12173681500778502,-0.13514947775971703,-0.03061153495273799,-0.17587204939397777,-0.014232735961551835,0.13501501692377849,0.18442716470427548,0.4218195030660095,0.22622097140020309,-0.005208946795050472,-0.3312763552008794,-0.18100204074512855,0.04393117491062939,0.17984444068182115,0.1645592521989829,0.49947930648204497,0.5028148581358044,-0.12919873262333018,-0.35277018090151907,-0.09792105733340849,0.047524516774563846,0.08171952857383857,0.06273454221827054,-0.19684503838187756,0.006130158539677064,0.03866691516776816,-0.030043878119151192,-0.002621362826569695,0.009180304080091732,0.1254284789206197,-0.008203106758476752,-0.03355842366551241,0.06382161058795986,0.06198012993897709,-0.08919227944433498,-0.03328282512319969,-0.056906959474533406,-0.011049839288255784,-0.11812539521356981,-0.0654173116258526,0.07514583072715425,-0.08819290185374717,0.049232705860203486,0.07702696540253287,0.14828782131662044,-0.028023520054184382,0.007125416277168206,0.14159257565125186,0.17406867998739928,-0.041354592446481125,0.05772794838221367,-0.027605645854118045,0.040320019146212166,-0.0033738425456330164,0.021251829333296727,-0.05099367603393241,-0.2588226794090338,0.06748494785315112,-0.0431544544819859,-0.1755082271774166,0.20082285948753478,-0.06412131297511485,-0.3460844982291643,0.0017835325356786013,0.10308311624834048,-0.014433010305578869,-0.23601018077484592
51.90435028076172,1.0882987976074219,-0.1422876660842738,-0.3386875307613291,-0.08606118039519638,0.15211714421712047,0.07450328187016371,-0.042224696688737205,0.10164396799808033,-0.030217642194109415,0.0026819530847927223,-0.14836525117683402,-0.020053107890307724,0.10329105970164668,0.007723694982058902,-0.054972895512745444,0.2104129226673611,-0.04303070125776584,0.007388727836371884,0.18275953239386256,0.09660310740538698,-0.06474964201688405,-0.00803387261720363,0.07736470991888103,-0.09475545447247868,-0.09464383573661435,-0.0022585709752078256,0.0439896343058354,0.01216382947717195,0.11342778496453335,0.17315581693832052,0.03246196582450969,0.10688118690841095,-0.09204867221600879,-0.25775912798324085,-0.0553461141347515,-0.01265662143522038,0.08420270990541265,-0.0710250025008101,-0.22793828698450883,-0.05323811234335783,0.07885775300763748,-0.2954473168434661,-0.0018772910074431465,0.185325415458045,-0.11261723346712484,-0.0717427303818188,-0.2596815097923815,-0.19337478801180755,-0.045391459179808524,0.14551677938879415,0.004823451427304698,-0.0004970419351380677,0.20045177544779264,-0.43628240821195474,-0.03148309237436975,0.10760986926166731,0.08606496791929127,-0.13115917661472754,-0.046307888100049814,-0.00837458130477154,-0.03920386860028383,-0.1010976553649837,0.14701753464553438,0.1573051172785129,0.06326402098958175,-0.011696885525456363,0.06839664954819664,-0.01324451191840556,0.05911344350436999,-0.01692481485229012,-0.0668443073098582,0.09071022076173196,-0.028937549444759982,0.13069934619627918,0.016732001967400295,0.003641654423621174,-0.006192417927469937,-0.014292617184257547,0.024060034809108212,-0.06458924914393945,0.06777104682345048,0.018504425168946462,-0.01135646392666121,-0.10787707076877964,-0.03301986049401245,0.002347489403699469,-0.0688952581962907,0.008233364015720649,0.007029733155876553,-0.011607461270248032,0.08837416323212789,-0.014668221160378178,-0.04850900629669712,0.08123120639212814,0.09631914536113514,0.017066201617164302,-0.027626517723450733,0.01401784103871211,-0.1380274102038367,-0.03352716910310448,0.1452203113618699
52.99264907836914,1.0987014770507812,-0.006287326948367533,0.03763613242237773,-0.2215142200107115,0.09090525470637949,0.08171138635802323,-0.23676504711966379,-0.10875206184048757,0.2804163023549561,-0.1431029681731783,0.0634559153731015,0.12303335372760865,-0.11417090888974366,0.10551924821840067,-0.07390532268277059,0.07232201154946172,0.011047318594769507,0.11035194422887128,-0.12642096341415876,0.028219048790917647,-0.04600850239222512,0.05251931249556614,-0.05544766203409145,0.18311250459172973,0.10123101290927411,0.13194344987509582,0.04339754139493761,0.11676774863169173,-0.02658854706612713,-0.07818398548138604,0.07358930471809043,0.18121916122254692,0.1025076451597362,-0.02905416590438672,0.13609848984044345,0.14562687476028824,0.010852750279130486,0.028842312700803768,0.003036196811494779,-0.006790543168698166,0.21577564931681598,0.2505606131605719,0.12245536130025234,-0.41800669189366135,0.3109924093537747,0.34463988260276446,0.10187278065880928,-0.0207825469176436,0.12437721666260498,-0.24974602670670193,0.062490717938313387,-0.3145524857932673,0.010456409238523298,-0.19485328622913164,0.12258194891504957,0.3440472850218008,-0.12595822921969665,-0.20063705048055222,0.012241893653327715,0.08003055034159351,0.07051628112904129,-0.0900807495056757,-0.009308818847253323,-0.07174796910523087,0.12035267642091817,-0.12269787501918605,0.05844222438155526,0.10853841575089905,0.02814036548976407,-0.055223180482838335,0.027794735908466477,0.03810592941313981,0.05254683522474326,0.08654679938075428,0.0007120806993236133,0.034403324285871666,0.05278141512527374,0.03966527244116568,-0.11024394574716176,0.039007084265276035,-0.026535987807655124,-0.04375170349751781,0.0211164216315289,0.08533259862123065,0.00586263851045608,-0.005027324315287342,0.05734247503300508,0.0037175780323585503,0.021903931707692652,-0.12464918113699147,0.00045852459510495325,0.05907786057954463,0.044409536014762975,-0.012304656202750005,0.030572019640795756,0.12427391015305615,0.028261083809718306,-0.029350210340219077,-0.018755843502776065,0.010638447124105017,-0.001043034170485728
54.09135055541992,1.1786994934082031,-0.01797928295354307,0.03471135919075051,0.1315705405013115,0.18109309373050614,0.06172568572995815,0.41155503005410937,0.13279424261772557,0.018355883090755306,0.03263094026056388,-0.02502227634666101,-0.14421771866627509,-0.08079661535900635,-0.040911419766431784,0.035464800351465445,-0.01972699332764555,-0.07118090338889292,0.08206605519077853,-0.18365619179508538,-0.09323745785061216,0.11699462141138282,-0.04740696472828179,-0.0639523014657009,-0.1633441562307491,-0.08051415925928407,-0.04616258380802431,0.12958004929402545,-0.0782427944311679,-0.10316540258138357,-0.06830141591281344,-0.003295298228120764,0.12577757111686916,0.006061705581128712,0.10006095411280902,0.20293180093825922,0.09658755373651841,-0.08184172669055602,-0.18191822167911365,-0.040469640209375296,-0.052880519092085077,-0.03201180647161284,-0.056938218379474936,0.06303049723720461,0.012614341376639457,-0.347698839020002,0.06910986719457934,-0.19488799384291386,0.14350767971983755,0.23645286897446224,0.22344037457054075,0.10998699557155155,0.34425319046712305,0.03655528178354795,0.12141225729310982,-0.08606131665793687,-0.021625147418451382,0.2862641847234341,-0.09577105351799141,-0.11783442251029275,-0.20480667219826343,0.01291085696227778,0.0378531686518639,-0.005531451952943042,-0.03857785572507564,-0.14973248791371965,0.006095347704710745,-0.009184442628117741,0.0046040945408540685,0.011786745033314205,0.11410470160383768,-0.07179979804021334,0.03788008403141385,-0.05120763615947307,0.07421815678549135,0.021851353892439127,0.026705749535134597,0.04577680454600373,-0.06162455308978351,-0.002373236741701526,-0.08861528010132134,0.0003946198841697536,0.1340444931570465,-0.12460562797530296,0.05102524173742509,-0.03305045443365934,-0.03226438355544868,-0.03366562323077841,0.016685690769112388,0.11965833125104172,0.11701039109719387,-0.0356409564129124,-0.07351231197099217,-0.015030388259830989,0.05758715864969138,0.009389596166672879,-0.15307072555119805,-0.06859698091205142,-0.05211442724609541,-0.041505734882160326,-0.1789437121488558,0.0278143024195486
55.270050048828125,1.1590003967285156,0.029690392972765513,0.09867534159822657,0.12000857282522459,-0.2395455933326922,-0.2141587420367235,0.498682283928789,-0.05887857840009517,-0.03533163674965856,-0.1889513760970722,-0.0704365499247063,0.09138676427818276,-0.06638418298303621,-0.017021606630661733,-0.018812672965164326,-0.1888039537600522,0.057551434585701104,0.060174741898087074,0.02576693521100932,0.051067103835523237,-0.03355472398543975,-0.048147036710438997,0.008212815094261106,-0.0047566497120852085,-0.06198437359256297,0.19971079386330123,0.043669887033896876,-0.1210106647842357,0.012080858496337981,-0.048474175584774556,-0.004299226805090008,-0.10192963134267019,-0.14494786857515418,-0.006569321597606884,0.032718107441203174,-0.0055824460399747765,0.0936194516664438,0.13429121076347028,0.19535645975869634,0.10447430890201041,0.04588192480607365,0.23558704756893167,0.36090960664699523,0.4415267254542463,-0.006022648775445255,-0.10748761825398735,0.4002567260134449,-0.3626650023890412,0.08862561424889989,0.2247212655616011,0.5831787057398019,0.47714739190658195,-0.2292057997296806,-0.22941229999172674,0.12767374112604843,0.45665527257290833,0.11427073425683804,-0.06392083274536009,0.010106721332880595,0.029955871769605426,0.012244129033232534,-0.057229406808771234,-0.05501109337350646,-0.028710956389484864,-0.13827150250268339,0.1402557283071829,0.0706374532826739,-0.09288770675083723,0.02056698350871135,-0.011957729744598107,-0.016268558289575467,0.04227645200969153,0.055893650674167496,-0.014148398210443159,-0.026662629341135544,0.053644649648158356,-0.0540917228308259,0.00939503855589055,-0.0016748265745234704,-0.04728129033738128,0.05229584825067072,0.005347548060685736,-0.10340216607251967,0.05976244361351056,-0.015563553093559303,-0.0374371059167193,0.10689688847769599,0.1047997873479678,-0.07328045911647951,0.07039090415172962,0.02526192902128993,-0.0017853167846887705,0.027470819946502835,0.011869472449909494,-0.04299083842080818,-0.22698226265687907,0.11208393750966957,0.13679015362202254,0.06979523580200624,0.18223797560079658,-0.06438986828126322
60.43455123901367,1.088897705078125,0.12316971695226869,0.07915482247407116,0.043133138777508934,0.28145022100159683,0.13266907524016433,-0.23790708162590202,-0.2013927353932419,-0.09795937710641521,0.2257186168635829,0.06397613538536151,0.007731114695644414,0.05947904029043508,-0.15861927853628036,-0.02990848619648897,-0.09555522107838825,0.024426047921529713,-0.051721090323651915,-0.0975326599579741,0.07046055910311051,0.04445658765290549,0.08730749871446103,-0.01474121219096021,0.010457289693299768,0.020828100389051644,-0.020342906211276324,0.23315689750207932,0.026257621997524305,-0.1480454453228512,0.0219400985541992,0.05920649037451016,-0.02473206082682629,-0.09242667360704385,0.10208431946909373,0.18263144742704646,0.03939413215176961,-0.15520900404392474,-0.13246974453580063,-0.04241960264929223,-0.00611211539147917,-0.01764675273184531,0.10966373561731022,-0.6707961631856758,0.10572834808352928,-0.2918307655666671,-0.015150907367965472,-0.3062387520576656,-0.005889452787082851,-0.16060070747350164,-0.11219083400681851,0.47636388550477793,0.22513138088650808,-0.02556709429196527,0.1153446792764011,0.4333276817601835,0.02414746212458943,0.012391830830368418,0.02456728118069576,-0.01507773297490275,-0.005776813465225093,0.20935293179431783,0.06631930621146795,0.13331527309235616,-0.04293219126336679,-0.08711542462164736,0.1716239134380857,0.09762930186636241,0.01883395641047109,-0.10073202885905357,-0.0909313248180738,0.006059189462387754,-0.02605907385070262,0.05694166918475968,-0.014587383699762535,-0.08518653513932653,0.08911729272945453,-0.00525139414233459,0.05173038015868512,-0.10589387956098023,0.045457016451424796,0.07464453671808396,-0.043192631367991445,0.05145289200935789,0.09685786878364817,-0.0564290611042797,-0.08204762763389384,-0.11823338965883694,0.0545643968022633,-0.031910179556219796,-0.05604616377163216,0.00827610043748531,0.011876552098243722,0.10555240617870221,-0.013515504358579934,-0.050820256499093455,-0.08307603927410609,-0.045491694687826434,-0.03827386680017994,-0.019225291433043662,-0.11495257246472403,-0.08409835958576753
61.5234489440918,1.0987014770507812,-0.09816253315376075,-0.2473208121519715,-0.03236076366810342,0.04188559142957852,-0.1255912225845503,0.02425205934221796,-0.14016494547838265,-0.45393007643227257,0.07704846200815564,-0.10157020664098858,0.011920091932987417,0.06513432157408323,-0.11145886507809424,-0.034141739141970426,-0.03196764198539546,-0.011231819369440914,-0.0022276126469731594,-0.04147603818301634,-0.1901303691866992,-0.14497898044860963,-0.038449106604247864,-0.06649501175657371,0.01942675546834995,0.05862149426284419,0.08589084028594823,0.1782893127051605,0.20590118467327886,0.009061365260453638,-0.004669257658641642,0.01986715832777388,-0.2948714488019327,0.13369897227923863,-0.08225538693708162,0.010450372471361775,-0.04609554831963447,-0.06690626627047191,-0.3444675516262297,-0.06685655145138325,-0.03657408522918283,-0.033545026049913634,-0.017869120457882595,0.13177409830768488,-0.02852181849295379,-0.11566894616874818,-0.06646533105083946,0.07296620474455487,-0.04548272791654295,0.06228703225147541,-0.3215815111650345,-0.5327514167447219,-0.37191565046639424,0.1206796141417901,0.057819416261809635,0.03444541511948011,0.025367904681156538,-0.5217363456726845,-0.2738359632906454,-0.04922293052164388,0.07937342595618617,0.041678111441520324,-0.0003493162910587366,0.08249485335982457,0.012817470655667695,0.1312485208374166,0.0848170638501247,-0.15872792389351578,0.13160875320384852,0.042566796277086316,-0.10891016837315586,0.0005301445815143711,-0.004823973472033693,-0.016334062236616008,0.015614395771919181,0.008132310232787255,0.002118641023997689,-0.021132685865503473,0.1027029742200388,0.018678742582129267,0.015380532971939077,-0.01952364557481941,0.018086665454809935,-0.09515180164650056,-0.030009816658208815,0.026990468481178524,-0.03163897546612088,0.029164572062645916,0.09378573553258066,-0.09239834252371106,-0.04127847295530908,0.07468877915984473,0.04580407372310059,0.0828492688617106,0.05267418939145822,0.1105569633405632,-0.010241015553503251,-0.13506474382498324,0.047919426726580054,-0.1232552769413257,-0.06930058993171238,-0.1584783725871927
62.62215042114258,1.0886001586914062,-0.16816300311945104,0.16434468592056245,0.04536924190961249,0.19502293366530732,0.5809006747454999,0.023629608271494247,-0.18056535149309194,-0.15949203743678247,0.1136881036394688,-0.0887672627027693,-0.17342207871437218,-0.0019607976270401926,0.05156363849408371,0.041728752170269764,0.054218823108136895,-0.014589857562803257,-0.43237877889193943,-0.050403083338916785,-0.1454990483246853,0.06479803295270595,0.058532214766562174,-0.16122849132349426,0.22733677695728757,-0.013382094677464767,0.08071776645194102,0.14480249579217006,-0.1585905956604369,-0.3568091823251004,-0.11597478538606344,-0.02577002880655349,-0.020883699231578644,-0.00579885528400427,0.0048643787853151,-0.22601757611269832,-0.14735288583447165,0.12256642329294642,0.4282484639068487,-0.02559548199081224,-0.029251602662468908,0.37689736511589783,0.02548198677200493,0.045948947793306556,0.04603712384614505,-0.019040410675893904,-0.0044459403879903645,0.00968806681040106,0.06042916085084203,0.35189068344010027,0.6903425880843648,-0.2090005334535937,0.231261663559257,-0.10105813564568294,0.01975085264786563,-0.03503650944522091,0.30601414033433677,0.008433632813928935,-0.0593633229425179,0.1556704784396171,-0.014956635750599936,-0.16121209348131202,-0.12071980551620262,0.0728917857308544,-0.08503068724912255,-0.1009505992505321,-0.03831367803238096,0.05386380043667738,-0.04568383744051784,-0.005363786328419798,0.10445697088640579,-0.03434936808849229,0.06598918851985944,-0.08537816477634866,-0.13605507077467455,0.05275894269455384,0.024578541234621547,-0.00649657616629762,0.07003650264143856,-0.011735875732503911,0.11858117420515715,0.012920718801963407,0.10525304431014715,-0.08424557944294159,0.004041929583131353,0.13964879772249406,0.06614956850377575,-0.01837065097170859,0.018503368769390235,0.042868673055590924,0.06433695431124814,0.08934308904796245,-0.011046068423674112,0.012164703926340285,0.03507951957878807,0.053571749124912235,0.0870621485881318,-0.006500864475743912,0.04687313686116404,0.04948301925959197,-0.030417696436267995,-0.04040387862601976
63.710750579833984,1.1687965393066406,-0.04714415907002444,-0.26998486220435447,-0.0019058533502458591,-0.32894955904468265,0.2650536634467672,-0.045044121726509165,0.285959215506205,0.04879993474751218,-0.005441082447263046,0.22197583837820603,0.04018598155248352,-0.020897638749628585,-0.05735640735585602,-0.19316654833297492,0.024931692567575624,0.05361471925660832,-0.01584520063431792,-0.03985062813855361,0.04640085910982645,-0.14792734817149691,0.11993242956955012,-0.0296269211387772,-0.031115482227629013,0.08624966736068161,-0.0006020728103564139,0.08605951662303254,-0.05679931362165802,-0.00710202374526266,-0.0647796837336886,-0.007169458154939579,-0.16376762669303133,0.031076472180613282,0.08486482712254921,-0.02563190445831587,-0.08121701721892939,-0.28073746511890824,0.0024342495460030356,0.1332107062643184,0.06471455312068526,-0.07826096173287095,0.020306219380307602,0.16424814899877632,-0.21552532996314452,0.26597490359717124,0.1571497780577018,-0.20556957998569864,-0.025860554680360304,0.10406635658512968,0.3089698320044634,-0.20647295259814574,0.029788861383095867,-0.2687342498726748,0.29284159075211874,-0.06179376231162031,-0.07886193899268451,-0.0678497987175965,-0.04554428466994236,0.1018883695214283,-0.06089466553252123,0.0040102504953719795,-0.02309126808841817,-0.06303952429252818,-0.05346078286139673,0.07458381775585587,-0.06245772057233332,-0.10015151792331543,0.030873758029901967,-0.019990824668979598,0.005280387133782589,0.05245694178551436,-0.058202430727522625,0.1257312324204109,-0.10538248648265203,-0.0325760139956099,0.11191826507656276,-0.005107980545543187,0.004647448689862001,0.04920908309900393,-0.13858680237294818,0.09689315181203192,0.0033434245849584933,0.03287572391011066,0.009074901500503964,-0.0068403375664406,0.005334990113600875,0.25373209117930623,-0.09073177573132002,0.0822530030849574,0.07974739305259058,-0.024171475772972517,0.01083939661119497,-0.07702964663667984,0.019446336387589594,-0.0016754401377061109,0.04613734820881163,-0.011021307097549211,0.004491887117482933,-0.14075232567736995,0.0004979644401216915,0.20325576323198044
69.20455169677734,1.088897705078125,-0.12215418116850892,-0.1332776226590231,0.14598701581727447,0.35381423419418545,0.04203839306215862,-0.15901709502387879,0.05159004743988035,-0.04058321136561749,0.04480639017142959,0.027033564094640326,-0.07937738298214339,0.006200913448379474,-0.10311062708639292,0.10144113528554358,0.10914970686720193,0.09334143314535959,-0.04484660317261631,-0.028923894906772156,0.2154654800984882,-0.034556505497863446,-0.02681290268338541,-0.07025961840269315,-0.031228052968131595,-0.05316889451952512,0.03622642213206828,0.14847345863345343,-0.022314652627903126,-0.05699110484613631,-0.06756241006463928,0.18366255764185518,0.27366134859897445,0.018452131445243023,-0.4694321916635257,-0.21935014803710964,0.18500553464758035,-0.166139257243227,-0.1167638136793513,0.32869017336969303,-0.05290820593976721,-0.05487111112082248,-0.0016512095825489213,0.34113936794186356,-0.08160284482379128,-0.04926082007969286,-0.12866517271721584,0.4560024137426422,0.2129427924262531,-0.028374096387947842,-0.03295456385959477,0.03184207480114225,0.11519672100162577,0.05652124684863268,0.026081737808352833,0.011506176760568337,-0.022759450763158065,-0.06806528278448266,0.12522956368661373,0.13690685027584712,0.008016418456206115,-0.07309246791788775,-0.01438071273131086,-0.06652232233993904,-0.0034431447660942566,0.055083687967894666,0.03383918173040695,0.12461334991068719,-0.011262882112597176,-0.07194148907200033,-0.08470970176681256,0.025159938981922696,-0.0006310858053097385,-0.009144270844518614,0.017296391597568923,0.02764889174393758,0.00022529489936912173,-0.0455581770949894,0.04163889750611987,0.0030287027722086177,-0.018208732444831646,-0.0969320152781202,-0.003475010853429169,-0.017648240476460554,0.013487041206710014,-0.006257109220589924,0.04890288204370163,0.006184147057896877,-0.01113085550944105,-0.014426656613376722,0.004546886847608206,0.054495552134653624,0.03259630402577678,-0.06317096757123723,0.03864340638268436,0.09248275165253553,-0.08958116366154392,-0.026010319171017236,0.10305127987505577,0.11094033466032076,-0.05242591860299251,-0.196247695617742
70.29344940185547,1.0587005615234375,-0.20837862168901458,-0.006434761687458629,0.14850945033211008,0.11672475970475801,0.15567664135923404,0.09958406395765414,-0.04736881165210984,0.16967037881221725,-0.034122879184323426,-0.00015120210381075428,0.12240386801255518,-0.015846472977572468,-0.021749100645276402,-0.03288934769429591,0.006904014929332185,0.04122923679878411,-0.12663625942290882,0.12306836082482853,0.05034850600418088,-0.09786808687859518,-0.043216892609850614,-0.04694831931945574,-0.06670775178981835,0.016614450863933934,-0.03777327294334356,-0.1715406965474035,0.036302820878125086,0.07065121763839702,-0.05134220138988161,-0.03711457025453397,-0.025234755755250884,-0.015031196890965432,-0.09076557753229171,0.007443830763399259,0.047143310433762936,0.003939541182248565,-0.2238095225804746,0.01152550881409118,0.038471707912845605,0.30037927033407275,0.09471779029249489,-0.11295931707683006,0.07354313798619515,0.13263338552515203,0.20951756416282766,0.4229313628639298,0.44364763069801494,-0.14241769838726914,-0.06139839785463672,0.0036685744418092545,0.14819408388811572,0.4686870573376997,0.31954682179352034,0.016040379173580824,0.0022591379450885743,0.0033616452474174155,-0.14278286759145398,0.1681899102784655,0.04742731064716516,-0.024941511298643568,0.017830886574433522,-0.035320745291252995,0.07338474555443288,0.016502254773082814,-0.02917038624622072,-0.017489138059742136,0.10617686749344103,0.005692027555684384,0.046483586688109084,0.0022733392373442927,0.07968161547845547,-0.021164921282701574,0.03859329701720416,0.010201584895178587,0.048147932685756796,-0.07927392592762494,0.007704854428548707,-0.019435644093902502,-0.015524979737018604,0.04071524939305368,-0.07453695506570972,0.10968329981497658,0.07710877097091537,0.07502564076437272,-0.037869133394947505,0.009462863106786111,0.0019081156441081723,-0.004439977662945469,-0.05921142570373907,0.004873601274474048,0.09455275393374772,-0.006413630346315605,0.019948668501382653,-0.022594040866647184,0.05232026459308438,-0.041086020474046844,-0.006097448507836855,-0.06284814090025949,-0.1410893645958358,0.17379461501497778
71.3521499633789,1.098602294921875,0.03150536974446862,0.11540902962534359,-0.05200742617957507,0.11685485152066875,-0.13186549602039951,0.4027815673656068,0.2500686175110387,0.011931051120700073,-0.0951478784129575,-0.11523471237886397,-0.005219431123970225,0.10414135948129664,0.02426862102520607,-0.039490144509698386,0.060833047947425535,-0.02893764193960357,0.1021059375830634,-0.06093868917378374,0.08184008701738178,-0.3137721940120932,0.0019096029408459641,-0.031681645739137586,-0.11612355596327915,0.09105212091757056,0.0014718883765190288,0.078529970930967,-0.06944643950148137,0.07127871725255079,0.006611791154171726,-0.1419499873352527,-0.2168587324351045,-0.2720343125464308,0.7846420693034255,-0.1693551039652441,-0.06878511634376644,0.26851080171701397,-0.03149169458774053,0.061252569728958914,-0.3478185152295646,-0.11748953073334888,-0.224415229008196,-0.182688335676256,-0.5744078165410805,0.20002092456585818,-0.16587181386866676,-0.24636721087676494,-0.40755492450774844,0.2844373449409396,0.13429754240574415,0.06569648832526209,0.06829610185628084,-0.23494531563849538,0.11537650137522545,0.06921905085001535,-0.06647184087233496,-0.23176859297710473,-0.08060092971256627,0.04548089740006035,-0.001841177989783044,0.04927381262149169,0.05153569514605542,-0.10870583554503908,0.023494706077880678,-0.14491560053179844,0.029560991194046246,0.007884229079285024,-0.015528065843388802,0.010073165260224934,0.013869926049136352,-0.028367622693825652,-0.03270214924080301,0.02995347193673445,-0.042107733215497926,0.009976331871771466,0.06131577019082987,-0.03438597898408769,0.01819689235860232,0.05747935030908486,-0.026401682476105137,-0.003021811079061471,-0.025907617628533646,0.04632728558135373,-0.08924816672791382,-0.027832547916606793,-0.1332581559383842,-0.01948837978397596,0.05753009475114966,-0.021083603595308385,-0.005597349086110977,-0.016998236031550422,0.014807137285316654,0.0025604600714353495,0.0042693356918463024,-0.03205713734778836,-0.05967255554147893,0.02326114769245653,-0.008308857598742498,-0.07674389391601744,0.0423779606931833,0.0029769112410155396
72.45075225830078,1.1786956787109375,-0.01063703795560876,0.015527650470770895,-0.028758044323596,-0.10515687971385054,0.29968005621305477,0.16035685514259426,-0.0021182322988619884,0.14051148780840658,0.1405269877958287,-0.034879947154053764,-0.3198585872463051,0.2511469742695829,-0.15178956765846885,0.09235740216694421,0.12920809274353962,-0.19039986033394557,0.1386875461521225,-0.032245917252399066,-0.04545554383789279,0.1291473621461682,0.011158231678651417,-0.050603634351461854,-0.02252263467624457,0.19320716076337108,-0.0269890281119644,0.09353700205489529,0.0173858817150469,-0.04611884434041575,-0.09566359950638553,0.06373853046571765,-0.015377643498478477,-0.09335123976441372,-0.14840536817264927,-0.044722590017624166,-0.049089728558886714,-0.14244501512430247,-0.04865871112619814,0.2700817662343502,0.0928227185242766,0.21525464196581512,-0.12998339539286666,0.07243704808400674,-0.2551375365677216,-0.26264378251132947,-0.035330351276807226,0.2656182387270498,0.44401224263902006,0.34696328708325935,-0.016812237670667404,0.02747510878167453,-0.12374305749684966,-0.021890058044426033,0.007174138498828,-0.0974780951188135,-0.002935325470178656,-0.0140141463422408,0.0918754329739782,-0.01854832102152234,0.055779540250569054,0.008541248386813964,-0.06507433933911672,0.05961620688961146,0.03269746280569028,0.0223727980492612,-0.204170393670019,0.04669515640123606,0.19676542096511046,0.01798348323217755,0.027076413486151273,0.004374166101946881,-0.00823003307893151,-0.011930554893083388,-0.0059222921411634655,0.00647031032585467,0.04094147866587198,0.02643657090990286,0.03880564360198201,-0.005274835688188096,-0.04682725468897959,0.004753034446131366,0.04874837517323492,-0.03735717411416739,-0.0438221795455294,0.0859817329971208,0.08077889823480362,0.01852267106794855,0.004220958600070908,0.020533606981226894,-0.02169758605441921,0.010786997906412564,0.008221725812330737,-0.029715611480781445,0.058204772116404915,-0.06733549987329861,0.12959981508887075,0.14097373782577502,0.055885651483986554,0.02488183639211028,-0.0455550588487601,0.12557643623459627
77.78485107421875,1.098602294921875,-0.009359027550277007,-0.0543387249921299,0.14300709574986825,-0.32667792803158696,-0.08351128241563005,-0.12424980724131174,0.24810375910374388,0.10136726062800622,-0.00046696159858204407,0.00865264306326594,0.03244081574384073,-0.09995226472265985,-0.03679008545332273,-0.09460274268273118,0.06999886874707632,0.03980006729527518,-0.10305299432497002,-0.10078490930203853,-0.12519418018240688,0.045711637140679696,-0.05523873674415754,-0.01778730469528278,0.0007899660694936057,0.013920673186977789,0.02013989940114667,-0.05482476154224565,-0.009772150719481454,0.0263269673836367,0.04602360250096693,-0.03438247242229011,0.02779348528186904,0.15657113512637374,-0.1289314262386096,-0.011555959917092143,-0.011926918497203733,0.14332992845421835,0.18080701176669586,-0.09360093101304598,-0.30392220437056416,-0.2403248527911387,0.16153870318648622,0.10736036211098583,-0.04192581224231669,-0.015377377242908316,0.045958810544781625,-0.2302658128853446,0.6648337551501988,-0.04852493396262765,-0.08070787765089124,0.11858204541849732,-0.44313502783253594,-0.3333904871469991,0.024982862726171444,-0.09880239988749849,-0.01986386757252402,-0.07276402840662827,-0.10582945862304655,-0.15894557425582206,-0.3357170059198268,0.12931946868746785,-0.02356382869440119,0.001831836616989574,0.002453833513060444,-0.024198020051013923,0.03354198942547065,0.08444472896354314,-0.13934270256875048,-0.1925929263754597,0.09153093147224825,-0.037548956680580295,-0.07253304549995053,-0.0406805043809843,0.024939157608001587,-0.0636662491015608,-0.012417339940344834,-0.013177764887001203,-0.11112321554491994,0.0025268529513299645,-0.06346091757641256,0.06004428850316078,-0.06738420810978303,-0.002561980460092709,0.05706414889130443,0.17661331423896523,0.06327176017546206,0.01945217421022912,-0.10698925397249012,0.03961925716172477,-0.06910480845309122,-0.021637261241187984,-0.1112477692069779,-0.014359465011448969,-0.10782564445102252,0.048618379027075324,0.24893731619603013,0.053348893627789495,0.10894646817438879,0.004613896334890904,-0.04420702283904698,-0.013070919033809348
78.88345336914062,1.0988998413085938,-0.008833024941570719,0.2121579107010557,0.1352175051028291,-0.09522307674431083,0.08908489135850037,0.17088604892011078,0.2988172180478649,0.10027750926092335,-0.12520358136764237,0.07328727652240717,0.086360312532036,-0.024811844397851324,-0.0701028707089591,-0.014711552548313713,0.08835019685555914,-0.06316316612587332,0.004213369937596084,0.047330198966276604,-0.06113392088320935,-0.03684669349565352,-0.02614848821019515,-0.10524027088407943,0.0975206295958873,-0.05630079037208345,-0.11952449264658888,-0.04990882639787207,0.02177173311879647,0.023829789174529173,-0.14153844089098844,-0.1096559958284996,0.028769636407378833,0.019945071856399085,0.05274572802869688,0.03166946631524979,-0.09607874841942605,0.09472115744078587,-0.002905969999161595,-0.22134913261852268,-0.22883329335892363,-0.20715212030404728,0.23850286816653413,-0.1436424857650074,0.15812964558346473,-0.23075597245999402,0.18885129286841998,-0.1399597811656732,0.1691509607026361,-0.1872341646915246,0.16710403496429077,0.5010574988229897,-0.2118859044843959,-0.05373585549610757,-0.0031244376049367265,0.02755998018494985,-0.044860215202138176,0.0395620467092156,0.2218443744564304,-0.06288340369009539,-0.02705737893019518,0.01218290291323648,-0.04112923055148744,-0.004167086859738212,0.051270824167229126,0.0602700936153759,0.07018610450661164,-0.06975677221490982,0.017311586685994085,0.06083434248668944,-0.023671779081073208,0.08182164111708638,-0.08585578416993568,-0.01446750252810249,0.03176197375042765,0.07032363849667374,-0.045567567422735364,0.0368188326711397,0.03369487645933645,0.05363737786467047,-0.00765266215032083,-0.0400866345738458,-0.04037605115297627,-0.059236489141566866,0.007793533474996256,0.0667129371570652,0.06036479697586873,0.1324890042749138,-0.10157434454834893,0.020496006527738826,0.019326544104682614,0.0016924873007896236,0.14322416709407956,0.09472402298073902,-0.025162285535410146,-0.037920604302433075,0.01953649172976253,0.012578734721671148,0.011069020393372516,0.005419368631991545,-0.07690062454036545,-0.06754041587807764
79.98235321044922,1.0683975219726562,0.08687802573426695,0.07526200098871172,-0.0829260187819635,-0.20617973608656662,-0.08211580240367387,-0.024916601472111534,0.15588864486301998,-0.23335027258215676,0.11972361899168163,0.047540418924425225,-0.013277729309774503,0.0541255933203084,-0.004918921989884337,0.043344065786743886,-0.03892825041385502,0.017692489272273345,-0.11708044193836024,-0.15099862178573217,0.010285731897981057,0.061573891467150074,0.009117638738073409,0.04917366374533415,0.05955992370968638,-0.06020378986835588,0.07166163901986591,0.021953076232482625,-0.034403966057935734,-0.10099591918662507,-0.05280172728627845,0.14052530551610254,-0.03695771980963437,-0.009471833598850636,-0.03859708352474268,0.11566490546121576,0.13416629195367116,0.15844071276748886,0.12003088031027767,0.08337322076512657,0.025293357815771654,-0.05752550713324581,0.028842565423330847,0.10995564642307193,0.0688322703839048,0.2023865092143091,0.25968126524830054,-0.1768396253937949,-0.41216829355347656,0.20514805843183145,0.4127275929001115,0.4027783283194851,-0.055683389889507134,0.3058690253268246,0.17185890063249806,-0.1759581908817099,0.014519627863038488,-0.046912364953844786,0.08557602935966953,0.020837421245592944,0.05743462573919356,-0.07720515606872565,-0.07442036271355265,-0.09612473932696249,-0.07427472935827062,0.08063927995246763,0.11100703936096684,0.03138644202866719,-0.031142353645069454,-0.026062726851863862,0.05835288568642611,-0.07008209111498659,-0.015427969690576188,-0.024346902569055535,0.01499549416787125,0.05847432717219471,0.01471280226961026,-0.12073435963130932,-0.031869984859808985,0.0356257200258272,-0.12435858311294642,0.09925056520077727,0.10454803405902575,0.014640895460735992,-0.13141609489404643,0.03411547241673024,-0.0593165638566453,-0.08125364790844213,0.07997488256350402,-0.021978869561649465,-0.029745783077141517,0.1405408137048767,0.017393255896248058,0.028420411094974563,0.05556430451040037,-0.05388450746793384,0.06687135226971651,0.058860932111641784,-0.02398897948417914,0.03230142467654137,-0.09060670693702123,0.0726347228359736
81.05075073242188,1.1389007568359375,0.07938851660270194,-0.31651835689360314,-0.5193490520685127,-0.28956676513989255,-0.07904808000886608,-0.34353375163267275,0.321514472229909,-0.06527950676573623,-0.008205844036852183,-0.05722527841367922,-0.0034033084495841658,0.13956035361819166,-0.09699169618231579,-0.030383628912531737,0.0016961968857553238,0.04548456043235164,-0.07454913257040093,-0.10253002751555604,0.14310292072899689,0.0240388374537447,-0.04538679927047764,-0.1397370852058494,-0.02417963020043672,-0.08825044112933107,-0.14711998448387745,0.036584900394841136,-0.15397732296172123,-0.0812935074847708,0.015647207517366927,-0.04018205534752949,0.031429387176489375,-0.09380784624209468,-0.05216017634228964,0.09367410494276501,0.21855226804934075,0.004331779047890147,0.20487134295248363,0.06709851621405934,-0.03248675178653608,-0.1062225641642914,-0.14601137907039283,-0.010137082986611923,0.032696054224074914,0.05089309789493609,0.017751617080313597,0.010361898573429285,0.3283082567987857,-0.5125847080990666,-0.02509029776063745,0.07599989335230208,-0.34151010210595223,-0.3198493429484074,-0.2067233064134773,0.05066973325436565,0.10039304962899771,0.2347387710030795,0.013558511435560723,0.027374061361481655,-0.16546316798749444,-0.04247861902023424,0.00927176512018968,-0.06801130638565288,-0.02373434729744177,-0.05308500579237036,-0.03589602789162306,0.017054781949704084,-0.01829614258585652,-0.04045229661022405,0.08579380838305135,0.04255309777530718,-0.1308918555799282,0.04285138346739964,0.02041585922635286,0.1129640022092455,-0.013767542250216157,0.0003674571275884761,0.07369521824476669,0.005226162985321594,0.04253076748909665,-0.08627611774693761,0.09288945700990969,-0.10019139257691621,-0.024558892371428977,0.0016784312005323264,0.014799200508842866,-0.05612647264217978,-0.03598488899718447,-0.03907182703173,-0.081185403151454,-0.05678608615154487,-0.12575964647011495,-0.0037083141019835604,0.04011226600410455,0.0007696471512756735,-0.007922249763421423,0.035673357553743026,-0.24621507355049288,-0.03820496990094611,0.005306841118434142,0.12266353459439078
86.5146484375,1.0988006591796875,0.022739725466795147,0.006346867218841848,0.02345747955110807,0.08149743473475819,-0.09231899249616753,-0.18933867585734762,0.3703807592418969,-0.059072394918011195,0.057237242951940964,0.34186456258546305,-0.019604844159377473,-0.1072757949968212,0.13543913206706779,-0.008421160290684659,-0.041849040787192565,0.009833629914988528,0.08251979811628066,0.0804981195899594,-0.21224771072545934,0.14977383881709316,0.11962506832136835,0.022649702103698127,0.062042769836766626,0.02749573904404195,0.03668848816316676,0.056610796375836304,-0.03937866965145085,0.05717400989993979,0.017049158124161915,0.10039803066801053,0.03354154595088284,-0.07839118076006668,-0.010754430597297908,0.20312392558726858,0.20510906073682214,-0.1756522953004731,0.12833357603128154,-0.11315647067430694,0.18991416957225438,0.3003726963629305,0.17758719315079224,-0.04247494657109643,0.12292786602584528,0.19264440650178236,-0.320895509286138,0.18867890708040821,-0.34638281249442776,0.15557732297907056,-0.24800296444743886,-0.1266743113530095,0.05515306750115018,0.03905080653885805,-0.09103040550791863,-0.20660656519916581,-0.039603011815533405,0.0010360359792294504,-0.012067349228079536,-0.033416865822451215,-0.1379338192428787,-0.0426447001309863,-0.01220424370322179,-0.0037159187867034328,0.007223187672296088,0.043753191947085844,0.07515519179965115,-0.02858849950253055,-0.0961666796676451,0.0424201045488768,-0.07636257637513273,0.03651805923188323,0.06607151139252933,0.09422359162699911,0.02242394307319935,-0.021584542451419844,-0.025837059644631805,-0.03984540917751845,0.03754897010782957,0.008819313441848133,0.002769822986622454,0.04218019343870213,-0.014889525389115298,-0.06632942823121853,0.06671927685216543,0.041431476438374346,-0.06862447385824649,-0.011095205647309616,-0.05051832193311752,-0.031508813209493135,-0.08037257590019985,0.028981278485111797,-0.06318330453804732,-0.07734321022861945,0.04694459539629936,0.005612953345676044,-0.05479350689207534,0.041681686576784095,0.12383488661367537,0.2679468730055844,0.08097099458882663,0.18034797921566115
87.61344909667969,1.0887985229492188,0.039496711592864886,0.07239834748999947,0.09181583550554526,0.12240862847157866,-0.03437417094792604,-0.11562002330282975,0.038709124379310796,0.037917079005153995,-0.1069654321655218,0.1088284970724877,-0.018747878223266477,-0.02959186221754436,-0.00941766577692981,-0.057658357279122864,0.06394403796676246,-0.008521398354853577,-0.05467225604722561,0.10169242171526188,-0.02076868494984586,-0.06273282572616072,-0.07230932053666794,0.01881170725636236,-0.008425785507154572,0.022778793751604867,-0.18567436133478513,-0.03236333524884348,0.04527508936897679,-0.06163494257487905,-0.027506592710453002,0.3180929596831884,0.22115255214451773,-0.03594920240961982,0.3037839785332004,0.005848239456719906,-0.009058018354052816,0.04244564435140395,0.029370815046538302,0.14558170180766025,0.03814349613659562,0.23281038091350986,-0.11153843549559016,-0.021304624009916763,-0.10990571392805039,0.3953071653061497,0.3384703090357729,-0.08717663114058713,-0.3720404767812175,-0.2898121731650733,-0.18204210023063894,0.07342412914255557,-0.26316013595079785,-0.07184470130939757,-0.013489307816432192,0.33871093742242164,0.08749369936023123,-0.22944025061679066,-0.17041326733648454,0.07007383847017903,-0.08976711795971326,0.016250563326118104,0.00439433899194043,0.07550212252139178,-0.06844693451287347,0.036047188883993136,0.1572236440919786,-0.03666975162146134,-0.07259289556879338,0.1288906664498505,-0.03120492852335352,-0.016536426587251168,0.006875701173367659,0.048418633968473124,0.008216667366648098,-0.030215966456532063,0.04295156516010615,0.08759455104087077,0.09421783773403311,0.15507001875129084,0.041967384066308254,-0.07857157699835021,-0.019000503683810583,-0.031329181643161765,0.17709291426049933,0.042101855115644654,0.0010025922535390765,0.12872311607824985,0.07750925969134927,0.08366574988197599,-0.020237410683141752,0.010193821403959663,0.09027788476010462,0.06171292305789641,0.004563732177898469,-0.0685086449369929,-0.08043777610905056,0.10789009044521093,0.08940245962867989,0.028621417391929912,-0.08646984643871913,0.11896908158143032
88.7022476196289,1.1786041259765625,0.1090222674774349,0.1573249827014567,-0.10082357837914935,-0.20230958689411274,0.10162960685322013,-0.09049950274862306,0.13660486320789145,-0.14532676967343047,-0.325625669844276,0.07221833650376955,0.046615709527806214,-0.10865475489919535,0.07794969393794826,0.03229728464024956,0.0718118125695178,-0.011877590160163293,0.0046292407030812215,-0.00899215115503597,0.12741001181026507,0.14498945927266976,0.07004419300995987,-0.09943195794190392,0.0011813844856087517,0.08290605031669582,0.22514930482069181,0.02135184495594094,-0.158606543418878,0.09971282525877864,0.03465930280247726,0.018776553495096493,-0.20211011618919777,-0.04646121055582325,0.14289830286481925,0.19594260803027774,0.029209692786123096,0.08735478143222147,0.1615085855057067,-0.044387573035646236,-0.05940242429101556,-0.18135780422173653,0.05868201050318794,-0.06854283719852361,0.11304266626736816,0.17846050432633753,-0.3472830937977663,-0.10433744050750857,0.20338576575135445,-0.2481877842243048,0.3727924966223139,0.251638596424913,-0.08262421156990535,-0.0661500030901466,-0.08340208041394412,-0.024887415706395473,-0.051341933465356475,-0.038666616764216816,0.24142641365038126,0.03205624496303078,-0.029452556202529186,-0.049342606440850485,-0.015208822366815589,0.0005703398720470765,0.010824999524675586,-0.05486233811424354,0.17374799810578676,-0.009277266126608659,-0.07060973500840974,-0.06313763947833065,0.043247372406999426,0.006209116527998281,0.05460591558094319,0.12411579177726924,0.057245785694514106,-0.02128698733208008,0.059671658902074314,0.006082731881360506,0.019374502536142965,-0.0006966348425379819,0.014316677638334094,-0.014323805553910794,-0.09877759958718955,-0.11026392008309858,0.07729286444076117,0.028778139969624937,0.05204981643224245,0.11006442315466765,-0.011725428439351902,-0.049891757792898755,-0.010140641248250065,-0.02488213083689727,-0.16993016806701053,-0.09734969394018883,0.03244290833120664,0.07081074470913015,-0.023654012672149526,-0.062147555370057984,-0.008562993221378167,-0.07894292743546821,0.10048214800480605,-0.10795701645054098
89.88085174560547,1.1786956787109375,-0.10917996208769204,0.011180335981051108,0.03330154612178781,0.06579164359745046,0.11510205006075169,-0.28543476694166536,0.05569979120471875,-0.058489720883487785,0.19358638215584273,-0.01658747362552497,0.02418347689057965,-0.04387214829036475,0.02069730433645701,0.0762746431572833,0.0019514600844063312,0.13579761775282118,0.009092185682378278,-0.0993039248420129,0.06738419051450606,0.08265651354773543,0.14596283429613305,0.08006782746576505,-0.003158545634648978,-0.15097571855527644,0.13327440061996068,-0.04752200303551978,0.011982104484647304,-0.03457357263394814,0.003809265107955086,0.14526063850839024,-0.054010608037075254,0.1709551213026516,0.028938977799474172,-0.06361960410622723,0.15013908732657633,0.06166690506223817,-0.246912363878985,0.16524185788483933,-0.0667650099447894,-0.024765382012598675,0.09924567392756788,-0.07450864144074303,0.17545737597081512,0.07475758196470017,-0.24263849030411763,0.1712947344805375,-0.043586722894806876,0.20771312705340045,0.3168894497324697,0.0007347327655915152,0.008836762398485062,0.3701349857781073,0.39997856235737056,0.12142832073286579,0.03112203989909422,-0.01843613429241016,0.04654732523101051,0.012713917727035468,-0.041935683272309066,0.053457612016414545,-0.017018626164221614,-0.1537974240045895,-0.011148406793901371,0.05346297971724035,0.03588820865748489,0.03838242849139996,0.04859182367981859,0.027896844268780054,-0.043033638647120044,0.03542720322873659,-0.028921862740995043,0.11820750050957393,0.07907858571918296,0.03452041697235622,-0.019331104664843144,-0.05065109125560106,0.06193482521211353,0.04328105963121357,-0.005525025099708691,0.052169962105210355,0.10320671262214597,0.07148556123627314,-0.02472362437439882,0.011310247412305113,0.039047612412480184,0.061491869780255295,0.1433616121490387,0.10451537757158252,-0.019105384955699856,-0.03347871673665594,0.06693559671543323,0.08711085964248716,-0.01991976752572086,0.0036220200688283077,-0.006092580856698934,0.08384839972432967,0.19701343886587436,0.05447415586905834,-0.05711790463654239,0.16390612228118
95.08495330810547,1.1083984375,0.0267237437667549,0.030835472391935702,0.19004759408893224,0.41426463234196437,0.19478185900926018,0.15637349202655315,0.07079546854780155,-0.03674276962752998,-0.12307302731657224,-0.05414583299445383,-0.2801389901616725,-0.08627462080314433,0.04727287978362311,-0.022371415721169963,0.06299621994081626,0.04573559612556447,0.19317742828399145,0.10251359265325749,-0.007615157591669322,-0.1021937838291458,0.057581006392443575,-0.09315281973658611,0.1901426579248334,-0.028046807474353203,-0.021713817431354615,-0.2905266368576105,-0.09274703507423644,0.0773358716891228,-0.05261641936663933,0.14548968656441963,-0.022525858378428847,-0.12063215008513903,0.01155306223720158,-0.06494369549360916,0.05004761921145541,-0.11564518313374551,-0.033488836736133475,-0.05524417185267792,-0.26737329655123937,0.11684000549771884,0.2173190485774696,-0.11286238351651684,0.0748244568237772,0.10730008188899891,0.18344961805002155,-0.2377603247233704,-0.10056820795591048,0.05714003318522117,0.6549861792681634,-0.16696950022127827,-0.4813502579311868,-0.2919491272807255,-0.06636654780094996,0.2541242140183191,-0.063951321008263,0.03312442929280709,-0.04652117207229197,-0.005455668218265171,0.06196718028046394,0.05966444309731989,0.018332054209635344,-0.005662864449922943,0.059117678598221354,-0.03332448156134224,-0.13182848278996634,0.003369440960610345,-0.05319407948573034,-0.07910380896177222,-0.008430651700996016,0.04050226871123554,-0.01340288644916151,0.03307207346816451,-0.004940496707380393,-0.06349277255217528,0.03409362770253821,0.1022061452853655,0.010896605463720847,0.012214168229342383,0.015603694737709152,0.05025742231729801,-0.05606570612773455,0.008700925395673001,0.04626090309592705,0.042827890839732256,0.006219037276897682,0.11306004260280793,0.03982013644133741,0.04657224218901205,-0.04020142025672651,0.055370618728905904,-0.12595880499799655,-0.030913337773639114,-0.030730385265550282,0.07850346354723518,0.024859845673318517,0.0778312821821681,-0.005580544401875694,-0.0501661155616107,-0.006557976030149777,-0.05538220564283451
96.19335174560547,1.0890960693359375,-0.06866213261520755,0.24157764053143413,-0.15553795640416115,0.19214967374827735,-0.014344021203285276,-0.12842580497278605,0.13549274608143205,0.028658732630771216,-0.1999850561205379,0.10854873212119164,-0.06364950606811481,0.019549689789894478,0.008149706172503197,-0.02345677376176961,-0.002432339848223269,0.001460123327945805,0.09517399089643547,-0.0750453132778033,-0.06536778565291747,-0.09875703702283649,0.09143446994314773,0.03203059619971216,-0.11035798849962994,-0.05967771384543934,0.11370939353837511,-0.21887176864556163,0.04831610971343983,0.13690707524741103,-0.01604831523475486,0.10440835066379216,-0.0141115672029479,-0.26940042373481693,0.06495542329298223,-0.05709805118531637,-0.06330833796779509,0.005516500955140924,0.12616388943061962,-0.04344177514777675,-0.24075575319130424,-0.23489623099790133,-0.19606734023364344,-0.3592125268245452,0.1451419758114833,0.11863583633539486,0.003524677749896607,-0.48323702869643836,-0.4960713731766254,-0.06367001559090985,-0.4622659224567054,0.1116171111334284,-0.36583334704523995,-0.3283021802965711,0.7922424489312389,0.17890683245832392,-0.028247898991584013,0.02353036041602373,-0.005266105621186559,-0.04389995802473635,-0.06200555362990086,0.04184414028118304,-0.08656915773007565,0.056660424286129545,0.054144707294536104,-0.10153035191626587,0.11955241040568261,-0.076442643013567,-0.013456494790181817,-0.04316656510960977,0.13624730640539245,-0.00864088749215168,0.002977982969116087,-0.07308447940522363,-0.06288569234373839,0.02620229058802775,0.020632368312265767,0.07711902341076154,0.0007300089857999043,0.05550880319797333,0.04594573535521994,0.025323803107887705,-0.023786644443026587,-0.0939396017382679,0.08610405963783889,0.0663454520168106,-0.07021726259413434,0.0004926065651179035,0.036319519361004915,0.008149692915910115,0.014251774005293087,0.016249440537932296,0.03530751403886686,0.00845201759911848,0.17281026522180237,-0.0007963080175031123,-0.05911489457858385,-0.030003970675227795,-0.003453142360096878,0.026696176427522426,0.036042941726425345,0.11836146403902256
97.2824478149414,1.0886993408203125,0.2791104956349315,-0.00537797606209864,-0.5325478215941402,0.4606885420212202,-0.024658342600900635,-0.382278263619816,-0.1589718671942904,0.0059816921154457236,0.06675152004289031,0.0731017140307001,0.0027892534514122776,-0.002763772783929662,0.07212452837895694,0.07371696875772803,-0.03146237036739466,0.17651578893502662,0.03901225519471023,0.006531806838127468,0.1622808270449987,-0.08920498907136269,-0.07759908244827812,-0.0161367194061901,0.22206870729955103,0.12245247151435606,0.019502248763012524,0.14420413307191102,-0.019537341653271464,-0.09727621452636702,0.09106496946377135,0.04284062167780892,0.10928173920953073,0.06063870511318141,0.176173873626173,-0.002859991804820383,0.09188675193154809,0.17755906388660175,-0.04527697794134955,0.040291275910058724,0.23582061256486408,-0.15073652508309643,0.15012539003809897,0.10117008034119061,-0.15474962739706677,-0.07574525821691541,-0.06681113520107694,-0.4555275849006801,0.004036646348156685,0.004209164118607781,-0.061764072501854304,-0.08512022161588222,-0.31374275839887134,-0.04420873310515983,0.032864530040988396,-0.06332746627359595,-0.02654686074030975,0.05269950733351757,0.1728867056723396,-0.3013171905958214,0.04602473105109178,0.028685613888966014,-0.061306415236163384,-0.005108179701708239,0.11825737194663327,0.06391753533650052,-0.11443918384097317,0.06380705594036368,0.02818509273089994,0.07673325830447789,-0.06550159124552554,0.009332469827148185,-0.02160911894376801,0.08634154623431742,-0.05087698119084079,-0.022613983186276106,0.07692240103274404,-0.02400199832625528,0.01694149225985065,-0.03743620886177971,-0.1615604189149823,0.06694029153438381,0.020629160582212976,-0.046290443506421565,-0.022370612502244015,0.040005272827038675,0.007519158138358733,0.10797794713767694,0.12677189972964345,0.06393152015058595,-0.01052957591977918,0.17465389807182896,-0.08638094869140964,-0.11317722631226507,-0.1461199643413434,-0.011688899137958605,0.02869027520708807,-0.02943225623030211,0.3851885746053067,0.14992103436696536,-0.014307854844765938,-0.0642012940781744
98.37114715576172,1.0988006591796875,-0.0527947401257438,0.1469977042993864,-0.2671507302973852,-0.17298949769045924,0.12979270998854972,0.038973893805180175,-0.252278281704845,0.07199262281343888,0.23278224156195587,0.10280854249759026,-0.19212953912403857,0.1444679185207597,0.1809100483564815,-0.3898898540183941,0.14417060914358507,0.010354041530047296,0.08509190229145686,0.020362066586144284,0.005150234424456279,0.06052875930248372,0.00986008880532709,-0.017902747781417983,0.014683078227713633,0.20990608404008368,0.14316956425666763,0.049431149774831123,-0.02510096934006588,-0.013591165320146897,0.04378539740466045,-0.09393599705654436,-0.24615050529498964,-0.041838768546246845,0.04513538349481511,-0.23650385852570524,-0.15464277434126167,0.08980555391683442,-0.07920388915744563,0.3356712778973681,0.2123342643243231,-0.14470067168864115,-0.2690841428271138,0.015504621134368304,0.11181542020763097,0.03753134985710378,-0.3303126702534218,0.24243680983139365,-0.19581553106238234,-0.3712567585461088,-0.12771666268962262,0.13374501054217056,-0.22139652930829898,0.06612031226906234,-0.6057057442140557,-0.12297707824982261,-0.14564229381334357,0.03839502845717224,0.07198039083208513,0.18268024843353664,-0.06395154478446127,0.08019383306304168,-0.020237188305662505,-0.10564425064772141,-0.02491027005819522,0.14977405675846522,0.043421648524071745,0.046989659232889835,0.26214818809236906,-0.08792625174379756,0.04490907826591208,-0.005620415335959639,0.06979789422015865,-0.0002620849921278435,-0.004841152003990419,-0.034673634008782504,0.0074299036199131155,-0.03301123551331367,-0.056509155191050715,0.011478868342448077,0.0925227755038614,0.03427766894021217,0.07110740141752904,-0.004552888578012448,0.039259705649564415,-0.054645112242056634,-0.055974290827949295,-0.04399290499970391,0.01147173527046323,0.054376712193028864,-0.11762341052119735,-0.07243586012325859,-0.1176365616529638,-0.026428177125460847,-0.13732553324918492,-0.012238300547879713,-0.027069228487379342,0.08000558743841041,-0.08833512118388938,-0.008364367267166823,0.14140898271701474,-0.03215181901931312
99.4699478149414,2.3274002075195312,-0.025027072974958105,-0.07125028469766279,-0.274910709582672,0.016546123801392275,0.5001322618852353,0.20784631276628518,-0.08863718128364176,-0.01301962539266867,-0.009559463697498582,0.04066652557338103,-0.16259902455026284,0.02031564527162162,0.08390200910497354,0.03940950804002626,0.008617723979751097,-0.019421818109192544,-0.17938437384750094,-0.06751103335844615,0.22643265779505983,0.10396166442418839,-0.0736320215644218,-0.011540416558574969,-0.12654266981716758,-0.21177109538503242,0.14551727395287525,0.10202794642538902,-0.001836809386292916,0.0147134128779235,0.07118709866309447,-0.14084060978428345,0.08961470817227257,-0.011071499707427048,0.09817477272650811,-0.03265518539509923,-0.011368091832741463,0.11571829220300459,0.013116533964216873,-0.5596818965636766,0.041182864017780624,0.029808159260032673,-0.20989972864317488,0.09915292850316597,-0.2578932301956823,-0.04622173533492765,0.21382193460859056,0.17102432614512708,-0.37962394586155634,-0.005789845121431534,-0.49911077139613885,-0.014847624119327378,0.0636535444802171,-0.0027968318906731304,-0.2571772579212487,-0.007809934812625179,0.011698666967400117,-0.25780671345710127,-0.020269387058519973,0.024949659386108967,-0.007003665013108278,0.02914021166666538,-0.0033550538937720887,0.006960406262366356,0.05175836704214214,-0.028726478593908977,0.1164208713575112,0.01934160019250064,-0.05657051628067851,0.018561175233142744,-0.05484250030140722,0.1269515350179967,-0.12611445387183515,-0.003318290208233078,0.06785742907584279,0.20912245729269777,-0.02209561776803809,0.058594604114267076,0.02245072144542835,-0.11332420665744872,-0.09229926704820263,-0.0584137008129593,-0.07476933388062974,0.08698331772575038,0.02433109837389888,-0.03629737783531983,0.06246224739281918,-0.1347548046256819,0.03942855733938582,-0.014898222245647161,-0.045384573576407225,0.0778680399806825,-0.09713742173309298,-0.0033056247412391326,0.08036018380230482,-0.05605685758454028,-0.06763584484527299,-0.03879481243547947,0.04697339658454114,-0.07039076358960594,0.056888264498669835,0.12823399777472788
104.00464630126953,1.0889053344726562,0.10518280973110541,0.1241605546310729,-0.006727685336000627,-0.13356348462178,-0.03413269745241898,-0.11141320076465974,-0.2031147111235421,-0.041780569891177566,0.03765105909141088,-0.015545463052612063,-0.030934096534843525,0.09626924302970276,-0.026039269922118073,0.002537782494333286,-0.1224420955259404,0.08257959793479022,-0.008914241255749432,-0.1831447114045584,0.06144921546323561,0.009876300858528954,0.08413312093904562,0.002706220419311023,-0.16918286063972313,0.07552599777854657,0.013513952960764526,-0.0542782439380283,0.03240009629113228,-0.02962803036872653,0.009373050548000332,0.0019250810482062172,0.18822018655873043,-0.019852726772021042,0.008204711010242201,0.05353251107502578,-0.13092360018903965,0.004045164525274661,0.027385377692854353,-0.22010935995268321,-0.1871425020443972,-0.1562438194296087,0.035326441756700425,0.046593990483001196,-0.06757738414093165,-0.1755373624659585,0.4491535739991935,0.05576226946318874,-0.04635734873740423,-0.06635528896073649,0.23506163161276344,-0.10504890887771282,-0.285822239962089,0.252985214530616,0.2622488488470879,0.018091722693433895,0.16351906918119474,0.20276111444874187,0.05630944316085046,0.022184590567714796,-0.09873457090068917,-0.02439295839350416,0.011124827306021023,-0.06099735121518693,0.06818728742107988,-0.025034311540427512,-0.07681979723547021,-0.04141870989448913,0.0042314998363301905,0.09569335599736756,-0.031023322095476504,-0.04790681901518745,-0.012361515592189612,0.008815095573252925,0.059198325307648667,-0.048478016451624154,0.05947804008721477,0.029651032020311056,-0.06508736183139993,-0.0035658396405471235,-0.08265970651226218,-0.06595269721817135,-0.01855806663735265,0.10414468948743388,0.004116720653815666,-0.10977689297517851,0.04336114260014945,-0.07288063104093473,-0.0455168854732483,0.015630609619549974,0.013148075557254968,-0.08385763550473613,-0.04697435309446807,-0.016703513875480275,-0.03613239929287275,-0.017620487803815324,-0.08499619138513774,0.06583785118654331,-0.08094846391770154,0.0013596072952790257,0.053250649616104866,-0.024967586137928707
105.09355163574219,1.0987014770507812,-0.03618284881610465,0.08406955018342877,-0.09342890996459743,0.16751890958225552,-0.202793068329358,-0.2639055533442004,0.11584039434926732,0.027895337548248467,-0.08051273594460978,0.08752378046860382,-0.04689158790319795,0.024522392876935122,0.08028575765921672,-0.013059214116154592,-0.059240525146738394,-0.041155811652123175,-0.037657339882265856,0.11478358048050462,0.12225046990538024,-0.052023775556357815,0.22583116010233503,-0.045356563549889546,-0.05021563045810056,0.019848852918526297,0.008166347940848792,-0.12697031620937727,0.04287840788078212,-0.07680439087921564,0.060077010626706694,-0.05343475981302985,0.16667078299343932,-0.06555846020320764,-0.04423607856550714,0.08214994648702091,0.08419725394519273,-0.07475544859974181,0.08487448583444553,0.013653691772270863,-0.21870764278275878,0.03905540197561491,0.14541946072194006,0.21124988313158938,0.024197061191020188,0.03630182798502813,0.025366612752238716,-0.004716490623656158,0.06244627950940373,-0.1038566847890988,0.03261485218422792,-0.23496765113795023,0.14059130285108462,-0.07968147069016565,-0.049998164953901074,0.1867049613682099,-0.1669419867647724,-0.2541370399383137,0.11225988954723622,0.13756478537412714,0.07545375698218458,-0.04617629085715913,0.01620431300650072,-0.03556618147006012,0.04646224056609883,0.12513068509695768,-0.07818325994716581,-0.014156996434076601,-0.03835211301376551,0.07841012040222643,-0.07768705097463635,-0.04088850848330927,0.036883466214337524,0.04094988056522999,0.011469569692076052,0.05106200944506345,0.04464511509811469,0.04351798784867427,0.041935855741439286,-0.05882143426463988,-0.05217234165767741,0.01970106764971753,-0.00701400606197985,-0.0801127200718465,-0.047391905404851185,0.06364759762060289,0.13896800213378935,-0.043192813285284834,0.010010172887446081,0.003933635646693957,0.008082896609910076,0.07491072630128749,0.10289586740264071,-0.1602223414418873,0.01598602003994376,-0.1300410575399736,0.13591733145392432,0.040828383340894725,-0.013618704030273012,7.907281034149694e-05,0.04243850490051275,-0.13017661838636663
106.19225311279297,1.068695068359375,-0.277897738915751,0.04233733001972431,0.18467280526850136,-0.2316755001919408,-0.12219296817642858,0.2330025281111484,0.0654499271070196,0.004590959383221013,0.2447005913380127,-0.03281301286362465,-0.3599545007302551,0.09521411425403843,0.00730592516605287,0.0476181813955025,-0.01763192775776444,-0.026604267547106805,0.07872431354532858,-0.08454228177282404,0.20233617798828427,0.11129132584373824,0.16430087796772255,-0.019463268810219883,0.07626204480427295,-0.09149444218036089,0.1522781725899293,0.03667055233880205,-0.14406131249197562,-0.017368574742252733,-0.02424088793449043,0.06991785479066143,-0.03046133391314309,-0.168967380739423,-0.08422423584370821,0.059131844372848255,-0.10694200088725793,0.11154569436980853,-0.07044163311744854,-0.15253520528308329,-0.2224549862359903,0.09080553830841483,-0.44315179107670716,-0.27124234052036644,-0.041052838150071845,0.11220165848910028,0.046476913241108087,0.09722236730207567,0.01305432411053549,0.18121247941218105,0.1423877739508763,-0.27493293173166067,-0.3439837515203074,0.010873366613703844,-0.93841120763885,-0.01890222288345189,0.04814862251438952,0.09786233343516774,0.16655284147961733,0.019415382598026193,-0.05601899484275468,-0.06941322244502372,-0.039166235606476196,-0.013712408098118911,-0.07613370878505762,-0.08624350480897425,-0.029988489070305303,0.2007665909593497,0.1625173735732001,-0.0032923422703248404,0.020256358567845908,-0.02996874486730742,0.01675913767439806,0.00936411888869822,0.030852481203864288,-0.009830415588745945,0.03701007266448187,-0.05230204803428042,0.009970130727622352,0.032462892425010575,0.009843025741537656,0.124941793881448,0.06294072372454555,0.06840532968984725,0.10853756970674815,-0.0004024636006507865,0.061556358739348775,0.07369224529854072,-0.0651595149853859,0.07781015720210964,-0.08478050303945275,0.004122719961116889,0.06399065490537344,-0.09831830287953176,0.06667989175509287,-0.016802040321917407,-0.07946320550310557,-0.0393852590648273,0.03842422594200293,-0.017438919169080788,0.032823525508082686,0.0533446269248751
107.26094818115234,1.1184005737304688,0.03442072710174918,0.049286319096812164,-0.24814313059689036,0.16702902109061857,0.07507856933989623,0.4498767175725551,-0.032057567671922346,-0.19968072021431385,0.05388655014723955,-0.17665820349780786,-0.08921339918652532,0.010641587657954837,-0.1026131872115203,0.28067923949715473,0.1792345987817408,-0.019419970686860327,0.1803493065969548,-0.14777151389817628,0.00809616914206028,0.20029751392442882,0.022351319425978677,0.1939692733186168,-0.18884317033841042,0.03645651670322957,0.0345676506402187,0.02059784122656738,0.14667072738106807,0.015732711907580008,0.04665692148763684,0.043925640628091234,-0.4270121160479192,0.03232790592806708,0.05535202530598107,-0.07473522142850579,0.017828911090880292,0.2091242758190659,0.10721073498096112,-0.01630766014465427,0.2049874856439624,0.1051627160926078,-0.06748559949577607,0.11860810892946783,0.04788757321071147,-0.12515493080683873,0.053885319218168796,0.20424986266732814,-0.09148397737819597,-0.07748865598068161,-0.13037523865845582,0.12402816165123182,-0.2574998508519872,0.23488065186657883,0.19018999517139734,-0.04791678942559644,0.08363464073068458,-0.13245059605919518,-0.3176446197464769,-0.001184374351406451,-0.009489190155733213,-0.1480790487119878,-0.05139507829661615,-0.04272975879173763,-0.06223962611858014,-0.04151811759767845,0.05372677106053134,-0.05325955434227773,-0.013997289934043991,0.13001453636607385,-0.023118157169662167,-0.047047435960547695,-0.007921467210563596,-0.04254411836999465,0.06631027681753118,0.10083773597389278,0.017648419426865278,0.0128657305169966,0.028317876793233096,-0.06107836360790639,-0.06471313109354009,0.07208098823666853,-0.035789276946035155,-0.022379791613398987,0.015160696097499295,-0.10798241867028721,0.026322710718408016,0.051021603983873134,-0.04110477863027022,0.0002609595351590749,-0.022167635900081726,-0.01705643452222444,-0.0660449532438707,0.13485930918140976,0.07945730992852519,0.0011862271732364649,-0.018525532290754664,-0.05612784992970953,-0.08777692345592303,-0.011980396407738653,-0.09751306102322857,0.0969099754999033
108.37934875488281,2.2275009155273438,0.09422710791195565,-0.058211752909798554,-0.19792774119634207,0.2653786554726055,0.020606594611635394,-0.09772611390111005,-0.03817187154687279,0.46688235256257626,0.1494295655062534,-0.11154397189380315,-0.05247386252033472,0.05716566768172103,-0.024627390950448635,-0.03653456609816613,-0.07932514713470237,-0.06821250056576433,0.07336899258226795,0.022465135101027024,0.13333878878457692,-0.1294654096286378,0.0166814455369435,0.11118162257523624,-0.0676731777558303,0.14634628189727414,0.007762252883239271,-0.029696980030031635,-0.0200397394517009,-0.17263254346204265,0.11260743870768691,0.13032825858938904,-0.0775138416897056,-0.2440404229993025,-0.13932554903325767,-0.12073374459362732,0.003612760989004534,-0.10367901365607674,0.031928466343336986,0.058511845988650064,0.10012405035334472,0.059564664738367204,0.1619611423370589,-0.12066890567027293,0.1896497977667525,-0.4744118321249623,-0.056485249612278146,0.38441736221642475,0.3741605378346513,0.11272694814814635,0.20900987253637304,-0.08357846239904468,0.03730242257012685,-0.024330993213564727,0.002697982065922494,0.02849075312303177,0.07658340523566348,0.06919432325875462,0.04028563006671262,0.010820078831308989,-0.0003412633067968569,0.03603287921636172,-0.008809149001437375,-0.07644340962395414,-0.009291134623049282,-0.19568816234190292,-0.03244189011244063,0.07213321907945282,0.00021366000555946008,-0.02047083956143885,0.015784952271250596,-0.01839183559297803,0.019687772450365043,0.014362895426855158,-0.011033436185356613,0.04846328407395016,0.03410862774838084,-0.08039249040247115,-0.06989710820534364,-0.145251538444783,0.10603517474085272,-0.04376010777479458,0.0315055239345173,-0.0223385939350633,-0.015453040237438022,0.09718016912052449,0.05705991532335626,-0.07291923865424112,-0.006726686303335868,-0.02525757324833297,-0.06871938593767304,0.006388952639228857,0.09411844615864302,0.07363103728025248,-0.10649455865345535,0.036555673863135865,-0.0033106326366044783,0.09923173686762751,-0.06738433254734634,-0.08517373791780943,0.010889781835978718,0.12488847575604395
112.78475189208984,1.07879638671875,0.03661973922450318,-0.0033649027976890775,-0.10628066210784987,0.5576405320549133,-0.05789441325935002,0.4506202400562834,0.07902721215601885,0.07784380935286297,0.09910728633933737,-0.004047866043993098,0.15232039596646035,-0.03945585549343296,0.007462462559351041,0.06722345450258889,0.06005663437688055,-0.025931554037947092,0.1562300414688909,0.11730532799978562,-0.021438394508943547,0.07364032839746347,0.03966636468630963,0.13512821371142653,-0.016722126820861525,-0.0064643801658425745,0.05569638487178383,0.06482779932117036,-0.02358269096833556,0.24386120691273233,-0.06330464591059388,0.22562676521715452,0.12443087557392375,-0.07640194968339337,-0.050656591582010906,0.05842916002338894,-0.0029130079995188934,-0.07049575903801024,-0.1464896185688416,0.02518837782583573,-0.23379523839884003,-0.01715344799573508,0.11703391138523705,0.18639357532884884,0.3194033533410106,0.3688870370913267,-0.08074922848950881,0.013592706167962543,-0.2208874429684365,-0.26555075590115074,0.28431891700762524,-0.03393510482101148,0.3451478855818382,0.08615535350915947,0.18293568654116762,-0.014824226606012899,0.008148007206845876,0.06987959690875052,-0.059511706479207595,0.045204589994494324,-0.016297512376408682,-0.009203056288286823,0.059090268551307126,-0.002792026193845522,0.08962008850845643,0.03197898426570158,0.002590188793221024,0.08188430597186366,0.06448915314243968,-0.14256056774316977,-0.05777683755083369,0.07911579108117583,0.11548993132381367,-0.0006645703026253877,-0.08966687614956696,0.02315542178805176,0.008529680815627055,0.05145405376950596,0.03313430623491065,-0.07104136410971798,0.009215020815319028,0.01621994832636994,0.024711372894815644,0.041011230901217055,-0.04114364040247278,-0.08595729140708629,0.12445576066217383,-0.010519139874018065,-0.009127166521223131,-0.06274268068812047,-0.06508640593142194,0.1313669774456101,0.09140653981553336,-0.25585244136046287,-0.30675062566021405,0.21218027745263116,-0.0589905593707565,-0.09738198655852624,-0.007194991535708737,0.13586686676903104,-0.10956657897385369,-0.09175935896320624
113.8635482788086,1.0983047485351562,0.03939216401295903,0.043615276197235965,-0.12580223018704995,-0.22749646723972589,0.033756239191012366,0.26141216993222016,-0.11866888759051537,0.12839506865229228,-0.06008925607885206,0.29220110207951383,-0.14672452291852262,0.13032965596682553,0.1577800005515551,-0.09911982851971123,-0.015611475146546684,-0.17203727085058962,-0.009410361514032661,0.19245639118292462,0.08455503000209233,0.09729546421215725,-0.1243757028895275,-0.2975630079592924,0.12241346675454412,0.11092804832937708,0.07283143669560245,-0.055524621651765166,-0.2217179541676695,-0.12277061307194888,-0.04295787083515975,-0.2186122720299631,-0.027650867627011907,-0.06836702070881225,0.008182403310396644,-0.02963013517099775,0.0649074858019872,0.01067495206234052,0.0616783474789995,0.031518039065631775,0.19589508771517888,-0.031196626382580462,0.11018348394567906,0.40864192115568027,0.02632824731373995,-0.015425380456834524,-0.0004706467929047184,-0.16956385603492904,-0.028467869346544716,0.1489059920256076,-0.17487018472375665,-0.0012389399794537626,-0.1309971584553648,0.2938942907748846,0.2669653180790325,-0.014024577190527006,0.09652327312592528,0.22594487859016685,-0.031019526492724075,0.11085350983308331,0.06339540941035007,0.04069664991515399,-0.011634680739587538,-0.029162870685013373,-0.012394745089649432,0.2135324288131446,0.024064860150061953,0.050378762180370566,0.08360168433722794,0.048930493591516036,-0.03461229975532857,0.00043854286165733217,0.0008961404760554141,0.01552114623759919,-0.005643598574808923,-0.04762296092465026,0.0018841900998974176,0.013556368307221775,-0.034521231805451795,-0.09991025108596963,0.09491645782572669,0.10704707035492039,-0.07664836773059842,-0.07183059437001732,-0.08622877602426007,0.05163975560309274,-0.025760354206574604,-0.0092206783283309,0.04358329698097072,-0.014751884670505493,-0.014058231046669322,-0.0003246157569476993,0.1501614983673789,0.09654963103961364,-0.2269782824815715,-0.06169530025916196,-0.03163388224638301,-0.05396543867681268,-0.03522811549100105,0.09169449789936525,-0.0017508405907384617,-0.17226268299655312
114.96185302734375,1.0985946655273438,-0.03431425149368526,-0.11479384939452988,0.027737185092450368,0.07883115466366312,-0.29459320686247076,0.045746268106609145,0.0050138993582948665,-0.026801749988564005,-0.21894645596735834,-0.3022662400687818,-0.0436844400497899,-0.02983608316105394,0.003166120488102422,0.05685505573275829,0.010535361165397206,0.3185919462107855,-0.020891329168077913,0.0625134892877241,-0.027616759680438512,-0.06900406501416434,0.06349456085964188,0.21046762200232377,-0.0707397924274366,-0.18480349413939814,-0.17494314924191262,-0.14200521386930956,-0.17423749691884038,0.07014218651582406,-0.08656574191139306,0.26722597151688526,0.06388594400965031,-0.1445016331960461,-0.014739241785638374,0.08960516287334615,-0.2578230818535189,-0.05561344670094671,-0.06748009030487798,-0.01430707193613634,-0.14547105808763797,-0.28367323645045084,0.07989501827230441,0.4699470582774797,0.19033289600591013,-0.05419950051287653,-0.22429091335585827,0.00847259628672048,0.21955879592383404,0.017589351498711714,0.2705994837231005,0.10111144794967586,0.049752999420893056,0.14886267362256791,0.12619549519265924,-0.020921167141405336,0.08656565649902366,0.1295686480132055,0.1951957898535904,0.037967683458151755,-0.059052409081523885,-0.002338021553243878,-0.015262163146244625,0.1028640722789873,0.15055749590442735,-0.11075216979271985,0.12204220666593064,-0.009825060067382449,0.055412237366037606,-0.0298621961460463,-0.1193639760779466,0.01752645008461168,-0.023647543446467474,-0.11942750531405266,-0.08105939582354856,-0.012385987859567777,-0.043462917305516255,-0.09006511055579958,-0.09837748262869846,-0.08338442342291906,-0.021401803268002367,-0.10371104013963184,0.1155083960566191,-0.019118814838816847,-0.13672790544695296,-0.011235152336667043,0.004805105800117308,-0.027363090856505873,-0.015697551871528364,0.10439355971802632,0.05587086909377581,0.13301954144027847,0.010973658324091065,0.10498359444511032,-0.007453755945104997,-0.16792827552477954,0.07155777052096657,-0.06529670776910708,0.08965949354485171,-0.05461653011375745,0.022285812569604713,-0.021176072386259237
116.0604476928711,2.6277008056640625,-0.041194521686076124,0.20036341016108208,0.12713526676407835,-0.10808404907683695,-0.014682256129551919,-0.29548932592273186,0.012759498277962928,0.1701683900902481,-0.1475576784137917,0.2662338479553687,0.06275236583969493,-0.024279144439730994,0.14301781387489498,0.02019472896994234,-0.0736620164014737,0.04183094312830138,0.09847736056789619,0.17790079364855554,0.09913522807370938,0.03753967055889957,0.025507690159028717,0.15534612383301918,0.09331932711640142,0.07188134645273081,-0.02758794359173329,0.14100387175777515,0.04099287824114477,-0.0427229492677615,-0.10623181242459877,-0.057925174771545414,0.058758026329994335,-0.029499587617823633,-0.07016318648912892,-0.023199583676693357,-0.1949730211458559,-0.1265942986897626,0.2121675036846302,-0.16038444580513178,0.058540336905873125,0.10322555238401998,-0.049061330650928076,-0.14788056626069068,0.26065918661377635,-0.213453226458151,0.15681336179895783,-0.12605996647230558,0.3481451280058493,0.1447428720732889,0.08403189828863128,-0.4245876451204777,-0.11357722057334646,0.049500261987862185,0.06358589574592456,0.09277801966904108,0.10441787750135105,-0.0806631044781731,-0.2555748465296155,0.07828317196123136,-0.045849254128789464,-0.10448640809445028,0.06881461166399716,0.02049941706618163,0.2500363118592536,0.10219421631195225,-0.16140417766743032,-0.07570030009550092,-0.10660520871808893,-0.022492426408386224,0.0359700795222132,0.013568248208006273,0.026485575055013297,-0.03776817185488321,0.03672309393502257,0.08637109818210627,0.043842849487018526,0.07879214102834256,0.04332082392374116,0.04683723189846887,0.048875540182231246,0.03985824629310787,-0.040903928604903536,0.014086489597945825,-0.037040186191191635,0.06162208288198621,-0.06593133458419848,0.016694925017557732,0.008256677987473954,0.038029621520501385,-0.015678444075388445,0.057287119282879634,-0.1324117360736296,-0.2011691228338409,-0.0031886396883159867,0.006328617681945365,-0.0004963389136989965,-0.0065158564932546615,0.04240514174447992,-0.023059392564394016,0.04950548310642999,-0.007893353486676663
120.91525268554688,1.0784988403320312,0.004880451727357377,-0.10303354642711265,0.2748924792997839,0.32604156006657536,0.05335230699870202,-0.11088651147919153,-0.4007606421878609,0.16975822260787313,0.10866129304790947,-0.026305126156958684,-0.04471137074747539,-0.027835587273139294,-0.037302143087148375,0.025435946075301707,-0.024882566152871557,-0.07306592690928786,0.11564594073319286,-0.01959185850838978,-0.0025686609059116434,-0.011397795240184281,0.003438279687074522,0.018514615134914703,0.01035831876306836,0.039272829214686535,0.06572992946464176,-0.00957248030651383,-0.09736039558777713,0.07893365954681557,0.030471690152289527,-0.05305273989906115,-0.07615396550336131,0.11369367064253591,-0.16379163445602066,0.03817241543751658,-0.12154073607458575,-0.09206441206710061,-0.04441981425059269,0.024037043569986264,0.22288879431242684,0.2079679397848252,0.09716978161258735,0.012894292368537133,-0.2698653948821952,0.23906464124938748,0.236781657485046,0.18458724163403833,-0.25115333237080767,0.04212715915383,0.06706181935981084,-0.198755372190212,-0.3043435784922032,-0.03903814483860185,0.03482100065782465,-0.08852108134833969,0.059294887168076016,-0.26748041729241334,-0.06628150645642189,0.285225279784749,-0.07208795895837126,0.03371927033304969,-0.04072625729621683,-0.03194638097212216,-0.00018752769521965425,0.06401570316960171,0.1185179061278642,-0.010070789423712811,-0.016443989040142205,-0.041729870815844734,0.07173499283371007,-0.09339501939051843,-0.034354231739286534,-0.018151108169871623,-0.03546201681542546,-0.028909055268684265,0.014816161239875036,0.050353570683943416,0.015447142958608303,0.021610292965005554,0.0038159324482070186,0.04224733205334005,-0.02271616933220557,0.01220484183417858,-0.019830833398362342,-0.025492249229732183,0.03580847510743874,0.10000749175501294,0.03375430561109703,-0.08209515334343188,0.018033999417793135,-0.029116063533617967,-0.10888279841072646,-0.03285325661781363,0.08545403475293165,-0.0031084527795506404,0.10841116658676138,-0.07086205494980354,0.02046530096247864,0.02862850370671789,0.03597542132638061,0.07605167983527895
