start,duration,0,1,2,3,4,5,6,7,8,9,10,11,12,13,14,15,16,17,18,19,20,21,22,23,24,25,26,27,28,29,30,31,32,33,34,35,36,37,38,39,40,41,42,43,44,45,46,47,48,49,50,51,52,53,54,55,56,57,58,59,60,61,62,63,64,65,66,67,68,69,70,71,72,73,74,75,76,77,78,79,80,81,82,83,84,85,86,87,88,89,90,91,92,93,94,95,96,97,98,99
173.76980590820312,0.9388885498046875,-0.11270668621266317,-0.10111783525722286,0.023043250026077655,-0.25254255826241606,0.6035265967795028,-0.6633929118889229,0.38864956082370766,0.2389366473715071,0.29651513150508213,0.32515352144648113,-0.5196837356994741,0.5868488106084345,-0.011943309849509308,0.03325103339068958,0.10905027101276164,-0.194323270599761,0.14496375479479084,0.08321561895555565,0.09168092680233464,0.1122450332445601,-0.6014993233320602,0.10289264621685669,0.09331483894125586,0.02113972793414537,0.05078043173794313,-0.008358679189197771,0.024104099083781236,-0.002243199545205507,-0.024442656614929007,0.04979197435718907,0.02896906534765234,0.02795994442138644,-0.008596583323072726,-0.09388069885131796,0.03341183932634702,0.006543180324496198,0.025973086728753585,-0.07244611470776645,-0.04530502372095985,-0.007428997539341336,0.09670608485988955,-0.06199830059245762,0.002691028351929519,-0.009260066260483243,-0.49038164509656335,-0.11822362730361849,-0.06089333926083067,-0.022274413805341346,-0.0014501888864384195,0.0699724372439666,0.004196907198137618,-0.12417415525154796,0.10839986287857076,0.06775474036711351,-0.026792969736807656,-0.03935757822387334,0.07563630882241279,0.045091738598863805,0.016727427740197018,0.023846999419844694,-0.013974236983419017,-0.03690300576914847,0.0031026296835882546,-0.029637707552638573,-0.007560837026663374,0.04447307621950051,0.003523982333560043,-0.02621574149448595,-0.007551475281995682,-0.09732822129289588,0.0027079155746431473,0.08095119233154652,-0.006957176997749469,-0.009629435454069316,-0.05331332948167215,0.015379876034955504,-0.02169690031159923,-0.01864559056378725,0.0135234663252755,0.06078295136478455,-0.0031895737851379315,-0.00204369188734556,0.008844124166722214,0.07588043756031788,0.13491748955686433,0.053559981073246554,0.6730632830063944,-0.05089328384546282,-0.004496430640044322,0.042689456713927446,0.2616488181217205,-0.11710948610620599,0.3418271647089288,0.2715796691048272,0.1376665687370792,0.12240792378481477,0.264855198750566,-0.408988924395841,0.22316304686181376,0.3141615432917782
174.7086944580078,0.958709716796875,-0.2884456564398482,0.6732662254912418,-0.4857666688845647,0.31067257557215977,-0.22490827822939102,-0.21747575599253963,0.19807918499771154,-0.02616977360976128,0.22500566521077264,0.19992858421734555,0.3326765921719237,-0.11201164441147471,-0.00040465925631218006,0.04727211216319312,0.14411897914496422,-0.10101022760727839,0.10006369271093496,0.216406576517613,-0.048265265088913115,-0.07225293232729976,-0.1503141228083172,-0.04459782712337625,0.03883768286508208,0.020647314523460813,-0.014946006147143198,0.027298051721696533,-0.10076191280139093,0.05014060908192022,0.00010115607064474508,0.003814396078722397,0.06862434806659452,-0.04969705439924716,-0.08787071471066607,-0.01235465412548101,-0.008418850515412853,0.03137664868605489,-0.007669149228847968,-0.04822521761767042,0.01573610808136838,-0.0027386378655024244,0.0027385457585617627,0.0011423681406142888,-0.002184372570479736,-0.01066370848367826,-0.020419203844802118,-0.09414229957911717,-0.08583875108897249,0.008333252660253915,0.0020846239480817493,0.04241920627167504,-0.12301066257352561,0.04764897284137269,0.012571905732572282,0.048668496889526326,-0.009324193373037186,0.11480584183756648,0.023353455230367356,-0.04119016522306009,0.0018873393364065368,0.02892276651551801,0.034805018602059055,-0.009252257197968858,0.0921867377102709,-0.05497071897996308,0.05954835918520893,0.03522080729214997,0.06985443392122515,0.03144458915179604,0.022480027185291997,0.005296680873560951,0.04803564783418118,-0.0722391200278677,0.012325918385906201,0.008580024773930979,-0.02322816525324855,0.08902011566984418,-0.03762971419440499,-0.026610425976215015,0.11045138462614644,-0.030708881198119584,-0.040930451472418,-0.004785656875847999,-0.0015374693037215864,-0.02123865804368605,0.0031869626276243707,-0.2257419700917083,0.14449209562548052,-0.12260178275310799,-0.22167145787851852,-0.038965774174146844,8.889276263009116e-05,-0.9870796462563438,-0.2326221827559932,0.7331844045792583,-0.06737975531095558,-0.15996935758015074,0.15094776327011988,-0.17143939295651336,0.3764734659290768,0.36648909255961604
175.6674041748047,0.9886016845703125,0.3583753715312109,-0.6392102502684507,-0.48145249850584165,-0.25145742992802483,-0.26001472291563693,0.3275391842663815,0.3314198499145407,0.014567813829120185,0.019791496349747285,0.015290229302702824,-0.014670583768134491,-0.010080773445394854,-0.1283525742100212,-0.19965242203713943,0.18843811541606112,0.20501377725554562,-0.052790795224968705,0.05173458174588031,-0.06615250284441557,-0.002695686595894281,0.07244201268829512,0.08498363992790095,-0.045655459587394885,0.045272607800291055,0.010128696633007157,-0.03394683598970546,0.014930352843895938,0.0011703207226862135,-0.01272600036918024,0.026320169355363875,-0.010300868763008739,-0.0035400183941934017,-0.007043479152269029,0.005698207722923497,-0.006655753988194179,-0.05892856685113914,0.05047633806567143,-0.03155420582781666,-0.04850614990869678,0.032211931728410345,-0.06661435117919892,-0.037116139138494965,-0.00957817412960814,-0.0052297725544531775,0.0004914526667779333,0.006447492482622537,-0.00011862879418860872,0.0023008137075731135,0.047466503891560194,-0.01719869366504897,0.00630461616650102,-0.02771025492298265,0.018773762814713907,-0.014294131525127471,0.016166522134122466,-0.018923009417588187,-0.04301940108872787,-0.03392667791420635,-0.01804653078372635,0.02011047014369296,0.017636504597266917,-0.021654240092586406,0.041849856642707246,0.042657562234459614,0.0063915937853217825,0.037848653915331716,0.006969283870245025,0.05241173370679205,-0.0018843433806896223,-0.0793479479111914,-0.06685243114250086,-0.07701116951594916,0.008970323914812714,0.006113648899940705,0.020474069363690797,0.012125620646033494,-0.039677543155398134,-0.019456346066631627,0.005743429759531225,0.013716906095493682,-0.018207478242942856,-0.012796149716123766,-0.008657597301837313,0.016467567748698106,-0.004357105023381975,0.16883156669508506,0.19699817858077773,0.17789021363212731,-0.04081834286320678,0.029001111299020686,-0.16414687139894915,0.36313840026078315,0.1646783969565305,-0.5987562727526624,-0.4468240219510352,-0.07454987267172716,0.5559055429373284,0.4020076010788626,0.2083175777581581,-0.2181817843649388
176.656005859375,1.1783905029296875,-0.0713005587764683,-0.10436716107081953,0.2926862198154352,-0.10245781058631855,0.23967019055054162,-0.1658350700814002,-0.027021091231790504,-0.05142669262142293,0.12141750921846037,0.004271677754982814,-0.05306853808336332,0.04480980868052035,0.05567229695855211,0.10062507002996161,-0.026666645165668145,0.21925421606373777,-0.1422995453523766,0.005107825159790966,0.07577548905990113,0.09341783901629074,0.025024201403812726,-0.01335446961651639,-0.021999259863795667,-0.012643853039691469,0.0886497835628905,-0.08533139235700545,0.0010832321381277336,0.055274286568535294,-0.031916921041709484,-0.004476498723401073,-0.010123927378046533,0.02605225538534796,0.011260860813811854,-0.020886854743783222,0.04252513070269469,-0.059361098494207926,-0.01164029947382111,-0.006207049721379306,-0.03635973565172877,0.008162921915386033,-0.03910759588184639,0.03329189504264264,-0.05066547981273998,-0.02997646597908875,-0.005041998815727401,0.03857546581922593,0.03512365393399193,-0.041041599890086815,0.00518422660841392,0.03978276417962757,0.011408864617611036,-0.004714575161622471,-0.009659805390199989,0.034595178837872886,-0.035997676684641995,0.09591076458738253,0.00801746005509869,-0.0035054513213873062,0.1303265825974747,0.03634295418735087,0.0047037761874494655,-0.015912900735958795,0.011468770095365653,0.0039622865893893236,0.012470253055048177,0.06958258679586238,0.019127544136966632,-0.00670545007190621,0.02496355314576063,-0.024641666057059294,-0.024208972718807054,-0.023787313098557684,0.004684515747126245,-0.04718334578791469,-0.02024419501031799,0.006932666009008836,0.025345833974577764,-0.011942797056917056,0.018456077911206514,0.012096635077631467,0.0419771832114244,0.029933730221847938,0.014182883505273181,0.01018385121750798,-0.05831493196628777,0.032208258954266974,0.21544905423830094,0.7307136154709697,-0.05443299889378224,-0.8732712366623407,-0.02839831401687566,0.15453562912742955,0.17239741125964791,0.23526762535194826,-0.3304795537506383,-0.12592776195441946,-0.06011035634989127,-0.1311416780784048,0.15662429826390176,-0.13180995955669028
180.83099365234375,0.9492034912109375,0.024843895588080894,0.6935718628174121,-0.03165884023531508,0.08512830742763784,-0.31302334794953457,0.26917176764189477,-0.15790359948153532,0.49025666215972713,0.3810482734952532,-1.0653303749048033,-0.19784609340853873,0.3272667187121129,-0.040851489155045675,0.31656699594701143,0.1108917001242556,-0.05231393006541026,-0.09740167025527237,-0.04154886896835824,0.057402127206753306,-0.04619094325787587,-0.0035868074243062043,0.005919455336523844,-0.0020247782889087607,0.0016725980789267284,-0.06049318094960499,-0.026750622853812564,0.05573588469573919,0.007998564903289616,0.03260284442057938,-0.00218255173668568,-0.06973253407934389,-0.03081288194082549,0.002451443523111284,-0.01608171367729589,0.02248945379811458,0.0426227224499829,0.09124759683880082,-0.03888648611835101,-0.025816567710182398,0.1069669308262276,-0.06463912745643627,0.08177178175517685,0.009751665805384876,0.0016577126162138625,0.12321131333130848,-0.051295467422031615,0.03337657289238272,-0.05527497013609437,0.03438499435795242,-0.14498921845491228,-0.012243513943204144,-0.010136678038634689,-0.04370424398209649,0.04707588345105151,-0.00407051838300293,-0.04061769680970261,0.06582502922414542,0.009443456301891914,0.005808969041397864,-0.04558247360002962,0.01903161267808308,-0.009737139007114056,-0.02224781433835705,0.03639195654504403,-0.0350879329681015,-0.07044546102454463,0.05528002569132796,0.03736001194222956,0.08305784505576833,-0.0034673460589691586,-0.010216500999258785,0.028699672856559826,-0.06330938192386663,0.0034320990259972886,0.05018546861528175,-0.007197604968621173,-0.004186840847657376,-0.0056590087894376265,-0.003065932645000151,0.004227024282112441,0.006953728310981816,-0.0010061767084106285,-0.03184890667160221,-0.034519099449434265,0.008097348688352152,-0.03491014834550465,0.08433671263167827,-0.33374510074424757,0.32808552394617185,-0.48395329557106215,0.13887354276490554,-0.37435902601534465,-0.5809260692818452,-0.2007753228777889,-0.7814538615942663,0.1801132456057581,0.6127015294173612,0.44855817901758993,0.09002036134471023,0.7985409420773191
181.7801971435547,0.958709716796875,0.7960354364994551,0.1815283719676044,-0.7224079337728864,-0.7463335379191867,0.35690783670455256,-0.03791808213489314,0.045580397561127986,0.17900044634568069,-0.37951311937647597,-0.11358376741909691,0.15423058504548834,0.05708229324386245,0.11092703679732382,-0.023486129708155886,-0.11178781840156038,0.04547680741944632,0.015302594291188187,0.2652185556883917,0.5786440183005429,-0.023286936019566322,-0.10418550376057385,0.05536857708383471,-0.0052158538319636225,-0.007713393102528763,-0.001694300209144553,-0.0615491939993969,0.010701266454962704,-0.044569183465023914,-0.0015355361609143974,-0.010130126342643033,0.023859331862206797,0.002799208770622429,-0.00906864253338159,0.007057666344782811,0.07813071953898607,0.044362831440854934,0.021720022046182227,0.015439519147076924,0.039381437977057884,-0.04643948197307151,0.043177598147813606,0.08585787549085802,-0.04203810430479264,-0.0344997117769842,0.041141183311861076,0.010786370212826572,0.036351530780994526,0.05421855261989887,0.00022681723360277063,-0.0032728536956357556,0.022294473242389548,0.01421058949882906,0.07273104925209152,0.04623181156701288,0.01294914625883699,0.0002953210816268089,0.04890138914358167,0.09015841441886886,0.03406924596025978,-0.015564961528344638,0.0374487331725254,0.027086017431658324,0.01588082387951238,-0.04547307005289271,-0.06284507041253065,0.015904049480705167,-0.011292542833085364,0.03360204999352469,-0.014733937617223036,0.006468177048174819,-0.0010536448455766192,0.00017017741913695974,0.0007128504393643089,-0.004833750530482213,-0.005600401088870607,0.004627183008533338,0.05046984546878118,-0.014233240941073963,0.026435004316033905,-0.02555173598701692,-0.00011561759726601848,-0.00021947215455591767,-0.004521478215348851,-0.0078061936909845624,0.041604149154969364,0.12640505704734434,0.12074673127800699,-0.13131399385428613,-0.5951766760570881,0.2587469052012497,0.1712258921727976,-0.010778625153921756,0.23069001217534926,-0.25108721566080194,0.46324478031473226,0.3705330939042938,0.22390642749449527,0.12384959511967712,0.18484603923040377,-0.42784699028642953
182.73890686035156,0.9886932373046875,-0.1490813763919055,0.032573316719309374,0.20596367204972027,0.4190860146865581,-0.27663868767295585,-0.4719523135581603,0.5018022691488147,0.06345783098807327,0.06578826746210503,0.46349489673830546,-0.5834287643171172,0.977048974866346,0.5588776347824232,-0.09532529648795732,0.024543731838075455,-0.21613079024799017,-0.09764180610166007,0.050861319910523596,0.015371871050322061,-0.010523057531796,0.023926892557313388,-0.03008377323968485,-0.032934899143120096,0.10143351122491234,-0.06906521613570962,0.0414834402908886,-0.0716043290675695,-0.1003273324037129,0.01578579423794657,-0.00835248860549959,-0.04034255531084547,0.036101812526528804,0.045656442243253645,-0.014324683455232717,0.035016402080374945,-0.037225241904234624,0.04892641349868388,-0.04707093088780132,0.003760549507927126,-0.034751368964655464,0.017383749562306372,-0.008726354165863193,0.017186952846370444,-0.016694341364143453,0.016682636124840212,-0.11736582183111673,0.04039192597259828,0.054508788845909144,-0.0007718198489658659,-0.021106993662687597,-0.07702842710469303,-0.004641895533030351,0.02813280923478973,0.010320199519048405,-0.08123880192947049,-0.006079444381122156,0.019927437273392135,-0.01562297581275656,0.0024308413005002818,-0.03625802441611447,0.030565263226477936,0.0028254770848564477,-0.026219192430042094,0.010101178360954444,0.043834481706255965,0.04631507954556001,-0.046531768491658944,-0.1210699297529196,-0.08371630584700104,-0.0027992341131922033,0.017547553704134522,-0.004634534073830615,0.041876367638311165,0.010315077155594474,-0.04006109573548068,-0.02387265375829335,0.06160304065309502,-0.011121216245928461,-0.0037355380177358627,0.002164534273856682,-0.010501219024591066,0.008849581053204462,-0.05210620888705496,-0.01723179632741934,0.08204495610548676,0.01857380186717429,0.19705649558366453,-0.19615005148297593,-0.20596184985867166,0.07780756457635199,0.10747828193483153,0.173642870433342,-0.05719729851502732,-1.3073748079631002,-0.3449347067475119,0.2362769758139191,-0.13788206830944696,-0.2319094020256807,-0.19573767436479017,-0.05657033709090742
187.81289672851562,0.928802490234375,-0.24802264181996814,-0.2583580115350599,-0.055303682121363586,-0.8727329626166579,0.4198833566995817,-0.25625650037152975,-0.11301495264442121,0.13535306261817565,-0.1803792582387832,-0.007906563498894383,-0.2768661281792535,0.32229897116163886,0.092547807987648,-0.004740003612233192,-0.07362077062687049,0.02056515611158441,-0.00935035127998425,-0.04702922549189031,0.0019132283901117098,-0.04928157038011833,0.0948843136095693,0.060689553503403826,0.007655776602778233,0.06855399840974508,-0.03078447132619469,-0.040818912542779834,-0.0969849695710793,-0.011248545674645088,0.06923408525876383,-0.00042985527426352534,-0.01717731635124465,0.027849400601550008,0.0031366207788335737,-0.04353629819450183,-0.03027546725019637,0.05368506851536061,-0.055173664332991854,-0.04983183026561795,0.04421879169894538,0.192533404623463,0.005756979079205649,0.23880729773203074,-0.026780826234355307,-0.026249826490279446,-0.08467064418299196,0.020412727632670272,-0.024779537207120964,0.03630148533248112,-0.032151234678459636,-0.03455529479936843,0.010345267627853476,-0.006869106310467859,-0.02179336998579085,0.03566888952260461,0.0459301986459735,0.07238964616356694,-0.004150687535373397,-0.03262609083590541,0.04511358615981364,-0.04380067648807135,0.041880254308506476,-0.01795975381293347,0.03633378136409809,-0.018888617389678723,0.031517773806696646,0.09176547424402606,0.07124033069350591,-0.04432276082433216,0.01445235152829441,0.006156558647055889,-0.010795744237705733,-0.027269019923670222,-0.008346938318623506,0.025120581974758423,-0.035974183299471926,-0.0865675059138393,0.012670552509892713,-0.0012757560286015392,0.004621021580283769,-0.10949488826744176,0.03437934547879133,0.07629394992923967,0.040690804694844596,-0.002938882586421372,-0.03872854780878133,0.028225225904184303,0.17222095691135708,-0.034824087167347154,-0.17527605907639626,-0.1373310301810728,0.22892894167451044,0.09210137189089518,-0.35619255980305037,-0.06938726733239164,-0.5149675090589876,-0.29115859552735196,0.5298553383560684,0.35515325902747874,-0.15911567398546195,0.25597977966684116
188.74169921875,0.9290008544921875,0.38856521615893247,-0.6782113693646163,0.1987261958016738,-0.2525450969667826,-0.26111615569655955,-0.2178636868950248,-0.057494611601977635,-0.0266050783686144,-0.14037128973120494,-0.1538648660033955,-0.05501838899731977,0.07523607051548044,0.02858473102858912,0.02923037386659732,-0.035182449351116515,0.04713110774514228,-0.05283579857751017,-0.08952591945908991,-0.05382413388607034,0.05412985453668291,-0.0063768227297579146,0.02631801118353436,-6.344423874310554e-05,0.05130382825899124,0.006602715571731794,-0.009465524148693845,0.04687728301874635,-0.006700588351488911,0.0033503821605351536,-0.012072804780826743,-0.03786862503507209,0.038325780522958694,-0.05092169684370913,0.05453452058066602,-0.039553376570966525,-0.018490842708144474,-0.03075275447548538,0.018055950741913785,-0.0715033410828644,-0.007072802071706413,0.0028192429414491886,-0.0019863439848298308,0.0028923767399611764,-0.00774044683288892,-0.022037609602584662,-0.008188631839537846,-0.023892912882734922,-0.0033295847946424846,8.83687213320578e-05,0.011147530351860004,0.007657220138869933,-0.010528797603648285,-0.03572609640041366,0.07374984030251665,0.006012650780657633,-0.005173023250425152,0.010747760867637485,-0.04046334389238741,0.05235930601868979,-0.02542105725944548,0.006803844347833868,-0.008591875204014544,-0.01140016268869138,-0.020470802810323555,0.014173606253417582,0.021106876267161567,-0.04933162559194619,0.002875972522389872,-0.07971214117681631,0.013128602024293654,-0.09545768362712112,-0.04313957262471422,-0.02734123990007592,0.013704865156910979,0.03709203390080389,-0.026147444104825415,0.07708264456365366,-0.009678040374062488,-0.061784128811428904,-0.040036620774342016,0.005725902073218367,0.00774733873482728,0.09940864538265529,-0.08056881653855671,-0.12745789499772991,-0.0747167213387896,0.2783010296451926,0.03242443078912055,0.554461395191291,-0.055437560967990254,0.27409210176509685,-0.5703526675553271,-0.10238975655609467,0.6026454714801152,0.22317758944845145,-0.1916422086566356,0.4287171333219279,0.20895150442451343,0.06133669124961875,-0.24767476919971942
189.6707000732422,0.9384002685546875,0.02249711861553183,-0.3780955190731514,-0.0207094415929202,0.4478505061794592,-0.19255197901917356,0.3349940542589608,0.03895308865959398,0.027572396139933713,-0.062138575953730665,-0.18060863624438847,0.5294375653503554,-0.18157127862851996,0.04701907707660928,-0.013364092158515608,0.05728042656263217,0.07895644435180751,0.05043433637611053,-0.04245450236594036,-0.006568907621479025,0.016741218297726283,-0.31550677940017535,0.1173311512563274,-0.08298805362444467,0.1408479880280691,-0.016365628770886258,-0.15675086683257147,-0.3583473512475092,0.3732811049466108,-0.07431061422730946,0.03975883286132759,-0.003983949840044087,0.07000727161130312,0.09401857470994164,0.04265707729251871,-0.003325943232543485,0.05490277386723161,-0.047689445036831875,-0.013793129994600176,0.015940578670857374,-0.019030332325243333,0.02231710154679104,-0.005238430712469909,0.0026709751803309454,-0.012321075570245983,0.06895571589721582,0.0030095925772579118,-0.034988506839939544,-0.06194055902594935,0.09848792035205771,-0.02069463610013429,-0.013516549088805098,-0.03082996432402932,-0.04873175696820455,0.07241646821170826,0.08886386804602231,-0.02837310604489027,0.06385618725742295,-0.1043299871299971,-0.0014059571341382636,0.03182417323668912,0.06749539414021234,0.006374742590318704,0.00678013499564756,-0.06177313612440202,0.04282732970006323,-0.08332154539102866,-0.05887405810603417,-0.0790556234070857,0.036028900913899986,-0.019838326624619283,0.0056930714080478655,0.08403287863536023,0.01163161454491176,0.06832803623262561,0.00832996080611065,0.045677055708857855,0.004065135825509935,0.006331953410904242,-0.00783253447842432,-0.02165924581440667,-0.06379633310608007,-0.04513831212210362,-0.047642174279267466,-0.21987695600653123,0.034715707415947726,0.15414061518082567,0.3600146611489016,0.0061413263801696275,-0.2829880779785437,0.25027625502693485,-0.3279906224573874,-0.37597443182580453,0.5266036423537411,-0.24207648369319593,-0.002290746691630146,0.014930975799303078,-0.0019217700395430803,0.4083970522127722,-0.47549326772634104,0.18484527500922482
194.6741943359375,0.9192047119140625,-0.1459607043712759,-0.3771054010552545,0.19064874201314055,0.10270724305973156,-0.26461850351745864,-0.44572319938262717,0.43959567997046944,-0.040364255865138025,-0.10765560232290142,0.07464441336870822,0.07249208061230097,-0.19584613026732997,-0.4129110606809511,0.35873215828377464,-0.07967059105510384,0.12557014563204633,-0.032973754461211036,0.4945433199970366,0.23371653307421256,-0.15572754666514096,-0.3178269923104833,-0.34267062205632426,0.13368085976090843,-0.2014843414138891,-0.2232569578579286,-0.0349771739823259,-0.20562002679138763,-0.3768808493694508,-0.19648623450905353,0.31030376354170663,-0.007285872340506903,-0.16388377970200738,0.06198745735652904,-0.14453430111559482,-0.12242079980902784,0.019518879115523968,0.02000332040362277,0.034338984139324395,-0.055507091053970656,0.03445535375075763,-0.05448543283668078,-0.043829736127463735,0.007780959244486618,-0.04068294061655345,-0.051173257159094,0.08209195223041943,-0.01871864833461609,0.007384430474633541,-0.06840847629192076,-0.008094032583594632,-0.011200183571952252,0.04841320111207101,-0.013628864293629379,0.031111680661045985,-0.020386935398808953,0.09315793203048675,-0.09146857216060822,0.03208410881971314,-0.06478762007988761,0.06778211040357274,0.019730646930834553,-0.010852967089215815,-0.03628992986953347,0.007059576842061548,-0.042410610702418784,0.00468775542165592,0.0031305766995838647,0.012688363985335953,0.03834725784769685,-0.022985206563282557,-0.005522503074148177,0.04174784517501042,0.01778192857498405,-0.07218634937018382,0.008975775748440308,0.005105617165231993,0.05206486861627922,0.014277765102919178,-0.04740041821834964,-4.7148617821176505e-05,0.003292156015378547,-0.03620811185419256,-0.08036052303823676,0.03838191425862463,-0.014929605038473376,-0.10476811194436952,-0.027565993261158578,-0.2263177654577285,0.4302778938947338,-0.3020893869598746,0.8410019893531456,-0.24777915433848188,-0.30722067840828793,0.6782795620875639,-0.22950363715532876,0.743690128098686,-0.4957454823201045,0.4032641966848378,0.10580453833710034,1.0715713355948586
195.59339904785156,0.9490966796875,0.6287827292333652,-0.3972977117384321,0.4530929492483325,-0.5908541332294402,0.30446602774708437,-0.4924490135645084,-0.0060804779758376944,0.10108470631487274,-0.01094138881665893,-0.044703914504223355,0.2709127515946309,0.0805688607695172,0.11254996351262334,0.08843947721606528,0.008253484352058887,0.011536745625884937,-0.014534354611816312,0.01124572342176923,0.024355256251480648,0.0016645336828183116,-0.057765344098750074,0.006790318800909053,-0.034785601000525156,0.008488757677501492,0.03617733812423542,0.025368204744920856,-0.025836396658453442,-0.11192293319768186,-0.06226693337541909,-0.09621046778264376,-0.07916280989533463,0.02259899884681204,0.018312455247774573,-0.14472766742720272,0.008885486843931895,-0.033263471044246706,0.052490294920716905,-0.023409284460154382,0.01576039793736016,-0.015935816114795665,-0.0007056262667659943,-0.013468293431227279,0.00699688119121544,-0.004186144989935985,0.00961484456953595,0.003214139765803512,-0.003683543240343568,0.0013853071023375429,-0.08298715389485947,-0.010681463373016918,-0.016299863162486043,0.006479193338649679,0.08717781084205706,0.008943676552690601,0.034117142638951485,0.08304526229302912,0.027840180481326908,0.07001828168310266,-0.04864996830518635,0.0011924447948932703,0.022789965400251633,-0.003438189427347521,0.06965876510244495,-0.060327379596738014,0.00907171470442157,-0.012252910854262476,0.04377007886691581,-0.016014622845817506,0.03473197988350113,-0.029403614519398436,-0.10340808686556219,-0.07759527779202001,0.05858656462165239,0.09013447234966507,-0.0051209315566464126,0.000710987857634337,-0.011224380893965697,-0.02044735522141257,-0.004418423246881837,-0.002568719535415841,-0.006194293082274317,0.023436785271849583,0.0496416256339848,-0.11494028462271622,-0.03368835339581681,-0.0021626063653901366,0.4739699602963556,-0.2274290981615959,0.36996340636011227,-0.07020585866794507,0.0720920959232726,0.09856341997851434,0.33341831676802347,-0.34857433914845004,-0.5041011700195815,0.5572046056599247,-1.0533918742799933,-0.49433601388741466,-0.38786536001835814,0.36215636748202307
196.54249572753906,2.21710205078125,0.500887397069649,-0.3287822205504239,0.3143968366473531,0.34915914860929664,-0.2658506309317336,0.26749736982701733,0.018468057022771274,-0.08853998987175325,0.047469339492500845,-0.05397967485113718,-0.09864887466118617,0.21012054167301394,-0.04520715161351014,0.10725800760573007,0.07013835617706003,0.1282512520080712,0.1253382698635103,-0.019254723779745485,-0.03371204112390148,0.013524814035270062,-0.03279284862067226,-0.03628315353178842,0.04420720218581067,-0.006968971508745303,-0.03237446052861218,-0.07495076802334288,0.08081656717411434,-0.1308058784206843,0.4907278025344903,0.20819037672605065,-0.08034224216458989,0.11176414735533567,-0.023981886502846855,0.010151904645052709,-0.04201365965960731,0.023454646150584162,0.05539981708175655,-0.0017112808383914213,-0.030808323176874937,0.0038617249093043956,0.050142302103121164,0.002553917630472823,0.008265055935122292,0.0018212097929102826,-0.010527303108160193,0.05722166567886698,-0.018219536146268363,-0.01829575474840866,0.025606603040726896,0.07371594077993197,-0.014867413529737465,-0.003153223252010918,0.010912705444170914,0.01887084316010791,-0.016978829804162758,0.018923051906479436,0.014587025597047963,0.039326831169312515,0.03412119211950031,0.08417663935450241,-0.019562236248048676,0.007446982254493348,-0.026751894776595536,-0.03714745855850218,-0.08282854698785531,0.05715470331679723,-0.005335916415685808,0.09156680880345512,0.027183027789259177,-0.012203232451134756,-0.037196279222029754,-0.00039486274138980507,-0.0452390046622816,0.013084552539106953,-0.12876359636255696,-0.006951015717034372,0.016661326108468367,-0.02709174480986227,-0.0780337530745697,-0.018310416201154076,0.029789611508576466,0.03564299132677599,0.08341073702769572,0.030801007050554777,-0.042142830614326075,0.008339797285522269,0.10746851209273396,0.11005308364286351,-0.6319448774101003,0.013365836032144418,0.5807439276571389,-0.713604452854586,0.06732607128667335,-0.24357849113393013,0.048827566490490915,0.25353689184455763,-0.3766805059490442,0.6049918345871432,0.5051231059279541,-0.760924608113628
200.6273956298828,0.9188995361328125,1.0785777500590492,0.22429014296970182,0.3782208617219571,-0.4138255503329398,0.0547201841010619,-0.2622460756202559,0.05421679718376743,0.05384669024412423,-0.056723675682402656,0.05064942947513233,-0.6087358963752098,-0.4707507022743401,0.28402913764572113,-0.015727835746287687,0.013324006353227336,-0.023067689970452936,-0.08750521756307376,-0.010870355124645601,-0.042356022840238886,0.11969514501006095,0.0007841913889023223,-0.13078147973826398,-0.001919638716462553,-0.001881686473719493,0.05344475338553121,0.05175248453547297,-0.08286929411290539,0.05598952568769583,-0.14542709241413915,0.10849908147692272,-0.012817535415830573,0.05663792109210482,0.01928647754084381,0.00280817040887066,-0.03244525812986336,0.13905894235837626,-0.06667926545767795,0.009831215837298833,-0.08081330985528215,-0.030815293260047866,0.022648198266733605,0.03788018073219222,-0.10140353214957956,-0.03485952398307277,-0.08250283845809572,0.003081841672743368,0.022513519939006927,-0.00512738150177231,0.008052948344118783,0.03763130389980547,-0.07751703561164712,0.026338537627750208,0.046366082191407615,0.09039528337310651,-0.06230509747891254,-0.00970407342903758,0.010898542111661596,-0.07074030941222653,0.0035944333929061457,0.08453548674962662,-0.011891904336040041,0.03294302365634885,-0.01917315700230556,0.02488127123106065,0.025621580732008313,-0.15413590848448472,0.050655920347470657,0.04934809902032909,-0.021756794345141287,0.018828024932816812,-0.010728432086309062,-0.012046198573568765,0.007371763870157147,0.0890146049590109,0.0022292728315223354,-0.005154334138881676,-0.007064430089253396,-0.010827709755105077,-0.0018674094091838168,0.0035667050380378917,-0.055536362151613256,0.013229026734293721,-0.0035820087747074998,-0.05162007987271273,0.05726424630798413,-0.0683331156396501,0.060067845254026586,0.008783432933765932,-0.46221524693800986,-0.47440093578701914,-0.28845881209381175,0.8449026077912078,-0.4049863213010346,0.07908210411263818,0.3221171801247481,-0.632775361329051,0.45046461364380397,-0.2505479368021675,0.10784699526632627,-1.045453277442769
201.54629516601562,0.9289093017578125,-0.7166136175822763,-0.1950618688814253,-0.39021604435629914,0.017929351071968958,-0.035306967367998834,-0.19460338240357064,-0.13867820987771134,0.02753233794191717,0.15059112467571378,-0.1569622595445379,-0.036047398831000166,0.06897781480484917,0.06201120040103768,-0.040772712289403226,0.11948081050682313,0.20240568253933156,-0.25314036927118516,-0.32725999631575114,-0.1934780461233179,-0.08873957967723396,-0.11444941700205646,0.05332966104231565,-0.35551312544325175,0.03319049314220082,0.2638358331869614,0.09582425920197425,0.019015052753659556,0.0938653799501547,0.04201522468007665,-0.33945064625701643,0.3150236849928606,0.06227645651911609,-0.03017654744040306,-0.018026474732331585,-0.10079659557541094,0.022771498030812153,0.05550499717591081,0.0459196842471587,-0.015168804322487107,-0.0009327953190408382,-0.0359226632425114,-0.0961899822334218,0.015333768222456794,0.0029586877029079395,0.014592020812292354,-0.014799497852391374,-0.00962679466132202,0.020509527426960696,0.02558816145846321,0.005962456000783892,-0.0187031973399084,-0.04328739736646441,0.010165649605559502,0.016476246296265623,0.035251479282336094,-0.07430349477949293,-0.008717993495677376,-0.032538398113921105,-0.03974211731303547,0.02174857104008702,-0.022208085202772156,-0.03501141360980732,-0.05255619596915537,-0.04329408483426844,0.021629570331940656,0.035100789778807574,0.05958400642136155,0.021107096809781054,0.09801695522732454,-0.05463509611567418,-0.008427833198107196,0.0014341021024488589,-0.01319193942453947,-0.010777083910809768,-0.014639645217616638,0.022785092001459027,0.0026525644454290973,0.007206099885765002,-0.0082793256788107,-0.0001176075019683892,0.06292407674705525,0.07578044496583178,0.043179301678859035,0.06986462511113635,0.038379174136314184,-0.2837592767081138,-0.033573761148713244,-0.5318151926190484,-0.36004239687723943,0.4755456216941111,-0.47303807113565277,0.5898528828535156,0.9156126181197507,-0.559752059979648,0.5819745390373047,-0.0016291450288595348,0.14821843272373877,-0.11867940479207534,0.13606472132024708,-0.8111995726421907
202.47520446777344,2.9463958740234375,-0.4159696153066227,0.19895856225835665,-0.1445391497046231,-0.31736787877992306,-0.3339907633072175,-0.06680959218307475,0.14173012700533533,0.07030268368576431,-0.053250804218149025,0.03810998922139848,0.0264256600856156,-0.05359377954795602,-0.03236516035596621,-0.046309876497052094,0.040693154134113826,-0.0029232987736441396,-0.03323511747771183,0.1810735225686206,0.10478093278257752,-0.059474831391454167,0.16389686431166728,-0.14332940157005497,-0.5860027996613513,0.026645119907260983,-0.16769070816216758,-0.09438382470599942,0.2202163468342192,-0.40694859443491854,0.0314674738604013,0.20422709727281035,0.10578288533122848,0.07755475396926911,0.05703571299877928,0.052520330795930416,-0.016306635021791298,0.03936880531431426,0.09511355627601832,-0.01177350573825838,0.04051381879372262,0.004004639988377121,0.05866246994873459,-0.11105721997443609,-0.017235456277631792,-0.028322424738922707,0.043462737590039796,-0.007378174566798888,-0.01895424903423843,0.008915738599404562,-0.010028739435072143,0.06389369354639941,0.0032164359522126266,-0.007052709209554093,-0.0958312100267986,0.003139796362972177,-0.010644388642394241,0.05766928204512984,-0.07046969916533095,-0.04528226607151591,0.005506969374746339,-0.06661612582778378,0.005112007212326488,-0.0007030196955730031,-0.045577586893643544,0.0664381569718831,-0.03043635317711678,0.04290413992963508,-0.023534627843988187,-0.056915120960709845,-0.00519133322993879,-0.03834033615166061,0.010265533351332632,0.024705257258375177,-0.09286122277064274,-0.02036016158645501,0.02859802764410621,-0.00044236442971432407,0.018337364881041984,-0.04806295089615472,0.06889879136777641,-0.0023302661573448777,0.005136271978576025,-0.046633759480065415,-0.0005781943855164094,0.06719268327662468,0.15879588147573742,-0.43220907019580596,0.19961168874633212,-0.06764114619905372,-0.2263306116474382,0.36034663008380763,-0.012133875158772525,-0.2652619984218339,-0.6808201697353029,0.19825805387692036,0.2582779351762657,0.2873877847871787,-0.017601264479405354,-0.05286860886955064,0.4139645152942651,-0.005852442823643278
207.24960327148438,0.9286956787109375,-0.17657998167059663,0.03457126766022981,-0.6084422860652919,0.4517498788193876,0.2085051929456825,0.06479657843761319,0.10195946184832605,0.034804372251214105,0.0912703402076476,-0.028998392289690755,-0.08715912735787165,-0.2602068005542055,-0.24664328914430766,0.06277288196450494,0.06419069904630138,-0.1276943656415077,0.060683306634078955,0.4558753339879469,0.042964779248370374,-0.04631486352148835,-0.03131567575360163,0.09739611156916783,0.009551281288327875,-0.005127661004547075,0.018089397142390235,-0.06978540843857267,0.19436261026388899,0.08546148925688538,0.4106700709531382,0.10315754104740843,-0.0211122915322292,0.01955860678286428,0.004245483723318636,0.08469712744325489,0.004809797009255556,0.0021405037940397465,0.0004181122280933324,0.022169187297797436,-0.016303005465170703,-0.029578080379407106,-0.031206270376029206,0.05155364542271357,0.10402970319098444,0.011167390099495338,0.04720450040271756,-0.012063451229467585,-0.02376515846638618,-0.01646882043109238,0.04584510780270806,-0.008610030178242911,0.0062044287538904515,-0.03977951030551862,0.013619947692728757,-0.026419604302151584,0.15267098753882022,-0.10676666345760327,0.03453995453084136,-0.07151781838432963,0.013774183254083699,-0.1044539722544447,0.002965756021958174,0.03298159601572219,0.04161463918423154,-0.010485418510620313,-0.026026622654975233,-0.15322812846107325,0.05876992837722014,0.00039479783269534986,-0.05017900761056422,0.0026245675666983713,-0.004233276309972474,0.01221987152574102,-0.0031673582357685274,-0.006882084663887596,0.02254134131839513,-0.009675675913991884,-0.049564623637173774,-0.05490495720234148,0.012576370739200475,0.0025816152820218093,0.009127878908717794,-0.09898282683611755,0.011902236948422573,-0.04060457610377696,-0.15173370412015663,0.012444201957422824,0.07805385772016701,-0.061825198461813044,0.12147571322718921,0.11202075704923473,-0.10216904338699893,0.07540122786726403,0.8222790020369529,-0.03813446719802043,-1.0685121578212806,-0.14920057644459994,0.4897248358544804,-0.5013323041829446,0.28717051352134776,0.23107764007955597
208.1782989501953,0.9485015869140625,0.24496120088089415,0.3754453336104437,-0.2794629472142235,-0.44381936556673013,0.11599862511881265,-0.12589038192164548,-0.1206493287730569,0.2342016820952316,0.07962026613349399,-0.30693145095873986,0.3103802131324619,0.2612288118413435,-0.052793751381816675,-0.11700339582129553,-0.014662356682651227,-0.06648790653245268,0.06945046840721983,-0.1942934773621291,0.2705300203741034,-0.032995980799076,-0.03703603141021076,-0.07756337026704177,-0.023403226075142308,0.010308373813260423,0.05345089667378568,-0.013682153293361053,0.0016183673474323105,0.07546119355379254,-0.04937299355943289,0.003518652340807185,0.09088276527989922,0.12109470886588507,0.01642594966730386,0.023727154485505674,0.04500469021646612,-0.01905793751741508,-0.003099283929499394,0.00958312795070985,0.026385390106178953,0.10469527947847057,0.12454629417391824,0.06680923409187167,-0.0029292594604218053,-0.01677863239961995,-0.004589296685276186,-0.009129713002244381,0.06267780123542208,0.004146986763082769,-0.12332293813156167,0.0011109689475594757,-0.02753909825876477,0.03582019422754865,-0.012148025497568087,0.0027831240730059885,0.047918197537951235,0.02996051272872237,0.024221446802035043,0.06177727845353932,-0.11257044343769142,0.01184629429375802,-0.018099526083777764,0.07048374538132171,0.017051408221194435,-0.014037445363482493,0.02580354876884226,0.05840971786856595,-0.01648525885724095,-0.03128864770214449,0.033998838349070255,-0.0185640262495512,-0.034074935327544055,-0.05342318128886625,-0.007771035249518984,0.0028707196345990255,-0.009848234794262119,-0.02033068390708938,-0.0004387376564466463,-0.0007593849802808911,0.10992022639999964,0.09452313737182673,0.017961929809266534,0.010374459433739294,0.04215726081279514,0.10842381009794956,-0.05043913601568443,0.1807318908625508,-0.0819201123295307,0.16198727668259766,0.035749805718265,-0.02716771218471381,-0.017836552582489826,-0.2345573772133604,0.03283086784967159,-0.508421799494123,-0.6221564350718688,-0.20834804765313752,0.5217880980613293,-0.15022338205679192,-0.2053570125227986,-0.6779036873779138
209.12680053710938,1.92779541015625,-0.5487897016053578,0.22733367430465967,0.3304603760729701,-0.5304374765504437,-0.5969504617070598,0.3463380298106554,0.10589826475702266,-0.1879227062117768,0.2812389709084092,0.1949861619967016,-0.22749129439414015,-0.7013282991721594,0.5871579353805567,-0.05013256591014686,-0.014337469208115619,-0.06932096664573631,0.006658446189788557,-0.04501813064075392,-0.08278325035099696,-0.18371212210969062,-0.037445873232527065,-0.17600329696206188,-0.04241718472893161,0.005309233794887307,-0.05778954986790235,-0.0267439791306283,-0.02788864889834581,0.04468034111720329,-0.0115153443803339,0.007006314690587896,-0.05735114838839619,0.0016653554164666213,0.09945506648673699,-0.03749667343864654,-0.0025038133654609685,-0.01471424626349389,0.008201945641161713,0.0679371179687046,-0.013368088863847577,0.030223744618478838,-0.021183444480002183,0.01674662260677537,-0.05129750933311265,0.004365512104346837,-0.01195266260681028,-0.03669983056518947,0.004417348732804972,-0.025378045206872424,0.007523801917950798,-0.0010185634454024887,0.010036052433547951,0.01980613997597071,0.035602874229620586,0.072696742687021,-0.09275830002524314,0.0002721274435141017,0.020192118816736375,0.043464237786794445,0.03083253052404053,-0.05388937852338947,0.0005304319746841356,-0.03405513812651225,-0.018697594283917488,-0.12700845535495534,0.043721360627918156,-0.03691362636077418,-0.005693926738262776,-0.006248955165172565,-0.00845843345784719,-0.0001274567330595552,-0.026572136106631956,-0.027605834087339694,0.00026291823281936937,-0.01488386513276422,-0.044533997972427755,0.007943948911091854,-0.008713913705962112,0.07809012158448568,-0.10033067630257358,0.05960308725925372,-0.007486936509104461,-0.017385673653765345,0.12368461663931261,-0.0760317083677532,-0.0973574123873666,0.14689105847504033,-0.039053271414131535,0.22745209436271238,-0.28295568834041185,0.23672523551467597,-0.5618616673626615,-0.4743768119988929,0.2515716655680906,-0.5434316018802376,-0.33682176669312897,-0.2506165596435103,0.07671878478879307,-0.14538062370686577,0.1641560384073799,0.30583215762399785
213.00270080566406,0.9188995361328125,-0.08688118649320603,0.46617095565704464,0.41493402209822317,0.10884123308289924,0.08977350492799363,0.5275944184177827,0.07177542079094233,0.047822911153304844,-0.03503267391232369,0.025801900013802573,0.6232310774002513,-0.04923094904826045,-0.05754687475257979,0.07862301171389877,-0.10582716846170435,0.08405364716717904,0.05844383295527168,0.065673603812488,-0.04009495615354509,0.03924008125279563,-0.008566312714762188,-0.023105477739823105,-0.10672967227798287,0.09370039982733579,-0.059603470820391545,-0.022629843850386924,-0.026596579637739707,-0.015147241751954189,0.015027343369582473,0.028623723074664945,0.019696049634137763,-0.0003647420098420867,0.025235772086588823,0.06130639597207281,0.06635625694647213,-0.03125604895037977,0.005164806785432082,0.06995991233518448,-0.14444169199780632,0.06605696169731076,-0.019088944688713014,0.06513531921612813,-0.03810628022893818,-0.06213282356639806,-0.06445628097755163,0.014815543308253064,-0.061848181761455165,-0.020990553346153105,-0.03415276658656834,-0.046332815473819955,0.0017913203971931264,-0.005419035972366835,0.07009346328961376,0.0531916767477721,-0.006064555434189273,0.003317177467783235,0.02108796931693198,-0.0029552108150601173,-0.06202552648734834,-0.013362658183996621,0.008920995481818827,0.02317182011761519,-0.03895977392818722,-0.01185065989293424,-0.0010873583683144155,-0.04184367486632595,0.03054947291425583,-0.024426651838908974,0.020249655250594856,-0.04211029232990399,0.02472809771580422,0.03230171395273302,-0.01810728311681048,-0.0033614529789232827,-0.07916237525142208,-0.027012421775053447,-0.0030529106142795984,-0.009331613486834672,0.09594803522734008,-0.05685138994042361,-0.0425673339283016,-0.004254380125012088,-0.055954716842644456,0.023651709862403635,0.020981939783424223,-0.061431736397729565,-0.0173353048741954,0.0008537106300972944,0.08567678615842034,0.04582200645898021,0.2781341210537927,-0.07182948466649941,-0.8813447766254554,0.6821674909624046,0.7117955277514844,0.18962406522045713,0.9700967140058251,0.5153977047835847,0.019944224692623684,0.048649098547733305
213.92160034179688,0.8988037109375,-0.05796950101194346,0.2707604076190474,-0.27034244949821457,-0.6724093546107488,0.02030381469439459,-0.020024793331063655,0.10364007050715517,-0.03350796312513668,-0.003534771475247077,0.09817614372554104,-0.0264926150761966,-0.2328211090688497,0.12996485153212053,-0.16201972592108674,0.03424756424775766,0.012015791420069914,0.033049278213200535,-0.0798172931300701,0.013649712028496288,0.009581350919603188,0.07230771086054948,-0.0012821333591284854,-0.054564806661592094,0.002359287005018649,0.006614282426304236,-0.023555291248172974,0.009699394869398838,-0.02472625036109245,0.047687890371119354,0.021587748561116796,-0.034520952077532294,-0.04290037950214011,-0.13841915584663067,-0.01098990152742865,-0.0392760498664604,0.05259811098279137,0.004497888291780865,-0.051455584611115185,0.030683312329341454,0.012944156476579283,-0.014790591349902966,-0.027704862320579386,0.009933334117946087,-0.017123674336456125,0.019355621353150262,-0.009789194558034724,0.06876470747532358,0.04314339443906538,-0.0378798305289045,0.04112605220118298,-0.022565729444778766,-0.01728535674201341,0.029361562210289877,-0.03339245364973306,0.03248168119190473,0.005080105894299289,0.06334221749893192,0.01633280636985257,-0.012050581805134972,-0.05287238287187941,0.06931521971861396,0.07850989396841995,-0.011715248294826279,0.046161184358651554,0.023063737291988972,-0.04280466179043704,-0.023070408093801283,-0.07013180490461458,-0.042113615136503725,-0.005430363249145427,-0.024727207426969176,0.011066800419188819,-0.015239677953627191,0.05533520639645938,-0.06243700466908544,-0.0009809744435615108,-0.002970090125642933,0.0038785319383143613,-0.006579305727809412,-0.011952312365963823,0.07994728335725632,7.477346433256045e-05,-0.0010325098108344873,0.07846411210780992,-0.040298550599055544,0.08759739024103526,-0.08850071986804572,0.25907168803985153,0.1637442130860337,-0.1395392251121868,-0.3880000209145982,0.18294255863186437,0.8575858520166442,-0.10196332091716026,-0.48647714260911945,0.5733007541944615,0.24022786659902448,0.7990237180326881,-0.49618551088716334,0.090343863737532
214.82040405273438,0.878997802734375,-0.03397951500500429,-0.7561934177619791,0.18117247278899828,0.05038220492568314,0.38694152279843136,-0.013056895738224467,-0.15745968224016849,0.020942281425969878,0.13991976789874752,0.07332794123112135,0.06793455937945368,0.05087398508667961,0.17866866507130064,0.029805331866094627,-0.0061427386480423125,0.012987181997439888,-0.04398420993953559,-0.005406791276136842,0.09137504016416012,0.007830861971967041,0.025392131320631017,-0.09155284200493904,0.016027351958923023,-0.05537248668348472,0.022482356436596386,0.014099936463923783,-0.037978120012038825,0.03333127107568792,0.04731440778641227,-0.05921308558654584,-0.07374857610158042,0.028983670059512794,0.022669640737198685,0.05958494563022024,-0.013369764614382204,0.015053918700838291,-0.035194803310850134,0.015134166973795934,-0.060537345392519565,0.012441937048283856,-0.0029115108679010062,0.06738998290408596,0.0926039127158988,-0.046358610767726106,-0.05884243105962644,-0.022420429227483125,0.009739547073234244,-0.00026447811325307213,0.06272902929517146,-0.057057573051806185,-0.022699457449936986,0.010085765952095751,0.07159681894525549,0.005246456223575492,-0.1136962589461571,-0.03404861659454194,-0.032060395026744404,-0.031152636184004486,-0.00473884138824039,-0.036994932804530097,0.11388639547514483,0.04161913831069183,-0.04675485266930244,0.01572274160717778,-0.192454710273401,0.05229460866101195,-0.0036795814273359595,0.07074715290311588,-0.02309234767289481,-0.04782657066239812,0.021195069137463638,-0.03096766314035709,0.008493322556933832,0.002182619597652164,0.010358799877068975,0.00856842898705182,-0.006006908060471281,-0.014926939447926859,-0.010840938785606926,-0.005811165962896365,0.002659024097994299,-0.01928429173135319,0.04233806884714519,-0.08389854487979116,-0.02508651746271262,0.06995654382579705,0.1961542424521562,-0.05536057774145839,-0.09537640750691881,0.305244804256865,0.015703528717464055,0.2831864157816236,-0.4667904073151699,-0.25183703615388014,0.1769724601177125,-0.2814973789660008,0.26043095479684936,1.1526741719520959,0.1267907298234719,-0.19170905498046595
219.49490356445312,0.928802490234375,-0.17608696809150376,0.2357507546995614,0.4779766233954078,-0.5456221602292055,-0.00011727152399848562,-0.07177675033049885,0.06047323532337638,0.03161704963740344,-0.1565291998346351,0.49622411312816544,-0.5047528919764465,0.05487556907567931,-0.1293399721340763,-0.011516589223614928,0.35534670716026495,0.00649788309059127,0.19781165973439868,-0.033984834673227333,0.0474885390051468,0.010432091394043842,-0.13394270974408853,-0.205395167122384,0.3384861000364584,-0.48513241638319554,-0.20010815320162145,0.11994570550212211,-0.014089819789412435,0.06275891321048455,-0.009989460798753364,0.03787487976685862,-0.14790138806460884,0.15238764505593827,0.021533611194882923,0.04199520957157215,-0.08921480166903252,-0.0077297275786977065,0.010262230357780172,0.058188482973624917,0.03036418013174544,0.023355183165093874,0.06977466902607656,0.06209277325628476,-0.055942661768660785,0.005475031557557552,-0.020573725698488143,-0.0038548730828806216,0.045626202213190054,-0.02412350287176845,-0.11361427344504582,0.0690500026020121,-0.0705971966772211,0.06973752236036293,-0.09584520195405478,0.011770627641645381,0.02175369966207517,-0.009377436638324925,0.012546350761875264,-0.012010141202794526,-0.004940567065896016,0.05422354644558717,-0.0002042329211481217,0.0007285372398958337,-0.015976805929782407,0.01015869417896432,-0.056286683119545426,0.009706062187260289,-0.003973015203446586,-0.010890612514241914,-0.010481720597227552,0.016517374635145816,-0.010575370301080161,-0.022334726149200845,0.08643572918062578,0.04292414622037535,-0.012912628198661026,0.00216280038692085,-0.03151504209906905,-0.033890560580746354,0.017118486509495406,0.02716910501668105,0.001297624698739952,0.023097599529329185,-0.023668258841159695,0.05574807113047293,-0.0002227873787413676,0.014303672729158372,-0.3798307522210047,0.1258264262099761,-0.13104203212988197,0.2842396772111802,-0.7428014290701024,0.45125543218426495,-0.524424676475908,-0.40021182062900673,-0.32874268799850803,-0.31792759194706544,-0.6666520216248226,-0.4056009281443004,0.2542023406243128,-0.08131317704492874
220.4237060546875,0.9387969970703125,-0.38027082894333714,0.31425678974913046,0.0450584409831336,0.009049439408822024,-0.11276172915409753,0.4614512068127879,0.07812057811947362,0.08487739602909794,0.08191085780445095,0.1739141588669012,-0.5916537182708501,0.10513476070391332,0.5825413731242381,-0.0854945303013917,0.043001667248455895,0.016900376727034275,1.1480063240977436,0.03799787761544328,-0.05500206564793308,-0.1556648128661205,0.11713665716528322,0.05513671627314343,0.40047791475673467,-0.020284194692204154,-0.07311739840752574,-0.33237761948083727,0.04681451421667971,-0.5102404511242808,0.21283723639068408,-0.032861685702261535,-0.24575258355212273,0.04163777423837846,0.10205889970221488,-0.14850656313053726,0.010676634308661307,0.0421406268882616,0.0558785130068648,0.05774123139431364,0.08837574090728822,-0.06488056229214231,-0.0013332527610205249,-0.047706990993804925,0.011122468023815274,-0.05820011183444073,-0.041363484178495856,0.027868837892601743,-0.012567509785409853,-0.052022867165251396,-0.00018816400010892935,-0.003604566377592236,-0.0063380568581868635,0.006859885396637518,-0.02877204583477187,-0.07757313780325253,0.02609431828673485,-0.03906804913065588,-0.02292679723549857,-0.010105691343606709,0.0088563813371303,0.04656878079295315,-0.017368781168638964,0.013523469981010616,-0.07994535930844426,-0.04897355075803997,0.0020312093597510844,0.05445082368599585,-0.11131429268423551,0.0040852603257685504,-0.006716670893641039,0.04043540189791257,0.004114325318021915,0.011729703522397366,0.0309330863272744,0.07069781177219682,0.03821829148392287,0.1216146948912381,0.017323397087567985,-0.01884306652309884,-0.03188275695973316,-0.05684433962586106,0.06120710670064795,0.031726854435723,0.04858110329975972,-0.0024755017998953823,0.005246232722173174,0.059270254823683914,-0.03627039316477891,0.12225084107040962,0.20243629640280192,-0.5627465660419898,0.18325988597477333,-0.03831933718807286,0.37094371571261286,-0.3662211316898569,-0.34645730091206595,0.155709863486876,0.03263015128487588,-0.4357515609527325,-0.043806401257149664,-0.057223553342230116
221.3625030517578,1.9971923828125,0.22539519890982895,0.15636035952908053,0.0176186103530142,-0.45116931346984573,0.05345044335554003,0.1839447952851673,0.08958900724147577,0.062236383017775024,-0.16927548843811469,-0.09356614017875359,0.032848017584118684,-0.019493647280904677,0.02851017863529349,0.19977179112424445,0.11073952413029116,-0.030285027523100107,-0.1282934691840218,0.17230010404723511,-0.0373924109058592,0.1761036549950593,-0.020460889035492792,0.13272133624545,-0.17303694712336817,0.04869870159531611,0.14638706006998634,-0.029314970067419416,0.05079767764447216,0.11445807933811335,0.04157291184802725,-0.617637864769987,0.07501408456795837,0.00023931171957106948,0.074015769808493,0.010034360268770907,0.04358711394154035,0.01836016178675394,0.018113422583013374,0.026270481046581987,0.02978564745956417,0.006477028375900889,0.03208125256262245,0.038529632047558236,0.03766945779902193,0.05887852843367936,-0.00663459466551131,-0.0027831690486619107,0.05681185189400675,0.0013044225038113528,0.0067077461626106095,0.006827905429764946,0.0699271482636729,-0.029304981524404822,0.017595454707115727,0.04216364665393404,-0.03817969108128112,0.03498133982148914,0.010717938588972742,0.02168155289371594,-0.0825388536128147,-0.013869828448661858,0.0055802214666059785,-0.03518969580322296,-0.015443850055758898,-0.021495164370325722,0.013746443303178082,0.015895486023622746,0.03200304657500819,-0.026915558014704886,0.011843477547612205,0.02805541112561066,-0.033036334432718355,-0.0054961058092014535,0.001770427880619637,-0.006488543313329324,-0.0018792375139561226,-0.005799847871785243,-0.014151542687539351,-0.1037197132320903,0.011985004211755163,0.011405119240542605,0.005858648505936633,-0.005779480952400371,0.12257384273736499,0.03199000278431489,-0.16971679546978216,0.0018893853720804224,0.06201019209983803,0.2838960435469527,-0.18383626896891758,-0.6036063298312521,-0.8828102676305339,0.6235080508432636,0.199599114863716,0.5492898855060858,-0.2931778066723639,-0.07401000430067337,0.005679117689294869,0.11013625969705212,0.22520376420610203,0.051130895105082064
225.20750427246094,0.9088897705078125,-0.5916327308185905,0.46984211707844964,-0.1886807883520648,-0.5781465707030099,-0.2882527505097807,0.10091963998932607,0.20383052032078228,0.30193659996662464,0.07809441500994904,0.021813959958815902,-0.2694295561428616,0.26877632717245387,-0.11112324178210888,0.09548029095727523,-0.1713953777620451,0.10292246927359,-0.14849605637622582,0.0753111802319196,0.677434541227319,-0.3616815007915601,0.0986364012291681,0.008933015710350078,0.04396253116570951,0.17844417875485707,-0.12452266437843079,0.13614033461175645,0.06637450420423927,-0.011088307961775346,0.015849967197501123,0.017853204260955376,0.0307608405396581,0.0060802392902531135,0.05143015163724185,-0.038925250125607894,9.225837507035933e-05,0.01624811002876429,0.13215326303462138,0.018193335201450313,0.042290429063794245,0.1661070552588028,-0.04485248289132191,-0.017617555744125216,-0.009752194060014655,0.021151044544961875,-0.019216367005975163,0.033940183751484,-0.012406542249891577,0.0013513142136998817,-0.06240691501180085,-0.05348292132010503,0.04604616227365489,-0.016899634031211596,0.002911338944670181,-0.1150945158513042,-0.02601503274984726,0.006636317676717801,-0.006064063372390363,0.008300738704901575,-0.030577651085008338,0.00800559355355229,-0.0049551060472665534,0.006452412101624976,-0.03213357067388051,-0.04132015915063999,-0.01222182914452452,0.018296678069377778,-0.04847285970318092,-0.025860244178480388,0.01018642641937259,0.05023101642903077,0.0005406051125886706,-0.08326421318062828,0.004668549800893812,-0.10474593131651648,0.013121862948134666,0.03706330223153504,-0.0013787218507259706,-0.020111846142117973,-0.03903841217576133,0.003832819413755711,-0.11393574776004647,-0.009332327907741276,0.03198023310360867,-0.016929502923964362,-0.03143119950618152,-0.11588288605762334,0.2186937763486921,-0.08344403232105614,0.43105260937751694,-0.08450009256043563,0.3085653090815531,-0.9022995337405187,0.2918891719949695,0.028382531336017952,-0.04685494299166047,-0.1849759702653831,-1.0303612850900266,-0.10456646014783832,-0.4459066723073359,0.2780579344285636
226.11639404296875,0.9193115234375,0.4301339460804555,0.07324295472574253,-0.005457704637910673,-1.078224329968339,-0.04921946301222713,-0.993605231863887,-0.3275754932559636,-0.08738631233092295,0.10540987112463486,-0.13499429617065928,0.4727244361913676,0.2028305621664862,0.07962833960971376,-0.16207704119572094,0.020068757665670484,0.02895497184349538,-0.12267920943126398,-0.4795011451312315,0.274708977923646,-0.010976647456106563,0.05472777038672323,0.14708991960574283,0.014929371096180727,-0.07419659753947162,0.06420659478554108,-0.17307537085923874,0.20837351096676046,-0.0957358655648245,-0.2265697818348765,-0.17956415033499729,-0.6067605398770236,-0.3381289135632559,-0.14578287866013212,-0.20019236383647238,0.02915061288347538,-0.023320880679616414,0.029701222025695473,0.06408979537344132,0.03391800323925817,0.04252489701626237,-0.04646560304415081,-0.0462494813846213,-0.012803177640915868,0.010660343294542797,-0.06255596755548286,-0.01365260502993653,-0.04840135140666599,-0.07209637806441457,0.00938332886915223,-0.003294988845458535,0.11685430866950092,0.06464753590208296,-0.050826116380736995,0.008923117887528751,-0.0003683468409898579,0.041495214651859375,0.00465225258627888,-0.06366445909012804,0.0009528637849321314,-0.004168787476524904,-0.012123761985545184,0.008331376294708715,-0.024633622482587686,-0.008552049391952601,-0.040463801846574984,-0.001349886128171091,-0.012482451556032273,0.029771493551237135,0.0002957958749122587,0.026593080478564728,-0.03301362316437379,0.050376739729317985,-0.00026725008813205733,0.0005490975524659915,-0.0013593875079351235,0.003774702361233773,-0.04312079506682865,0.008115319298057866,0.012064534840028805,-0.0018074106739521148,-0.005621624737264605,-0.004197159763094302,0.002503630276411876,-0.06967347464786036,0.09125701556201181,-0.07940837346440764,0.22847088965718101,0.1073951062555926,0.13986864972719787,0.43754367957256746,-0.7535311219348064,-0.581364317288935,-0.4156665955082902,0.2041115828176377,0.5993847428518098,0.08457969349313638,0.025132292280194722,-0.11664992123291452,0.34592085855527943,0.3240925402077167
227.03570556640625,0.929290771484375,0.5540831752177011,-0.1820199817546055,0.3483088558985193,0.1425685798647408,-0.6546982804907766,-0.2239871020291722,-0.009316128664581383,0.014777832143171254,-0.23880857006035539,-0.04084305586083216,0.041329571301756664,0.002119527642998942,0.2357410420942828,-0.2897972536871965,0.11161670224396802,-0.06949704672553492,-0.06541778572552301,-0.05491068039818542,-0.09825526255275589,-0.04794141052566889,-0.01918206026672102,-0.008347540000780808,-0.0060462438503570805,-0.008393990389446366,0.010044085980580182,-0.08196439341995938,0.021553525529406255,-0.011064442285955989,0.0356256613566441,-0.013932441752541613,0.035795691589663774,0.002038998667131093,-0.0372182758235762,-0.04212578081715882,-0.01776642842395379,-0.00196813788367204,-0.016004144152007974,0.013832827626280152,-0.06296691801015046,-0.0014244141887154319,-0.02736717556481465,0.021502597649851136,0.004356529511018062,-0.016856024409479475,0.05534458153389277,-0.0661916508193445,-0.005852467658090348,-0.009553420076358024,-0.002821385539046345,-0.0026761571721265753,-0.025622368301057658,-0.00942072751053763,0.04725951149630285,-0.004780966265761897,-0.025678209309335634,-0.022907284789040874,-0.03801312231615208,-0.0076057652108984936,0.02622290894786428,0.0015708104426548864,-0.02834901516410522,-0.002871746783161269,0.0010107025143261507,-0.08424389823709769,-0.04421576911446201,0.007603290900016278,0.031390107782862255,0.022197283037137975,-0.018250390749342933,0.0026951360708611623,-0.029701789010259994,0.0031938705510464196,-0.0021181746453761536,0.04979162271063732,-0.015372356137040319,0.038515372835658444,-0.03824774172896662,-0.09821504734808871,0.012974271517240931,-0.0018283118605540677,-0.0011425632194698749,-0.010353647042298514,-0.008247431283928422,0.0126228694922889,0.01049309211653814,0.13155623551338144,-0.28091533526197215,0.28825845440344383,-0.02640313201387426,-1.3563264934251946,0.38317852228082677,1.740544171865925,0.028085138181340445,-0.04908729179194632,-0.7322745354507125,0.1295653183202654,0.8373707387569578,-0.30880259353757106,-0.15222309388249616,-0.24239872181038763
231.7001953125,0.908905029296875,-0.32653481570957177,0.12572367100888016,-0.25512271513602314,-0.4202627777118489,-0.7076084359643074,0.005935583237052905,-0.06997529134101618,0.18327941640001166,-0.19048585983351565,0.15722831206536192,-0.10841726863965014,0.04063299324429691,0.22450961202120354,0.24498012097639424,0.025582759946693123,0.05309982044192501,0.011914026201362934,-0.03458519090481793,-0.012229904989755916,0.006347792099790004,0.024644161779472196,0.0018196769041545317,-0.0001498574866028261,-0.07353840525621302,0.007550016086196824,0.00027054364145958775,0.00558711599348466,0.0048867228854406666,0.07076624502176682,0.0026672493244838664,-0.04179481734425385,0.056814674101160784,-0.018200090000094992,-0.015134548829037222,-0.005234401191045289,-0.006161423114401723,-0.020390234275630727,0.04982602355300503,-0.031789673101368564,-0.012466194232848324,0.054354159556473984,0.047432979354004076,-0.022684015114853323,0.0255653242004041,0.044096921153080684,-0.03082176727268776,0.019653403396031624,0.03901634878302291,-0.020156318607041507,0.12423319324766859,0.09507991997362249,-0.032463713656180504,-0.06085363059083274,0.011372780847192614,-0.011603036134795887,0.022010560891367464,0.06913395689987165,-0.014037666574654831,0.012271606269326746,0.005687524706231063,-0.006367918903553662,0.005005941940201729,0.008663162536538493,0.00287725942967239,-0.013340962538793116,0.0007855224499277691,0.04603886486388377,-0.03801976062353609,-0.13125153089236083,-0.09093969010504935,0.11307899082711781,-0.003689022917234698,-0.08881705440313556,-0.03270263200284685,-0.007144451589476187,0.002691132439482258,-0.057975602140954596,0.015032301190903536,0.010825152677718533,-0.023746548629201683,0.02121679098800677,0.0025982144300436554,-0.028007761961737487,0.029217607089061598,0.11949294028550787,-0.05817138233717046,0.05894271867263958,-0.279139573651241,0.22098459255996095,-0.30233807558341735,-0.16714423953654073,0.2904440457495357,1.2836567480565748,0.18336023021844586,0.4309405344239918,-0.21796030410370376,-0.11837137990584432,0.3267761895424414,-0.3528307051823882,-0.03938961333127268
232.60910034179688,0.90899658203125,0.13828927339940003,0.3372225433575127,0.30201644826412394,0.10144083748320362,-0.748007307164269,-0.2078875591525333,0.034819851869899124,0.07476406247651471,0.128727945871349,-0.2875674920505154,0.11138659177335704,-0.28341631471181156,0.04630173285455441,-0.23327459952446325,0.08314256011477247,-0.004176962647154519,-0.05217731885938626,-0.007795658528704768,-0.1629172011325553,0.28878275334814196,-0.2607657039926283,0.07020537108862161,-0.02057999711017182,0.020816767648547396,-0.01686114997606553,-0.010010368526435495,-0.05080303684608756,0.009725840947773375,0.08058263903850997,0.016562734797794826,-0.005825402637085797,-0.0438789431711299,-0.01955398336057458,0.045376527082735596,-0.04672653026111891,0.012124592214166507,-0.014067198329853203,0.020194268422027754,-0.02186634819808576,-0.08197774826746994,-0.032556500761111606,-0.07214028238687349,0.003105264825102358,0.06329324882482833,-0.05264706044549401,-0.008020136364169983,-0.008896633792234002,0.0252781442621762,-0.009819789865459222,0.06382027068058162,0.007496212144691027,0.006280290261875418,0.009310619371859116,-0.12095323627071505,0.008108290328764839,0.02630791328066218,0.004548328413176186,-0.0427735144372001,0.05955631189815234,0.03234897140002251,-0.01841101589092179,-0.025118262229743026,-0.0725421096858855,0.011298810093696819,0.009095535643360908,-0.024321314202034386,0.0016646441037610094,0.07687490813634282,0.035633137598273405,0.009611155368126817,0.051521149403948086,-0.005082941823484179,0.0032452143913877436,0.030306249889134784,-0.04081969125989186,-0.011452479013718389,-0.016154940269732056,0.002664598622547702,-0.008608869272786835,0.0017996652091370328,-0.00038903890511645506,0.0025698342075847133,0.012454161749594255,-0.02250658393473216,0.059343451508382404,-0.01726857490672995,-0.1740088027932205,-0.29794792274503973,0.3360960331341927,0.2864054104800008,-0.10797680243275459,-0.19342815775855593,0.07786975870482168,-0.932915612789639,0.5007021229893732,-0.24416328174210655,0.3322810383451587,-0.5687915579346751,0.4681459421786102,-0.2121682796520547
233.51809692382812,2.04730224609375,-0.31450644374428965,0.3587088141290186,-0.00768579067742188,-0.013171756604902045,-0.047203647303007856,0.07398069107355322,-0.4359825881802778,0.05714364500518393,-0.01922135016894294,0.11168761319257636,-0.050664602996616945,-0.5050008480399911,-0.028848458019960083,-0.11050150562365185,0.03643186453239241,0.1873701209844471,-0.33554565077230436,-0.3693668059534844,0.098522474671454,-0.24011090778102157,0.5697872686996578,-0.052732527312336804,0.122594311968547,0.02058149715978945,0.11163136259805768,-0.5995132508302947,0.1069471538772324,0.01709059186658198,0.026384735953746852,0.12897746597805587,-0.28536388151060565,-0.008156692520107915,-0.2620218603249943,-0.011745444502254017,-0.013862846656401494,-0.1139888151122448,0.03114605827205965,0.022075369902249713,-0.05581417018976382,-0.006762656721153289,-0.0488419005204495,0.0038907602822003734,0.004347086328905592,-0.02298496701378124,0.05299842585831847,-0.04674422593459746,0.07149656500608992,0.010009399556134,-0.018816927465477216,0.027601268909353886,0.002500434788222348,0.016435653057309162,0.033890408653707044,0.016669997532367163,0.08507757865990391,-0.013519839744097564,-0.047912251668736514,0.039237838070292484,-0.032564059489916225,-0.07400355225676536,-0.037536341948149206,-0.008484351661135245,0.05918991214971656,0.021914080529869377,0.044969227626553504,0.01842766907189054,0.002857003536824669,0.03129890137190578,0.08696395794458012,-0.03938800496312785,-0.06692466158487674,0.046494496742329056,0.007030606610816139,0.07120476154206126,0.037100164392117954,-0.012740834081711989,-0.0036630661633685977,0.0021861327009772592,-0.0037880782134020003,-0.11052756915243844,0.018640115241148003,0.03243684381403387,0.009369710647403802,0.14723055893870465,0.08150352190502849,-0.0639253696692303,0.15229834495575142,-0.4489660834567012,-1.6704201964786949,0.66092035048575,-0.7442504138308016,-1.27015171794947,0.20299879200541543,0.21834776866720798,0.05676417900065428,0.3110927697519724,-0.5538822054597555,-0.2354509957444618,0.6889566973895678,-0.0053192049546088235
237.39300537109375,0.899200439453125,-0.1688359989381023,1.0977677610396852,-0.07524536075726046,0.16281080952667915,-1.0097384665686053,0.2227574064229754,-0.3034561290079871,0.21608638069204122,-0.01033581961203682,-0.1192316044470571,-0.22652890637982392,0.2986796063699416,0.0432783848176391,0.04489618288551159,0.06526598157035196,0.054708891417138805,-0.1415534393759183,-0.037016838291686324,0.02284932213761183,-0.03214499916420067,0.019433957977488564,0.10690625782021969,-0.0004546444823793584,0.014586109849851486,-0.07028897758798669,0.06141884171507024,0.013749041004777906,0.07368679654742637,-0.005047846650833105,0.11187858796635067,0.005080955190268632,0.007662032563679195,0.05744317846598681,0.0012516067126529683,0.011269190267326474,-0.03099615231162666,-0.07209695189075592,0.005297979508797588,0.029107716117450416,0.05153141302286327,0.011377541242081832,-0.0668515015392382,-0.05824135192712296,0.020176392597555437,0.004225710148222549,0.06515415880777353,-0.031066884133689958,0.10979556214924382,0.0216067311643421,0.004535675417942751,-0.010131111014162586,-0.017399443073170068,0.01398060800600115,-0.014212580737735566,0.030323325794388817,-0.0226347983852657,-0.006797386489754524,-0.03314436265318971,-0.03221215086092078,0.05086024537940905,-0.015550735975930093,-0.008938844232534854,0.009649760040142136,0.038887761702178725,-0.005192343880686215,-0.02703758744066686,-0.013071512371202144,-0.006446738781827025,0.04431285107034163,-0.00016832302358060186,-0.012109906930826779,0.06191335557366532,0.0005180518042169388,0.059275705824613355,-0.0012283827295333624,-0.004471222887883403,8.87247852579511e-05,0.00035395600283761404,8.796171787037787e-05,-0.0009247018707970975,0.0019390796111800556,-0.002323973509091014,-0.013431039517011908,-0.027805034229938963,0.046292309306176845,-0.12320054025241145,-0.13341246765808315,-0.051823673072645016,-0.21237823206818446,-0.31049591958213973,0.6670246986620169,-0.10755430874045398,-0.20168576919107403,0.12552951554362457,0.8576306550498249,-0.008621763832865004,-1.3653228491004883,-0.045837581094975044,0.4853052404917678,0.384708167322515
238.29220581054688,0.9188995361328125,0.38684149000903995,-0.5562984780534531,-0.06504288620627327,0.0944119102471901,-0.015866546932061076,-0.43041015108826064,-0.0027726214016871135,0.1321450294956987,0.03405193380575229,-0.01667909477737664,-0.06208535706761692,0.1400200049978881,-0.011999552926350179,0.06962405363504445,0.03803435481032763,-0.00843433088574412,0.13225085094896702,-0.050259702782785964,-0.01195294220652518,0.009066067542150193,0.05015953276141342,0.059877038191187566,-0.09797907749663379,0.09220798433447497,0.18845144712684447,0.0844399300426732,0.05336161389849879,-0.19576792174943491,0.46927805045875853,-0.3829120464350185,-0.049037490943081685,0.07410564027223268,-0.09079720038074088,-0.10022534400902003,0.031691474889699395,-0.028455944414104532,0.023774034922254952,-0.0214500080446397,0.03811542889406028,0.01212097618253125,-0.056463651985325825,0.03886068412274446,0.03546320106700088,0.0026508747954018183,0.066895257927003,-0.0003574718765597222,-0.04623452846904794,0.012418537827932659,0.04808457423918183,-0.031718402582255584,-0.040350947848768276,-0.02695295860976449,0.023507978384532714,-0.03810040596115708,-0.0018462140901805359,0.0711006728093612,-0.035786862717244725,0.002916479621444927,-0.015121198553697188,-0.07828955079752471,0.031661788685222805,-0.0018279402727948701,-0.03005745209018511,-0.08840523703954191,0.002950039496086472,-0.0014024599633843653,-0.0028368371284851314,-0.040799335694602167,0.030203357631728336,0.015582642486810577,-0.02466835926768097,0.03452772665128868,-0.03982889760882865,0.10344180924492248,-0.016883915118269734,0.004187648778729563,-0.008126897730934701,0.0014653008027821408,0.006469074392881041,-0.0022445056007444676,0.001102238245287382,0.003424234924686913,0.012088719883545514,-0.015015015185498203,0.0198240815138882,0.00903879418285074,-0.1208898029961176,0.25208019031526935,-0.05474082018843471,0.19692278696554752,0.37525441974967927,-0.45683282609655784,0.521062301093017,0.2518272464175986,0.24333861123229988,0.16836580276213578,0.041888018212855024,0.42627769669121296,-0.5316832607417865,-0.21149458384041217
239.2111053466797,2.9662933349609375,-0.11758887081220953,0.24298744761247326,-0.07406125435120144,0.28146319451824175,-0.16675928478914692,-0.17665149608766798,-0.039488310819591886,0.14551937646428678,-0.0039890228294198055,-0.5251200632465407,0.16567888804412664,-0.13739424163670202,0.057664330410074224,-0.18625768186782696,0.10022696971647801,-0.07494091258098083,0.022357136659338098,0.021482195279925398,-0.035464992185846596,0.12409856140459741,-0.09501919510249296,-0.2586520958833777,0.14539949515108214,-0.16224614795797762,-0.6817314997745665,0.012041868926384203,0.11094250849993295,-0.10010206923024473,-0.13733275196163786,-0.3483113927160123,0.034644796552253755,0.2924306566802715,0.10948899592585791,-0.22390954836035287,0.0034612664319912806,-0.048383298990876254,-0.05589651709225879,-0.010588005091835443,0.0013288293009242336,-0.0023690441667142035,0.04401851498195586,0.027970164169196524,0.012072969920882932,-0.011199055813125023,-0.0511478754325955,0.054401615018900826,0.06653640026348485,-0.005112280878222238,0.047983464481165514,0.03595574740706177,-0.017982980337815105,-0.008147554370834238,0.01891905064968437,-0.0038943979472448936,0.04934791917219547,-0.06010381455474939,-0.006700219108771431,0.006645021763079443,-0.06375879321423072,0.03576673900338017,0.04883718286806375,0.07807980902603796,-0.04503338233067049,0.06062394736003088,-0.02994142625219111,0.05651613063503676,-0.03497636049825956,0.009920256963557042,-0.05935065090345542,0.010659222142561238,0.005167176577242776,0.05521794934010122,0.007571721609699653,0.00723708455282145,0.006720103676817167,0.03601906902469088,0.08948238594148773,0.0430583932843092,-0.08868726346521523,-0.02981691995131175,-0.041388036884351984,-0.03765709647119176,0.001693532314177501,0.020294552623815916,-0.13459117637527665,-0.4295813017273436,0.27201232005263376,0.0225377991876416,-0.04099500070793115,0.3384015897674697,-0.052336198393256435,-0.42923540531994836,0.08538883850336676,-0.2984611036575603,-0.5285130921052573,0.3369163387778093,0.21161271184632863,-0.31961958588975475,-0.29891649288014166,-0.012697173967735745
244.0054931640625,0.8988037109375,0.2380597637150313,-0.4396932355917754,-0.1226583376266237,0.2859374690453369,0.1858295886804129,-0.3424552634421107,0.12230934386084838,-0.06187894202080885,-0.3513054613641976,0.6604190492258644,-0.27578544626926266,0.08640920911368657,0.04260971470046794,0.026627820269760988,-0.0323114670755555,0.14738694838349292,-0.09995918470798176,0.21794185358233628,-0.011359885480085947,-0.11021783164270706,0.013084177179802613,-0.11653989186153214,0.2576473063149206,0.047933025459816904,-0.27362805206403046,0.21664874233024042,0.047743184231237204,-0.21424689989633655,7.47646894218917e-05,-0.1503384737979341,0.419575057316069,-0.18025544802427845,0.05848512498231535,-0.07002058835639118,-0.01261483091742735,-0.02488905394557252,0.08761501819002607,-0.018864169124318028,-0.09411969828312094,-0.0677278000762524,-0.048799010055683344,0.015590044955384115,0.04701614833401855,-0.02516890231604469,0.0356906788707377,-0.024057272074877508,0.01699084335453695,-0.003986216318208274,-0.07593352278296744,0.01669647941455541,-0.011538561880849132,-0.03369655133286277,0.04865933358857207,-0.014991696608930918,0.06754495167642408,0.03132876755592074,0.03521204980019123,0.0008146174280954486,0.022276794735600874,-0.05394258925219665,0.03392478535502209,-0.041026294032856236,-0.02801559301002369,0.012859513001488592,0.06267912322269191,0.004134820493491456,0.0024525249907977396,0.127901077787903,0.023374644368231313,0.011183986386774784,0.011109982721996165,-0.03787390577335241,0.038868597404958724,-0.013707765758765362,0.10326098848460036,-0.00757535233292886,0.0012868540523194045,-0.006184477305407585,-0.007255591334519036,0.04477463908334909,0.0230644965324782,-0.0058783660856502416,0.010432517059255205,0.063487920936404,0.1127831480681977,-0.13514187908913725,-0.32248960418356853,0.11053233356624666,0.616220296806159,-0.30292372131283996,-0.21023774856064548,-0.9540367310401806,-0.14280144501819106,-0.6770524482760879,0.128679630466298,0.9584084027966621,-0.17303130804167388,0.009374236299321574,-0.12105312716916922,0.42296750966108576
244.904296875,0.908905029296875,0.3075596607260461,0.02581337843194575,0.07556523921726485,-0.4860823880994854,-0.1270295782237655,-0.2059920920377071,0.11806225711834639,0.13566673271393442,0.005574083181632675,-0.6198206139501251,0.18503605738031997,0.09270399160384447,-0.14697558527776275,-0.28228956950288736,0.029496127671141403,-0.16718051671121129,0.1549383115635715,0.11504686729491884,-0.07063818563204885,-0.19523335615338908,0.1023507122553092,-0.015607540358272255,0.1746405178621529,0.04779239878521415,-0.18905272644744542,-0.08529301932226317,-0.053587513394522904,-0.06452487530920413,0.10792249355197128,0.0922519722237512,-0.40071991220058306,-0.02472795263449033,0.016066038325423516,-0.07396371835767471,0.07719384475942187,-0.06965783736896783,-0.03947976292007188,-0.1243983471539586,-0.039036741294013425,-0.022806586892234443,0.001827405504169525,0.10018171589991354,-0.07851785956353649,-0.02748404188234676,0.013217755660896719,-0.024652875657865544,0.006811487309714162,-0.001465338876271901,-0.03616675189975316,0.01822450279651925,-0.039188521268292587,-0.030099388972091662,0.02483480986916979,-0.020870801425950828,-0.06324516937176303,0.015782049126027223,-0.012961792361681261,0.0029706738496323134,-0.0275602466314262,-0.06497488745219264,0.11318930752174974,-0.050584102917061516,0.08139536197875501,0.05217923670569381,-0.15240907956598942,-0.014886347828264656,-0.018535758711312172,-0.027057468058718084,0.010861882758223019,0.0011702849347657316,-0.05266732774742581,0.02448719540050627,-0.007207725214823784,0.005899748006712626,0.011949051065441162,0.04594658436303571,0.029941998914128232,0.016108835938447332,0.004517523753402329,0.03569293847036257,-0.09330844487121485,0.03646075971439016,-0.06347381395982064,-0.02828794673373744,0.011612127029839828,0.046754188814248726,0.21428029460050702,-0.16950331952650982,0.3754639074979967,0.4524735155268436,-0.11689335142860419,0.4079584546414991,0.09037883810648012,-0.3312087253171213,1.875601278999528,-0.20266270422284463,0.05182444931342799,0.06949508706866364,0.5787009038180253,0.6270149413588175
245.81320190429688,1.9678955078125,0.8183649410915615,0.050875573642980794,-0.010436438267929449,-0.7253353719530993,0.20104550326224996,0.041570365774468376,0.13098275299893775,0.06401537806946692,0.0761138883978412,0.06243481802718309,0.062198481560441984,0.10874517392166386,0.00505376278493129,0.3115729694694318,0.04512930534618481,0.09981161946697273,0.21118106654414737,-0.0641426837754229,-0.24940594448197706,0.18158438033926064,0.32244982122595744,0.11076886941203343,0.18916858084813193,0.3070661912324585,-0.004211213996291328,0.006048688650948902,-0.014434336806143774,-0.031838234692926896,0.10544005312020606,0.01161935728988981,0.07035229805604089,-0.08826957467986157,-0.08504552503743441,-0.05125990436633325,-0.008741981552308563,0.02145403180224882,-0.014598429506281657,0.049413393028537936,-0.011183308771722267,-0.005207677159462729,-0.06732197924526506,0.0042566966561613405,-0.024760779218586562,0.025399849710278834,-0.004355300501568613,0.0829915550786967,-0.0643459580269736,0.002097576296977116,0.00497730141502549,-0.018524091568593613,-0.005116203327119032,-0.004223692944028276,-0.09456336237279897,-0.003393327737134847,0.0038233319346514623,-0.05367791120035533,-0.03871744950182855,0.015565671895660799,0.038052162600936475,-0.06007019457436963,0.030429450322541872,-0.11091988235084216,-0.01209052886913856,0.0482828944651813,0.053885489724644575,0.0112729552562119,-0.13714383164443048,0.008626201659949699,0.1101447291680294,0.004549533259114054,0.042125913387627535,0.060358293687729644,-0.0031805328959208703,0.004190370234678696,0.019254383343711542,0.0011345892672274638,0.003305959711558822,0.006115652981179913,-0.0035087585049966875,0.008234590606504248,-0.045047026849657945,-0.048636301585449807,0.04189454325234096,-0.005113513322930162,-0.23807981013588234,-0.007467832465302901,0.2053363368477047,-0.18648324559602925,-0.23356260231555429,-0.4742412313360721,0.01090615296782884,0.29569940356336905,-0.20708192079592347,0.5550932651869612,-0.26382816422410216,0.2101777194874591,0.01224016088900032,0.2526448510684538,0.13224993057992845,-0.29953577028849615
249.6387939453125,0.918304443359375,-0.28458017116861944,0.5990683164264073,-0.32922938593829104,0.33125928747884215,0.26657373099937415,-0.0969801480459925,-0.05214841815213827,0.12679366189047553,-0.336286412988322,0.06676575766547475,0.03372074161131598,-0.27450589014755894,0.19798643523956497,0.007439328983231481,0.3896624122550668,0.10081306081591769,0.06724452029844186,-0.08826658561528007,0.00629821305835884,-0.012342362908010685,0.027932645607909652,-0.05633103451629279,0.00626960324427021,-0.016316671170408217,0.005183151675787855,-0.0003610182675220369,0.013508184565936792,-0.025391363371565834,0.03999133348156453,-0.024749326110036777,0.00312879721891405,0.010561953118413335,0.13186168414420377,0.0629182282491389,0.014212636544995622,0.06590693000171441,0.09817058030793911,0.0816882200032223,0.029544594170118878,0.042353211749297924,0.06375074030772758,-0.009205868493710452,0.05331171616123671,-0.09106564887178756,-0.04007843460562086,0.036595938350832496,-0.06616092583506879,-0.017751354837795715,0.03780741701485337,0.0008235625571719488,0.0016959974712704442,0.05611515301939828,0.02096732614910073,-0.02128653420863664,0.04599855602988142,-5.634719307445746e-05,0.03167605182041203,-0.004346822120241645,0.018620101928567518,0.03494711012226946,0.032969819215815155,0.015208178530389138,0.04275438617550832,0.016265813662839627,0.03472140295495601,0.012922592225850064,-0.07908670193896403,-0.05962475885093414,-0.03403053353172699,0.035370576918421257,0.05916628818378998,0.007645326234769245,0.0038614695937342416,-0.0375490069117737,0.05539567481584686,-0.002693531362339018,-0.0023720806241444834,-0.007093323584427067,0.050330655433436323,-0.06294135784868653,0.002058824214474139,-0.12112672926167092,-0.0016209884995678952,0.04384903202916904,0.08042284425703713,0.031891723484331364,0.09871514399920123,0.24678131026734754,0.08741431114144384,0.5234401372893218,0.25742856658674496,0.1470884392793012,-0.5098657994570512,-0.15595164674636908,0.3982382951765485,-0.013464765812861795,0.8256938402200155,-0.6257936174835205,0.5413232621877561,0.26390197973750357
250.55709838867188,0.91900634765625,0.4342229078598575,0.18648995474699118,0.1267110594689405,0.29631059231991563,-0.4568769170290455,0.24566536750177426,-0.02840745538670145,0.12434315929652959,0.18782149560608888,0.44556959595000334,0.027533694252128524,-0.20971908205495932,-0.012407936286064639,-0.372647846067889,0.14024127391701227,-0.07691094074995285,-0.049367535433925074,0.004811137072478301,-0.09395596802876446,-0.017602425117782386,-0.00025279841194324627,-0.03070739417688799,0.012038685227314806,0.0021397312058543533,-0.030811176399358903,-0.05153142229447188,0.024067856723614677,-0.007204334158918843,0.031015832564643353,-0.053492893016263456,-0.005054756438737732,0.09383044599419736,-0.0662978623340699,-0.013509437117660434,-0.04077663804443875,0.016777190377879773,-0.04800601653623298,0.002741362103015054,-0.014956408678081984,-0.0748182583317333,0.00010683748948879914,0.05572296593004536,-0.00040219417689075967,0.07599065275628188,0.03323018185062443,-0.04688742786919808,0.0044911530105741036,0.044568818817308856,-0.0031296247553337327,0.03585353038735948,-0.09771726724326339,0.021357420717559864,-0.02351698602801964,-0.08402961154156394,0.04109690420383029,0.05020414711348521,0.027788849018218823,0.023100407230598155,0.03752242170122578,-0.003212890225495553,0.03538436407870595,-0.013599971944948426,0.04044254161418306,0.02667189899727704,-0.014875117239936557,-0.02715902444672798,-0.015415390779252195,-0.01205498906919783,-0.03269674413015106,-0.023343796510368532,0.005679772542830211,-0.005494734981368513,0.07973478368569152,0.003987632765388525,-0.0006717247082404264,-6.226050831136361e-05,-0.00042633278607432013,0.0036782054794343155,0.015783481351576478,-0.057099709644722114,0.03039243406889834,-0.0012383784832429227,0.0029084186758562233,0.03312962095737508,-0.041834471476901725,0.02442675510647578,-0.2445736271866325,-0.27201209127260995,-0.6541472577785648,-0.3298148906994307,-0.4097132237514943,-1.1060313586200277,0.23551433748570766,0.6908127264744613,-0.3131592238232507,-0.3118176968194749,-0.15506259004423398,-0.6798875820302648,-0.4426070447380803,0.26809859744215814
251.47610473632812,2.846893310546875,0.38290082692401384,0.46060270357293087,0.11560883464739613,-0.48213173674848653,0.12898636462625948,-0.17004786182180381,-0.212641050923265,0.036368685621989624,-0.1481538511887155,-0.11468548706182612,0.002552482129700745,-0.03734644391307268,-0.03205123386785784,-0.2523446257875733,-0.01006884077465548,-0.025613075961346692,0.07286380629441191,-0.0483020723770358,0.04297092714854301,-0.04818207973902603,0.0024132857158075047,0.013864859492394964,0.044341358408994405,-0.03898519693172626,-0.10165955469228,0.03450182180852786,-0.014754417811229777,0.00010921156708016289,0.012315993472813648,0.06451780411156302,-0.07095546990371733,0.04953928087573424,-0.015536874546233828,0.015415095351587211,0.09158214285591437,-0.03240569534517683,0.012679828975096046,0.07279739815758365,0.002672580842236969,-0.057763743032044595,0.009181088196983931,-0.0353716716715797,-0.07123202907373787,-0.023396161588609122,0.02180529395497769,0.0004207736882040729,0.02211171545422014,0.03692973201624274,-0.05085234961969094,-0.0010750566836124247,0.002980296513947057,-0.0012317330601078777,-0.0865644268099088,-0.032959443436792954,0.048519028479512394,0.05990285343845121,-0.06256443330316869,0.017523646365454632,-0.04845693991296638,0.012046062556521351,0.018852668243738616,-0.04913270726413498,-0.011477865887606523,-0.0036287730002028187,0.053812492604320354,0.022179918558403913,0.03351842341977875,-0.05444432465942446,0.0201203781784662,-0.048093192639602295,-0.0393514010772519,0.015871263979994586,0.05075986014507937,0.011755328691548016,-0.016868129655831426,0.006572638693789453,0.049829038156129206,0.02784223208326942,-0.006004868357983335,0.002030881473645378,-0.0008627003368407821,-0.0025503024634563596,-0.067736175025217,-0.04759625544983831,0.06571954820656818,0.10525220776955205,0.013319504641819128,-0.24747736357305375,0.6455368074929921,-0.17908202445234156,0.7667396482315839,0.4778434003494319,-0.20833219181597404,-0.9275117655043834,0.6037158020951402,-0.1114632935568523,0.3679426928833561,-1.1735643161990323,0.14864710562095748,-0.1966698653816794
256.1805114746094,0.919403076171875,0.0016018739275960314,0.1309536611900446,-0.07108786515941838,0.06761806695252065,0.24088198725965682,0.2199293333675434,-0.2936457438109509,0.18406352291349684,-0.08237772040967618,-0.1423935621876619,-0.013385233265294253,-0.13811651229003327,0.10977691138177087,-0.1605652003170545,0.13888282675354346,-0.16054387840732956,-0.19160034751077729,-0.019178955310013637,-1.1862523912365845,0.16243431860796786,-0.28676060718208146,0.23491095486438004,-0.2126111986840225,-0.0743648068338758,0.2615769094488211,0.2555871069933502,-0.3926145602328016,-0.05626291040602738,0.3810327685689284,0.9362436424017474,-0.7275677991705377,-0.14604973698372384,0.47038577723188996,-0.07824427910549588,0.1430083823773307,0.10953888899999258,-0.12984429843748757,-0.10771881576970856,0.03574947504611408,-0.15157418283331064,0.5507046780792024,0.19326534987747918,-0.028323629003161602,-0.013990281218044237,0.038795392381267856,-0.03570854356259785,-0.05197553329364587,0.011697667279310962,-0.03047159071811012,0.025539717951450696,-0.002594860082534178,-0.002138782199739911,0.00768375317150901,-0.015948865585664107,0.06019564373833001,0.011156519764416362,-0.01726793336934943,0.03869003163523057,-0.0050295692679214535,0.01890858462483589,-0.01153166063975329,0.016035191438992544,0.060060567068434476,0.02168436147410105,-0.010602046516576012,0.022971695284763626,-0.05301542997541978,-0.001662519400968415,0.012377259206089845,-0.04784364775816187,-0.00245106390582349,-0.004053559411588613,-0.012894590921648783,0.06279542506688386,-0.024487792728545517,0.005319444693985664,-0.0019329458549389679,-0.0036196536066261794,-0.014548727570289952,-0.061494377350918866,0.015848474585442356,-0.001865668728259054,-0.0072379613704642645,0.02992157515803291,-0.07999146091088402,0.026371537114423832,0.08496354903231777,0.5380019172857188,0.3102372479825276,-0.039566225130500066,-0.07054581969254416,0.8409615992580021,-0.3632637658923582,0.39220556172567145,0.09136155664355324,-0.04090408838058729,-0.031360886192399656,-0.430032799958795,-0.6104417420426779,0.1522506109736604
257.09991455078125,0.9385986328125,0.14992513696263138,-0.15083133028373535,0.6300385573549585,-0.460845335371585,-0.5645405591092509,0.14868284598265352,-0.6772261278937136,0.13958991129588416,-0.28390185195307244,-0.09540628703134547,0.05088562522609662,0.0030564456017886377,0.03054940741256886,-0.02820201824025622,0.3245159324232296,-0.05358571767931294,0.149496521222297,-1.0212618779970588,-0.14637747371192553,-0.14141902650700075,-0.030106929998939304,0.26311211693098324,0.03367468824773566,0.12765156825253732,-0.33846611850547254,-0.1516819033522299,0.19588580169759015,-0.149777133489544,0.10076713420319143,0.015237051702794532,0.050084997095909016,0.03960767415621452,0.03533601282126285,-0.3527941243803517,0.2043578248723393,0.04455322364619596,-2.7617040351840538e-05,0.04339159223337833,0.0009377786608903704,0.02809541348020461,-0.020205113491125803,-0.037634021585652745,0.02192107947185521,-0.058301867552586,-0.004831242969596625,-0.00997243395088345,0.033699538044233646,-0.03905884309467293,0.009555024210137849,0.020434711560467687,-0.00745166790355555,0.023866964400466633,0.029928924110622437,0.058742104394523216,0.025916787668019456,0.022193661723758862,-0.023230136533579866,0.00658136332948007,0.003632401813105232,-0.034003726102049076,0.004559280457244354,-0.0673856329904788,-0.05370382952454717,-0.043386500623276446,0.05778418465839441,-0.032633855099496484,-0.03982563205797892,0.02432517229751558,-0.08917068904382776,-0.06913708343362696,-0.0011989478167181782,0.040683538482566395,-0.014194804972106014,0.00856280126883349,0.022553774603798277,0.0071471474406682445,-0.08789060067163568,-0.00644040948921383,-0.0039004839305130014,0.005143403813252634,-0.021700330468650577,0.04242007016982165,-0.06267732071591409,0.009823119901512259,-0.07910159567368977,0.11515492166982179,0.08287767382946487,-0.12290268284041352,0.01804376083932593,0.4478710790066115,0.17013913268392453,-0.388004656761237,0.469411103639069,-0.05423536395279574,0.027537188470933754,0.1583309727398185,0.4685571210624151,-0.5914501240064036,-0.12968383385436372,-0.5986098815731999
258.03851318359375,1.957794189453125,-0.622566541239701,0.043466341413193804,0.1909411208587201,0.060897562613963944,0.13357565580533823,-0.11748082404191784,0.10778719098878528,-0.15828125418683828,0.07343812092965218,-0.04500669467824007,-0.06544922082030838,-0.5154350089103623,0.12455536595250881,-0.08818083916266373,0.13205371125003743,0.03869756981223263,-0.09724232981766977,-0.022495168632378285,0.43693956699815506,0.2880025343527247,0.35616290868983236,-0.095367601005391,0.013043916443684777,-0.1436718647431912,0.07076760424039659,0.15052368040843936,0.03627060226504767,-0.0939681513989467,0.0211664190870362,0.014809166052351708,-0.016334248608939464,0.07905101785371521,0.10157200141505116,-0.01358243062815419,-0.035078550768437446,-0.0002929254887219768,-0.02136723561644459,0.06902504065700232,-0.04266608533191793,-0.04191274243472428,-0.020522392282482888,0.007003426700935457,0.05518643836462466,0.026247960198513453,-0.0048677225366424715,0.009112391786412813,0.009495592651931034,-0.08663044797314698,-0.03129965095881182,0.034616459418069394,0.034165554748895655,-0.043528405909470436,0.005907767026632902,-0.012964550426880592,0.02718492278044721,-0.03068206418903562,-0.026014973225441745,-0.019200501992117317,0.016927668425370867,-0.04247976386136236,0.046252471698002576,0.011864971380958315,0.04750993173417361,-0.0545136649346324,0.014579967376826646,0.05175745793373914,0.0002913254438529717,-0.02978385739513021,-0.048470469022119794,-0.0010926879424060312,-0.0427741702950642,0.007833139067474399,-0.00026513278124577576,0.007423574967900869,-0.001989125859294403,0.0009639022052606646,0.0028686345315688793,0.007910665743245476,-0.032129878696059294,0.017708284657088316,0.0026458457292149354,0.09229540264076802,0.0913534861092666,-0.22045223754990217,-0.4908480328919197,-0.04738260016475156,-0.5465579649587978,-0.03978528267589485,0.28374597426080045,0.24869413386337721,0.34191035042583273,-0.15235376174833232,-0.7251576287715995,-0.014925321537979569,0.29134699283739524,0.29207622969996333,-0.3541629747717853,0.20876232021504432,-0.3913211925246569,0.09193811043440955
261.893798828125,0.928802490234375,-0.1354463373382706,-0.45372640591462815,0.2409461770420472,0.2001772192996491,-0.45558517197431986,0.07534234857933501,0.0790320257113644,0.04807013735110848,-0.14357054791257193,-0.416184960938048,0.536148724924642,-0.5452330296441168,0.27700342104152803,-0.04492291647057721,0.002639695037036288,0.47125298408452737,0.0962532750104476,0.0033144579684712796,-0.02833094903464317,0.38355497025418067,-0.0010446577680822732,0.00018722971203681896,0.029654444164017812,-0.0038325821751886563,-0.08774179969015723,-0.0708086951066833,-0.006990583815931394,-0.031227013556262145,0.039947094093460346,-0.013358517009007002,0.036886199161106144,0.057154543276373586,0.03303255292966153,-0.006506689278249864,0.021006944348211726,-0.03079988427731807,-0.018470773440269476,0.022283290024396853,0.027736994296369184,-0.01790138475252546,0.02197743822160273,-0.05916625272988808,0.006065368400469794,0.05286882970688866,-0.02918051841237664,0.002681743006078277,0.0006188167917581949,-0.007683545650129121,-0.08782659208845682,-0.006604053831754691,-0.005094573369567669,0.039017507239688776,-0.007686319195589359,-0.03493846549544149,-0.015832948574873967,0.04046805668879276,-0.06838685326793773,0.04547777082544523,0.013816344509277035,0.05158327087110828,-0.03467991029776623,-0.00398435062698555,0.03627926394070897,-0.07431604096227723,-0.03355498168852678,0.01056892705124869,-0.0026491622535419995,0.0009485976821642818,0.005430249876491892,0.047482221243496506,-0.09110159465378383,0.012498152895748725,0.017773064810056804,-0.11489866798819097,-0.0018957276739005194,-0.020107490566119345,-0.013603571703275821,-0.041754526865506784,0.008565451564748925,-0.014123285982861156,-0.030576227731312813,-0.002782924083879776,-0.0012474967608486515,0.011637369216599355,0.07957425644084573,-0.027196186024178448,-0.12451120639863335,-0.321599022366893,-0.07803085966716025,-0.05534231803210697,-0.24615280045767918,0.19657672513311555,0.5903470183045971,0.23891959758004652,0.6770809272809819,0.18121654541372065,0.09735244129274134,0.37234060928819174,0.18179768795529902,-0.192528498356627
262.8226013183594,0.92919921875,-0.1680273618189233,-0.18807201364565246,0.13154965563072657,-0.08257649487865448,0.1325779709677236,0.03190617977043125,-0.15470648580003213,0.162567237936179,-0.20619559014642602,0.21916512790836445,0.0856962655972065,-0.10944480510263868,0.018627050505934953,0.06993609931971177,0.0030758483346186583,0.0006052907691717663,-0.005233882410289586,0.03314850674881124,-0.01675055892776515,-0.017243162688375537,-0.040937358513849,-0.04303218321494226,0.011321553479208565,0.0013844431212784655,0.01772004418144167,-0.0015860446065628898,0.024080732371424086,-0.01333938274797724,-0.06702531923606964,0.08697855007141479,-0.061456503036725084,-0.091282020231805,-0.2531453708655958,0.08336842798028873,-0.040168561119568055,-0.05617258461315612,0.012943428489905803,-0.033159137817494966,-0.020129237085457708,0.0883566334106208,0.016143555814215057,0.037376852636326924,-0.04269729575641987,0.103429050879084,0.07192997796292998,0.05059215250730114,0.07039931966620347,-0.023183434866757054,0.030671580774005554,0.008833221777226709,-0.02762235952067309,0.01555981175732131,-0.023481488213416796,0.020208610351377866,0.07956458926872771,-0.00734496221717233,-0.049522023251183954,-0.05129245141801045,0.06414713094884573,-0.05196602415233509,0.030350201029555303,0.05563000376181352,-0.015563935927029642,0.025650160304397145,0.022531850248832447,0.014351136253201361,0.013774287958348373,0.01730781687918062,0.10561311494740994,0.03386228664988928,0.03171511076647553,-0.06826336646378926,0.005359755332406187,-0.00458012645966631,0.03255409511690878,-0.030056984497531237,0.0019501980418629376,0.055493195755289,-0.0008401051067345114,0.0028586089872785015,0.021458225735639824,-0.07270550433316154,0.07800516537662489,0.0017726135249440185,-0.004048396362836701,0.14329022445665893,-0.08201106171016917,0.08387885123927319,-0.13636645011191717,0.01583829746384737,-0.1091827671854547,0.1496753936060653,-0.26536599281507434,0.010348943943486122,0.4607036967143295,0.25202411158237864,-0.3178139112463634,0.5362553123262012,0.11538448806737306,0.4297123255885235
263.7518005371094,0.94891357421875,0.566860394715588,0.24076759240710366,-0.058675172338512036,-0.015346890201101677,-0.07334482138586138,0.035629509551789125,-0.06319352772974786,-0.11938694617572072,0.10314224349419192,-0.04738997975335817,-0.4851118387608381,0.2309408199061258,0.08428350521211511,-0.19735154684933276,0.052490872823897514,-0.05723602046178898,0.028635908322918173,0.03755803511272335,-0.21315283531501455,0.08944273313794351,-0.14551382134777271,-0.1647504616950152,0.23019889554108475,-0.4791286158337262,0.1444383765056854,0.0334244264077735,0.38918580055301705,0.08110519112623213,-0.17825221699644372,-0.3083409716492116,0.12457021357884654,0.02873322851712364,-0.08149005587715916,-0.266595833821757,0.1131903937274524,-0.04590110021904567,-0.013711504094368011,0.007068172454588688,-0.07985538618118039,0.007885433207154291,0.06961478380084203,-0.023329660687535433,0.058239624303996464,0.030947889124677316,0.05937735167205306,0.002389735688634556,0.04020382430142781,-0.00549682071955561,0.044522588477627925,-0.009879051784491374,0.00554209017730108,-0.007089151203274094,0.06967927551925744,-0.0011430966612481523,0.020324583413443495,0.039177403182667526,0.00529717744259128,-0.012172518261385209,-0.11692002842136388,-0.023023384897684254,-0.027345053833851277,0.0030567477949122496,0.003231382570795604,-0.01433773107805308,-0.08503524794429718,0.04397114771939327,-0.03817734785911579,-0.06406579623078455,0.07780056606969107,0.0035085104692302413,-0.012869437502568738,0.04086769963594757,-0.0320411899361951,-0.006077329897403642,0.004489434613155152,-0.010057698254135092,0.011840201359121727,-0.005861991619699532,0.0515166947221279,0.021255244559863558,-0.028714627245552637,0.0951887935707416,-0.022827141287727865,-0.09467815859670747,0.03556550744469129,-0.040036496588140666,-0.07024107878197405,0.3749908914209029,0.192877300809388,-0.15420970613422605,-0.12244349012151438,0.16341104271214596,-0.10858365498490752,0.622220487695953,-0.7887065475342993,-0.481197234276283,0.30586635807443174,0.33489978312260293,-0.09127009717730203,-0.24650326956601534
268.5960998535156,0.918701171875,-0.5236912739169224,0.2571424531493545,0.13664479394751966,-0.3346076284067516,-0.058000879853126686,-0.1534131411069287,-0.10305065130832944,-0.06653102849629727,0.21693586430719386,0.1299515036579784,-0.28890892716230354,0.21129709844148603,-0.1443651921711347,-0.6542018194501377,0.12366793365673225,0.013889228271805401,-0.05833329440655913,0.05647077351116915,0.06944652105552868,0.10897093125042219,-0.16038294970696113,0.23818017721024093,-0.0303802284687755,0.09943213095491348,-0.14400737341132339,-0.37781693786967413,-0.10778419567316094,0.0036312918487700907,-0.22722747671387375,-0.04616325235815674,-0.05079744077835065,-0.2941175478156455,0.024850594680584148,-0.24763222891232198,0.053609157622805076,0.07729372347667882,0.07214047983084622,-0.0675523145663724,0.11098527370556574,-0.031653738613940906,-0.049620174853322006,-0.11411622818682406,-0.036319238071386276,-0.00680349602441434,-0.007156035708777377,0.007033368653339116,-0.023886186684961987,0.01673396766192392,-0.001817368744279541,-0.031792318893809644,-0.021938018330642052,0.031072113080383955,-0.0038111041715371994,-0.061361112325644306,0.010824586194940073,0.04286618385476,0.06782223605778247,-0.029420799791709803,0.011982684997143153,-0.04058417391875509,-0.057284387720080536,0.01691793700908466,0.01555220407030116,-0.029675644761366082,-0.001535075073298961,0.015304739472552564,-0.009681552599624388,0.02425812377427183,-0.027324702815988408,0.003452866692797213,0.0005059181974198614,0.027456130646960675,-0.040914247443575275,0.04156799518216905,0.08474421971065116,0.013013001393717055,0.000633933364337066,0.0012411412702075697,-0.007937748302269464,0.12016563928910746,-0.0366636625526792,-0.12453541803390336,0.004582951464817982,-0.017802510048940012,-0.02445164231543985,-0.010460071927308322,-0.21702026260831506,-0.021390119296552483,-0.26622070747325893,0.09563218891560436,0.23369031398202797,0.018788997725395454,0.3861180448749978,0.7855910502325152,-0.12742536224070564,-0.09544928385950027,-0.40104056414961353,-0.2197769659042441,0.20405353865969617,0.339948770470454
269.5148010253906,0.928985595703125,0.2061105346380351,0.509085859356989,-0.13956104337967754,0.0023832430418340156,-0.1706018827500008,0.150830927414219,0.1463863693165824,-0.16802453532783768,0.25710964685355575,-0.06854974584756533,0.2714339107955565,-0.2507762445181937,0.24418374369459658,-0.07002681876853738,-0.03616364866804371,-0.0071266489502259805,-0.34414607040232914,0.5628214237254983,-0.07849578888856547,0.16670727243837086,0.18041100079596548,0.040529932415900576,-0.325939891747193,-0.17407251076589575,0.10022272799810017,0.27936758839746584,-0.08483377422887066,-0.2739722497362142,-0.041838862381140415,0.4231801632176518,0.14968463394839593,-0.02613156949723737,-0.0348049470490044,0.2796576459023032,0.07358950959608399,0.014565485676776083,-0.020551441875434596,-0.12145302259320023,0.15028780926195698,0.09452451853071539,0.04790020891913254,-0.012970185622316804,0.05587457339738873,-0.010264637769555829,0.010136661687424288,0.0226418484372437,-0.05527311497162019,-0.003823682296883693,0.015327768193223621,0.044423718012823944,-0.0023928089889865846,0.000954163552325468,0.001450332287438749,-0.03312221312287586,0.03767117347557356,-0.0020007877589870438,-0.08518659524097594,0.031092218840964164,-0.05231803845032517,-0.025657340172772176,-0.10083185588488691,0.03428744475010266,0.0707786526449711,0.01996902545331612,0.020998129147383623,-0.052602176184003854,0.006096319307994161,-0.011010460387033488,0.06600866100114448,-0.061104726025082955,0.02660940183192348,0.061032262501838824,-0.021248496209741483,0.08041583305730737,-0.07354245314470086,0.10544481446363058,-0.004610906611622792,-0.0012574782894148274,-0.0009304028728565547,-0.03618920251451321,-0.05476181251243542,-0.001698965760583758,-0.006725307522266568,0.021107953601846776,0.02523342246857656,0.19014579469000287,-0.16572087367575183,0.11878236837026077,0.16553316855270067,0.13368296427438103,-0.5275960193371099,0.37843747791008114,-0.7490866995091959,-0.9744555163291627,0.15424847330590497,0.21439254101340544,0.5218103228320314,-0.12855292905217067,0.07576733983119062,-0.5576932302797809
270.44378662109375,0.968902587890625,-0.42315161256752454,0.02161625770942107,-0.17200388401672284,0.18176839131428507,0.21010484467725618,0.24401052906382995,0.040028974467041005,0.052446486275956286,-0.009914781926172955,0.08393728238893666,0.0027290607427171093,-0.15504734584781318,-0.15703138629946845,0.11062896007239181,0.07964382627471792,-0.011832906683657874,-0.0027446492752268804,0.14744031430712223,-0.020361158408520805,-0.27862892384316296,-0.05984560447904805,-0.02430746041161129,0.09243593308053784,-0.03130953912645967,0.034825474888139335,0.009657399230140891,0.0973820445227143,-0.034941919406703284,0.011025131454831886,-0.00223851814710202,0.04126262806910122,-0.044076806936523855,-0.02160427536555791,0.01630807025508036,-0.06127246219591923,-0.061301089667564715,0.019634992346589473,0.00341889442489874,-0.017275632139130186,-0.020345698719839878,-0.06555598520346023,0.12559991204738297,0.007926476821177272,0.03952835882136286,-0.013471730074629634,-0.07970670690219829,-0.00714465075834159,0.0028226185381560603,0.00014245544890822384,-0.005424686296412016,-0.0009061673123284195,0.007021357392233977,-0.050233840445038924,0.031775328056212485,-0.011052613285345039,-0.07661860220131436,-0.01100246039092953,0.02942444816518147,-0.02088676830299481,-0.02575868143897536,0.022114018007441043,-0.04355232439622449,-0.020630526972716078,-0.0977429858170171,-0.024041674844317053,-0.012780117506440074,-0.0032352507692948746,-0.002466983942908616,0.014116378389896838,-0.0776791715868327,0.016208215943562608,0.020485772574589518,0.06164046659515689,0.0022787468602778636,-0.004398498832484112,-0.006498797867595846,0.008559666770513466,-0.03135246546426967,-0.05188584926412395,-0.004782294947475419,-0.003275657808752261,0.035569428569865974,0.014786051132044453,0.07249877404675703,-0.05085318141423344,-0.006925006051064254,0.5371063107494518,-0.317451428048817,0.39142002318985275,-0.35731226877277134,-0.8134682131385781,-0.12299694054764172,-0.75352917461809,0.4117976323833203,0.02717885111652022,0.4229672178733697,-0.33213011027804706,-0.06415399146730061,-0.12676848463166784,-0.07867510366058589
275.3182067871094,0.918701171875,0.35660380592838165,0.3932461999287469,0.007580759160807832,0.18729315053079107,0.218389172100237,0.031502356726330207,0.210605166677657,-0.08818637736326838,-0.22663209421316866,-0.02458686664018172,0.47507472182038124,-0.02613762797021889,-0.08270768589377639,-0.20450399982126446,0.04071551689855762,0.15766883393191192,0.06572315702677985,-0.09450782200775948,0.08401039840131377,-0.31001754188987307,-0.20648839935495428,0.007290869948740945,-0.20835546237023145,0.29525695566693877,0.016238584852839452,-0.268998553085101,0.013872976678562902,0.1027650061952193,-0.25228795895547335,-0.08158989818469727,-0.1283853635480106,0.21109005364368513,-0.28899159528158314,-0.14496318150480048,0.04708894660318406,0.015550007642896407,-0.03202932808070683,-0.016743231434728396,0.025495864309542825,-0.027373587467140352,0.0038920561043216504,0.01840482164360968,-0.02305876192438416,-0.06924058321581719,0.0045280927013139,0.0648939627403797,-0.009566492718660493,0.06962059864217823,-0.017784235418561306,0.0246522178339911,-0.0018761561167314248,-0.0027401719732167047,-0.004919096750435981,-0.07104616375864835,0.0746940059389416,-0.03677117809883204,0.017301086771158318,0.031166993958519684,0.059830337871802135,-0.017969249726485725,-0.013089299701622288,-0.04465713576009912,0.10427111310340267,-0.0021905695854550072,-0.018019425421397728,-0.07086026688009295,-0.020110363381979343,0.10072631159288353,-0.007924712938853211,-0.011269652284168537,-0.013852050270438258,0.00780942398061686,-0.00831011525634598,0.0210066844145095,0.03251345843744476,0.0522747725031578,0.08483196482752216,0.03477256813450658,-0.0045760722939191265,0.055305314723597926,0.052634757753999395,-0.014174186365909235,0.07629324039210626,0.006306566018645921,0.16803613310115584,0.2480511085419543,0.42786458821569456,-0.5123036326639107,-0.1064899069118114,-0.2948602241874627,0.31464310921460403,0.7744601979641124,-0.10507939356073148,0.07788731531418358,0.5323934945223884,-0.4943194983444874,0.48278307055593056,-1.6378789310429662,-0.49477769179115566,-0.2578579784605574
276.2369079589844,0.87890625,-0.37333235987731406,0.19541044175740785,0.1628576013828494,-0.19043068594747145,-0.09999561087971502,-0.04542221191380155,0.004498036109525097,-0.1139750443584205,-0.09553812877303565,0.058844277474833895,0.2929567314194021,0.01686933269919516,0.16766734449989018,-0.03913076511403811,-0.1383892877431072,0.022185144309789122,0.13302893368618654,0.1760602988033393,0.14757974517275363,-0.3343258653709793,0.06669436400252539,-0.25326426793136164,0.17992284673552264,0.0013035375772127151,-0.0059160013448722095,0.139525454709984,0.185087102871208,0.3347852642869564,0.4221432232931664,-0.40996849361154536,-0.16914675600002488,0.3727440495556845,-0.22666016600536065,-0.15234807658212562,-0.0024827483451932103,0.02565990179002316,0.06066818614401819,-0.0007519109806957726,0.05750435581442339,-0.06953906677170288,-0.06798777985353341,0.02228259390146607,0.08936197200865488,0.00944210853186634,-0.00697755071847881,0.049135872940123185,-0.032056867561848515,0.03032152465383226,-0.05111374645805387,0.0021510822422907278,0.07262332637638153,0.010491029388732734,-0.005491531737183821,0.08457900938093801,-0.0001446284530808409,-0.052642605705270185,-0.025793493664786206,-0.04958483107156171,-0.007406241986842393,-0.06526203211678244,0.03795165247901834,0.06448752551380596,0.06978023596867504,-0.026054763965879427,-0.0006956928770683866,0.01182151603858456,0.02263501012278345,-0.03314103217747047,-0.018929796881449808,-0.0002517503971920243,0.004954414954858554,-0.0022191924256548486,0.003382488853492048,-0.08289655772390318,0.029248054601706982,-0.004829025614027578,0.0009616544121489137,0.0013423884732002363,-0.005604197303192403,-0.0014504086809230602,0.061222413696413625,-0.11141703234619331,-0.008312197134172741,0.10853340479586042,-0.07911541708198501,-0.07994695700235853,0.20133862368975716,0.4238786821559104,-0.10347997544055665,-0.815665757855314,-0.38900033722854366,-0.8017763388143793,-0.48988391028521794,-0.42099720762967,1.0196823538473954,0.3614555110584694,0.5815713660236745,-0.5455843137244396,1.6841138484950706,0.7683799634826153
277.1158142089844,2.047698974609375,0.8809677873201703,-0.5985220592416947,-0.07486953809630002,0.2934681549565407,0.2465453933146304,0.11080696786427555,-0.18829997695767225,0.11413684579368462,-0.06239499376185275,-0.13996713514872122,0.2717128094457371,0.06450074676356767,-0.06796399836069861,0.04105698915497503,0.038382769765725404,0.03841262011074129,-0.026617038021199455,0.06758998604917416,-0.07490787419514858,0.00850382433822442,-0.038021042096774614,-0.012101574294116443,-0.18103580410913778,0.13798133679857555,-0.028781034814662765,-0.7753890761790022,0.21732082430830668,-0.011792276673500484,-0.018742012724018438,-0.035531061305945875,0.04283077597534904,-0.06759143303184302,-0.2754601246752719,0.00645495334903733,0.020294349656192125,0.025879869726739016,-0.0395842718660389,-0.03682296250758593,-0.006837440610223761,0.028823126503021886,-0.04382065404947028,0.06561071891709949,0.06892264520508076,-0.04019433380807939,0.03690293279769757,0.00032276415114397376,0.039286881099593336,0.011996646689272555,0.0019809048200853637,-0.000439928569723433,0.018293265954277313,-0.016966103908502148,-0.03334963598003092,0.000510479022835908,0.050295475096758066,0.021287507277139586,0.04225086162296067,0.01779645138428257,-0.07231947021942109,0.03037495034821806,-0.014483973216240143,0.005223409675597747,0.05547942195818555,0.019115557875974038,0.03628246173865873,-0.004270123960926757,-0.07738003375843451,0.031100284660131167,-0.04586242461879615,-0.009736924610235832,0.000380476955971576,0.04464138515005886,-0.016474637278068735,0.0008854756999185913,2.896639983493951e-05,-0.00022563600269470503,-0.09781001766376105,0.002326617850912519,-0.04636869148642557,-0.054385089414214785,-0.014021520705200734,0.06171876439165602,-0.05978869502627466,0.2708744239721349,-0.3081491172507527,0.17881030687891822,0.13205016737989775,-0.20091621138595206,-0.012808008097074615,-0.2309001771626757,-0.33746177496748725,-0.997635171723166,0.6888003440979876,0.2461355013747546,0.31847453549652754,0.18761149607860028,-0.0875094185527713,0.4663642642862665,0.19032296544962002,-0.189330741503871
282.03021240234375,0.928375244140625,0.8245944347373253,0.06130759232694355,0.4497100532458635,0.09148195011378596,0.09100592063825443,-0.2451355285051131,0.05919718282907464,-0.08314906184530055,0.13213311355437954,-0.05557429825054008,-0.3402347378431846,-0.10349611960767101,-0.26419177715316006,0.011372532139244579,0.04718875592420997,-0.11752920798155639,0.42835937809895064,-0.04727176998349737,0.21792226991725266,-0.08549634319248603,-0.15461540050008243,0.0023221841033685374,0.18957413681911575,0.044108305062004,-0.004935416900857165,-0.4625819327316385,-0.3788048393635118,0.36710891713564,0.1077765128862772,0.03595104032677704,0.30038574875213914,-0.4194578842317841,-0.24320102062322202,0.04623376505359693,0.08019083933431936,-0.057731072315402414,-0.025798141378014512,0.007194819748338462,-0.028282592147613868,-0.05948444841133731,0.07177687380543209,-0.03116731190292489,0.025685702224319512,-0.05675353502038962,0.011382668949573635,-0.02416577566239813,0.015440150585590146,-0.008293294738761968,0.04135762330900203,0.015890308785907428,-0.017846241076292627,-0.02562866420283776,0.09058083901214986,0.05678505842123589,0.01824822078240238,0.007314620602905206,-0.007971102735935348,-0.048353034826860944,-0.003406201226242013,0.08853463751757887,0.024690960905259112,0.03920076924439397,0.001502664375867687,0.011638459156362862,0.03802360490196608,-0.04863761374005242,0.006568817814794278,0.09698144728372227,-0.004905926503675733,-0.07093788760299745,0.0030563681834237183,0.028662959952290918,0.011203100263618732,0.00496505063420075,-0.001478835221909934,-0.01082308333067776,-0.02600210469399222,-0.037229600093950294,0.023122188654321127,-0.02975550638321388,-0.00013613755391351395,0.03664304088024403,0.015139988976229583,-0.006949892878821941,-0.057289640438575165,-0.004673624482894281,0.1208971503496081,-0.4146677788652566,0.45917490452228027,-0.18704727025421264,0.1832661107205918,0.22935105074741968,-0.056946314249208665,1.3451558469032232,0.3643233468312312,-0.14636215655722964,-0.2148082310799826,-0.24334278541127186,0.010979744238132721,0.49026367271517163
282.9585876464844,0.968902587890625,0.49262122308114453,0.5560318458512261,0.17503146500265074,-0.311021924559347,0.23144866272929757,-0.08536846791439014,0.2712073870045639,0.04685106728413784,0.12998069996930806,-0.046561819552142794,-0.08692133729551196,-0.016219011749690905,0.1150356589382943,0.05691747645816107,0.03140294111462487,-0.1190636549686115,-0.2130174933024478,-0.016384230682011912,0.044599568326168244,0.04300405805739241,0.06553282081317294,0.018639095835974187,-0.0506084399298939,0.025259606346756495,-0.12185309962629681,0.15184628457453753,-0.025088751396693858,-0.20159192665661474,-0.47329094501155955,0.06724930427427477,-0.14148437321594898,-0.06896373530053052,0.059228143840354394,0.056912682731846256,-0.023085319577754886,-0.11890071853786799,0.08815884095664578,-0.021943923901994906,0.007886577811362955,0.022977633695194684,0.015029556103931488,0.025322395918321947,0.021297929471674252,0.038264161661690214,-0.017785727814289373,0.01521854230419444,0.026674673012627204,-0.004714338496192785,0.04165955827059672,0.0035267158882616063,-0.08428524154532135,-0.04476401454679664,0.0319032513666257,-0.01827872268249727,-0.031195373050812186,-0.008567277458087282,0.017891774032838266,0.054149566846699866,-0.06945672776870851,0.06813950288206137,0.06748228336186746,0.043457159163121546,-0.0005592301794230667,0.0007741766545173777,-0.046421545002853386,-0.03530246594408447,0.022046411324882366,0.08328617157944576,0.0301895754719396,-0.015278329166398602,-0.00818656353026749,0.05634392372834766,-0.00263301038654466,0.005472564052718527,0.027406728032674202,0.003388672081366507,-0.0008351788925792583,-1.8593243603995716e-05,-0.011189163388903437,-0.04569467200969773,0.009425364501715851,0.005753577725362532,0.0008761827031617785,0.05058007279670111,-0.08443446247172438,0.19338653614865436,-0.038489007099126615,-0.329509343831742,0.10144086162691233,-0.06950592687190067,0.5229946375120893,0.39365397931853874,-0.37382612339255367,0.20495847112318588,0.11023655538619676,-0.2009998423070223,0.30959529476750436,-0.2875358897860765,-0.9435570439333631,0.31354082996527916
287.7926940917969,0.93951416015625,0.06811320387151598,0.10658093778467921,-0.05712806912828878,0.1674535965807512,-0.3087070765489984,-0.311207269722224,0.1498887992702405,-0.12500266657192735,-0.04865130469670839,-0.37470966614066553,-0.005525589206283793,-0.1227814520882562,0.0443846778621244,0.15420245669282875,0.005449217319853718,-0.002754488093261031,0.05980849750424986,-0.1505034444446013,0.005834711614558347,-0.04828269510659397,-0.1061756815964924,0.06732176516784841,0.07149425376304418,-0.07502866183012807,0.10485882190280987,-0.0650660490402768,0.05159196864710658,-0.07443231699180483,-0.12633661163922996,0.17372388530935248,-0.2470688383462699,0.07641839535749526,0.11458329876227237,-0.05445920666405769,0.09532802638045863,-0.014842711267315657,-0.012611738144162233,-0.038751780101172556,-0.028727487089603453,-0.06711538934783094,0.005037135356865258,0.018061345540934613,-0.001691110443244312,0.010125245966672563,0.019393669279286145,0.009839125015705871,0.035930596188536994,0.003944448257244865,-0.01667892292653071,0.013343899842033338,0.12068329952008286,0.11031113144437389,-0.0018977290512107031,0.0012869742095625906,0.05009179461821117,0.019984207780263667,-0.03392462316559893,0.07356321919836276,0.022291875304004203,0.05732264210994791,-0.04064699146637284,-0.06723805973149981,-0.020449417634716686,0.023790858481778088,0.07067590390335317,-0.014074978620777454,-0.05087315315445883,0.03857432506534751,0.11145975143628653,-0.013081381372394785,0.0004234383918741804,-0.04460108455874533,-0.008570725688853975,-0.0015859551300948659,0.00525132462335805,-0.025972370875654183,0.05677267199655901,0.03890153278477485,-0.0039316544804338235,2.6837926998888437e-06,0.0037777522550064696,-0.01988398888099261,0.023416776745706747,0.028533741633073713,0.040975527274964535,-0.04233402684562608,0.14599807562050757,-0.21968505862750756,-0.08014932553951315,-0.3348978680435652,-0.5255415147486953,-0.3778171276113761,0.7207722748883675,-0.6284178560474658,0.34259953183845704,0.6036591056230814,-0.024025957059697914,0.12042479034091985,0.4995516131715531,0.2012432470319875
288.7322082519531,0.918792724609375,0.17000036456626486,-0.41454053879238434,0.008988975491978676,0.26655154003268633,0.31129188586710166,0.37774665293088316,-0.20005149983653775,-0.02440831242056535,0.3093764051952984,-0.03698519848269129,-0.07341667138004412,0.061363663755150635,-0.20688276226319965,-0.015040583181040776,0.04746002487165488,-0.12228393984953079,0.5295182712261349,-0.18933338410230685,-0.3789584470832025,0.10655851899491975,-0.452652739300585,0.05101846812317723,0.026201215954294182,0.28091241444020226,-0.10127258685393165,-0.15935662921363933,0.018280804747657087,-0.07403673600057711,-0.03426889390480519,0.16962964727366264,-0.12011234081569855,0.1498903119444085,0.1749087929096821,-0.020840675616326215,0.05747086937921434,0.03741532290423505,0.03072944055089206,0.0012840290308881988,0.020482161857258766,0.029864755250955707,-0.00520278839674243,-0.06507874823128997,-0.023735510612153968,-0.006005434616426143,0.01255705634936078,0.04039761890509122,0.03718292806077954,0.0456856770071388,-0.002239152297616031,0.08727758887213811,-0.08447942729638146,-0.03988027266844161,-0.006601963829175758,-0.04106793584180549,-0.023223022132253704,0.002475928851357642,0.013498034881524908,0.06062771789081987,-0.0032455828978818838,-0.03813874437659105,0.016307420580238624,0.0019150940976841388,0.019806310127955324,0.06435590403804377,0.05323273447223062,0.03429293557932263,-0.02328629770703732,-0.00789336652008797,-0.034349986507565475,-0.01680847086961416,0.009977000846380514,-0.08032901729939868,-0.0016501701828120967,0.006657066372872149,-0.003967009762613414,-0.02798989502144973,0.02095967069493178,-0.008183304780712275,0.028004791951895237,-0.0012530759924166053,-0.008183690811053156,0.026202378717435745,-0.005987074790014665,-0.0016447397760419062,0.013514706134260571,0.023477078032208512,0.23742229321584343,-0.040723663994818735,0.11461743817594974,0.05398386367709379,-0.6805995878266403,-0.5256621259230626,0.32075416560260206,-0.029459126746785344,0.8812501929429681,0.5460596090030176,-1.4815590361223712,-1.2923944798801554,-0.3097985560784566,0.38326119318425667
