start,duration,0,1,2,3,4,5,6,7,8,9,10,11,12,13,14,15,16,17,18,19,20,21,22,23,24,25,26,27,28,29,30,31,32,33,34,35,36,37,38,39,40,41,42,43,44,45,46,47,48,49,50,51,52,53,54,55,56,57,58,59,60,61,62,63,64,65,66,67,68,69,70,71,72,73,74,75,76,77,78,79,80,81,82,83,84,85,86,87,88,89,90,91,92,93,94,95,96,97,98,99
20.349950790405273,0.9889984130859375,0.10437059657107207,0.1834044753896849,0.8760853607743051,-0.03470061821677224,0.2874383419497634,0.014009165858468453,0.04996640335282226,-0.7214759995374833,-0.25647773310845096,-0.09987211709230856,-0.19410459878550182,-0.826448791832377,-0.07932629889721769,-0.19207705303161265,-0.053151454096430545,-0.6818922553827306,0.2451956262476789,-0.06722880917459557,0.0024630729226538667,-0.018757950910272762,-0.0254359253681969,-0.019162559815447483,-0.028197648005905993,-0.14188175759125102,0.27030083683901446,0.15806013636663668,-0.040894403837184005,0.032463276282901916,-0.045503190401644036,-0.2578544075969973,0.09673706781745281,0.15277240905887537,0.13993394775608803,0.019702860398410425,0.09969021030692919,0.06265534001230526,0.11590080531079947,-0.019522717649409355,-0.0011505185138974564,-0.012962666650063587,0.04926370285241134,0.05070790050775298,0.04097754068103274,-0.024824551891693747,-0.1568753333300858,0.10362237292543643,-0.021118731366838308,-0.03610246307042224,0.08281595328949105,-0.057456773319558146,0.007819219763097704,-0.03646145531233732,0.04182743600911563,0.10831753700776384,-0.014167362418010978,0.0018822435723209205,0.013177243316770271,0.037278540471702044,-0.10235343894054193,-0.026862092287774163,-0.09233995789444518,-0.08233339628479919,-0.09681164574612207,-0.02454068999086736,0.021361437248523896,-0.004480725970488233,0.0031667361426216244,0.06116528659807878,-0.013614817426028984,0.04226080491919622,0.1882889761650104,0.049675162311529006,0.0036828508761088258,0.023439738178945173,-0.035983151538752034,-0.03230476384672971,0.08419402153051322,0.07402624100851349,-0.0013677799740703838,-0.047457655437044555,0.03236471375963777,0.07801528710642514,-0.005512256039156031,0.06537662811115341,0.21259300961675964,0.3637668567799014,-0.39197481144014923,-0.046713655320998554,0.10467113355285894,0.06779246592640881,0.6375678480832508,0.9697784557563235,0.15232386874651788,0.24059731958025665,-0.044822597146064395,-0.24091930261815833,-0.6137562820323768,-0.08789397140071452,0.27830308945120324,0.21822705415694987
21.33894920349121,1.0187015533447266,0.36981345694924317,-0.49724680154181555,0.7808695353595163,0.285948197731963,-0.09940115637006204,-0.015812690571624675,0.24466345138627715,0.1558344972751321,-0.051105424269910424,-0.08633164073242997,0.006094811989413395,-0.20580493549547452,-0.19198254781442053,0.05321254682385493,0.2953527096648353,-0.23862304212699378,0.22941713898135163,0.0823823648002556,0.05360335657953499,0.007176038039040239,0.029281088351505724,-0.13355182773076607,0.06112299880055588,-0.018961593890571296,-0.18575006120308243,-0.12424133720183779,0.03553782708042169,1.120071675527405,0.021495898742000273,0.04308505161989623,0.04480096675466552,0.28444310672363254,-0.09416588795200623,-0.2571403906147955,-0.06598529844087175,-0.24963200872327357,0.08010090038651586,-0.26623782269583995,-0.04342101130291498,0.002452496591319091,-0.01559855915004283,-0.050702364851075786,0.005239052387292185,0.02722314687078081,0.13281383401702127,0.0821029330019448,-0.0455348688909282,-0.00775588927697162,0.012395188703383297,-0.03231035875429332,-0.018961916713245614,-0.027695794820288205,-0.0014117948165637596,-0.004049129324819851,0.02129887923681796,0.03347528977501386,-0.03622916186474633,0.03962571116171122,-0.017296612373996368,0.029999781042975644,-0.005327334699114141,-0.007119736662748336,-0.03515817095936834,0.06032381893518143,-0.010779431726233846,0.05998828542184308,0.008956187203859324,-0.05090342085485207,0.04723608709229277,-0.01119248541194244,0.12174873821473038,-0.0068106275192592065,-0.01410363027668357,0.09201018644065326,0.016914106882388327,-0.017842471697374088,-0.052722426716456834,-0.008810129827481403,-0.06600092733181104,0.11534014447641343,0.019805708203072044,0.04420620150198933,-0.09937718718262858,-0.03171679557471167,-0.059400138386501836,0.1459792898192701,-0.21074748953446387,0.09360373855572665,-0.19354854047804623,1.0373009102631021,-0.31487671904966197,-0.707775768646133,-0.2827380924795669,0.6480029000300718,-0.07809093756870818,0.0739214430480056,-0.029225455603368318,-0.8521954271582708,0.491380483489371,-0.20103464631284512
22.357650756835938,2.117799758911133,-0.43092076550704295,0.22004071647638415,0.14741952303699563,-0.3746354812528597,0.5660504781508388,-0.03893395228233945,0.2685556440860182,0.29420773248527027,0.0011971756806870594,-0.08594657940029532,0.18565244330377373,-0.0866313369923993,-0.35979598225858145,-0.023261605911723354,0.44289013066141747,-0.03707744535771369,0.11627260510005552,-0.22540731973768433,-0.06821268240767174,-0.15997698166344246,-0.04319808892092824,-0.12007406518293223,0.1696100257300527,-0.2614632752002206,-0.16190758171649164,-0.06734490715265622,0.009834256218899388,0.2847949076406505,0.14385414350353806,0.3734275308869524,-0.3374571599938402,0.8576678080960082,0.18864454609579975,-0.17131089699405894,-0.40756700914092,-0.5127359719752901,0.26137314172835646,0.2753514150589421,-0.6762972019235152,-0.3109392917081516,0.18427268010192935,-0.0857177349411804,-0.0163791742071432,-0.03292247562309503,0.00338772360358691,0.003993852892477268,-0.04710120075340543,-0.01475269721376064,0.016808040386036796,0.010659227586469436,0.06948769048782143,0.062211501119694174,0.09154924254490462,-0.02899362839908161,-0.00802880696034829,0.10764866189963296,-0.09915329618615355,0.07004046479035536,-0.08858836030495383,-0.042314074822073,-0.04706175693989993,-0.02672641731321117,-0.04273261681227668,-0.045279930860081724,-0.004812007672396477,-0.013126598952943571,-0.11027617652869517,0.051242315244193655,0.016150237198342538,0.03386821347455862,-0.0019804414571181917,0.070133261299637,0.04172786586067879,0.0032301301819582517,0.07009719619894789,-0.06326308638304495,0.037833184090061,-0.017808550934124645,0.006106413044218537,0.01177617574223172,-0.053668096768798884,-0.004137114203831338,-0.08848284383181308,0.13427854321279337,0.15883729048509665,-0.21312246390809828,-0.2875733977132148,0.046080987066632766,-0.0461530216822136,0.3114342567684476,-0.10070582494557985,-0.19610401398812355,-0.19950450015532686,0.5680391709196646,0.17969537013792408,-0.4607735274389362,-0.6572965894487558,0.09484781272309653,0.20551061544848026,0.031203514287692913
26.533050537109375,1.0283985137939453,-0.005097207896787691,0.23249799874317834,-0.058774709847732136,0.5220367465747311,0.33320317378889497,-0.1723677484919606,0.19854772369844234,0.11769533484195197,-0.06991555292701154,-0.0023848797938627944,-0.1955163524170534,0.22729926356360108,-0.20209266970640688,0.11635856721483345,-0.09260002493713865,-0.031973366373527004,-0.3100674584579058,-0.14339127532743393,0.42034743612096154,0.06261048348901396,-0.009404959925506197,-0.046726244868884104,0.0611882903089647,-0.017136093737829396,-0.1088317820710216,-0.009290710145908888,0.10914869487747426,0.022646739018069583,0.06494868154227804,0.07363581498616374,-0.07433901835430091,-0.10731556573539577,0.06076562575292063,0.047268773491808636,0.05430725489707399,0.01407547231001323,0.02222681137024668,0.07128667484846768,0.07711089594139355,-0.004891894624399039,0.006161448137915165,-0.06122034203797565,0.03766936526238439,0.028872838654650856,0.1211599758187146,0.013680747783537955,-0.03389843721475372,0.03501840600170666,-0.01747456256482804,-0.024077008430050034,-0.01115862968485503,-0.03337411235989597,-0.0059975938975839835,-0.07593894193889317,-0.0341157119740478,0.0016740072279788948,0.028907720192746435,0.020658462553104415,0.030476870340382954,0.032623889640421073,-0.04105384900593489,-0.02127086932531768,0.020707409707748235,0.07305829691251804,0.03826664640341783,-0.007146375253922643,0.0842506584614689,-0.059624590952161854,-0.02138421123850145,0.018938475743420183,0.03377301189220525,0.08260429120296552,-0.044180159275598714,0.07646600679424556,-0.06489827832266637,0.050560084203854994,-0.05023652241407702,0.05281742387689872,-0.0473075663853457,-0.031128852230175367,0.031294156048199025,0.013381742194389933,0.017245663944423013,0.10750917400469837,0.13013283492461122,0.18272119309804052,-0.06794470130241209,-0.09883823875406798,-0.18713340036037834,-0.0270893723303699,0.154689369421946,-0.907274812946929,0.45661111329745885,-0.6199115240712071,0.9107990105892445,0.267926030291956,-0.24302649010057883,0.14039319461712277,-0.07383444344591851,0.16471490864432897
27.56144905090332,1.0791015625,0.1791358511721191,-0.0980541816937282,0.8237083411607222,0.05569807155021289,-0.6833144324742676,-0.3423915578329211,0.10680086698338784,0.22847764990595504,0.10449553179572943,0.11785530879300689,0.08514109283308918,-0.6020775785160452,0.0241926572792211,0.030453555096978384,-0.05419169095103806,0.12041555262452158,-0.05227093746904675,0.2904836923775631,-0.051483947536753186,0.04106879384798577,-0.012562913631980265,-0.01113663348071557,0.016482223519592068,0.009821575217659792,-0.10460609782776556,0.09861630195388668,0.11118492217434553,0.2218351170601855,-0.012512807935107895,0.06131619183300055,0.003216155109712987,0.007050482475696013,-0.0023815822657006053,-0.014218605893779452,-0.007053965670882969,0.009265824947693579,-0.04330806044967186,-0.009669656686109425,-0.025840585998332274,0.0007264362249873538,0.0036898428475500887,0.001178602230814022,0.029040149404743677,-0.0015553478404367327,0.0002049804428551767,-0.07854691237657462,-0.06035113492367364,-0.004973839160260885,0.024157946545797684,0.006591355496775121,0.0041717711346074896,-0.018236636809762945,-0.0011531132876939159,-0.01876891310928785,0.04646490888274868,-0.0270737923451438,-0.010005737870347135,0.03364537066456742,-0.005245011706423016,0.008737182001843124,-0.03769394096341687,-0.015076022207335787,-0.097981193801361,-0.0007470244110500263,0.0016222958314825982,0.05330126093989335,-0.03607656545574871,0.06527631353845394,0.04294424240628734,-0.009121045491689758,0.023578569860975288,-0.027379481817729978,0.01177735189411441,-0.016208299847725836,0.03507444927391408,-0.05512838985052448,0.06723530542535115,-0.04092876502905195,0.0010313637634010863,0.021807682390561793,-0.028183635022196826,-0.03356770233571039,0.02275353197066664,0.016829887588870725,-0.18462145073855823,-0.12619451771205256,0.09447552044699371,0.008266304087889725,-0.036761746227005364,-0.2198815562378333,-0.2983799291383734,-0.4528621667932383,-0.18175828559757748,-0.1628787190986843,-0.36698372527104184,-0.5285866535814169,0.1645981150320423,-0.279784939979541,-0.20355764180012778,-0.1132266056135279
28.64055061340332,1.1686992645263672,-0.2462814041813082,0.1163009743390451,0.03924984974841348,0.26777802560887387,0.4510951551314782,-0.013159934035219145,0.20898177797627987,-0.23048671348224675,-0.0715045626788427,0.32230135675572036,0.17474063637332996,-0.07488816541713367,0.12244336659094379,0.016890030926450975,-0.26021417130063584,-0.3805664089148826,0.006002937858112324,-0.27184668114352234,0.058819481114020286,-0.148126682904007,-0.2272325945744979,-0.18294034511524085,-0.20075483925455276,-0.05911879654022849,0.321977973469835,0.26198287664976794,-1.0062168737420418,0.01954738226809826,0.007386478028320384,0.048734707956142126,-0.11599645991938787,0.20444523949922624,-0.011649752176983635,0.05725489528099636,0.007932629706268436,-0.07671661325942085,0.154456419258369,0.09271400657581542,-0.14566984520868234,0.6287578092629448,0.5750357612967634,-0.2974032653843837,0.42958749514896355,-0.4040749436330422,-0.2202677345825737,-0.13142108394327082,0.09156515645117488,-0.08415301756821406,-0.05201130035235298,0.007666308743440273,0.061584708427911375,-0.07462225944654809,0.004783438340202847,0.034266647640159846,-0.024489370408055666,0.13128697030796382,0.044252686863683374,-0.11454612074359552,-0.03967325725487173,-0.07146979026296346,0.032972797015284605,0.0968388336310446,0.08016956629065229,-0.0038653779636289914,0.04538590797918112,-0.037218413792362896,0.05575712267731577,0.014596439360737446,0.01138567241628205,-0.002105709902688775,-0.007165971346047489,0.06862612305932907,0.07412248876761961,0.006199145294590085,-0.015042629344106818,0.07421824538115114,0.0655312492993948,-0.11520750597685371,-0.13907008194941867,0.005786824075266178,-0.08731766433495619,-0.12053589678734725,-0.0467133820725398,-0.05441241819524434,-0.03326439819171861,-0.045378816416232176,-0.043354857045748416,0.38561953935681004,0.4476233735671074,-0.022920998926440866,0.3178622703362442,0.3211175051651753,-0.6256552119092029,-0.1655531131713185,-0.17406445555253436,0.138560530512256,-0.034349795783119835,-0.23825703162573517,-0.20935689064661378,0.20434228078078576
32.00685119628906,1.0189971923828125,-0.44827866145030615,-0.34183182306086835,-0.2526021657373967,0.06031943982851709,0.01733360456722141,-0.5860486622777428,0.3640040419860564,0.10069481410699338,-0.3151428207238832,0.4928771447364723,-0.15788963313568857,0.19346509874805606,-0.4498857098453606,0.18106731846316443,0.1864517728235648,0.5142102552648918,-0.17598574843107911,-0.562384947213918,-0.5858310311470316,-0.03554102916865276,-0.05432792974949401,0.09158907794330041,-0.13171722518214807,-0.2053368865806093,0.25619743602103273,0.1988742558420608,0.055711767080957,0.023334914773193542,0.07435726832754455,0.5127334788138496,-0.007783148902681253,-0.15847854799989833,-0.11487791849137895,-0.12118998064986602,0.0008355922753797516,0.13729310363496472,0.057409579804079305,0.03571582377277781,-0.011081774231458091,0.06511178211848072,-0.013964863278317011,0.058188003934894476,-0.019189015220437578,0.006351295776423713,-0.007485876408891645,0.03259914735593651,0.011918715756816599,-0.02086848998186802,0.08229362542420862,0.045705716005516844,-0.033095568218685145,-0.040336559045079774,-0.03396859053557822,0.03583242494221455,-0.008294125084719193,-0.003307487546540302,0.00041150799463858,0.026886911670696144,0.02949472646432428,0.011983435888330254,-0.12459395855943464,-0.06479942085821307,-0.021482130770106925,-0.024997142715389387,0.09363949456351481,-0.09811806949374197,-0.015722242797650582,-0.03263370082444227,-0.004531229026790984,0.06424929190018162,0.06974838791737395,-0.0240481848675612,0.025744904576940914,0.07939584097028664,-0.033018266388178216,-0.039661702417384495,0.034489847593544475,0.03748724701329824,0.029392082723697772,-0.04224057363750555,0.04137953844736346,0.03486154245780357,-0.0927036824180085,-0.06932846884671438,-0.11640849187017076,-0.030944097408344577,0.0006656286109461423,-0.021371210283766047,0.10875965138185249,0.2480240446774306,0.5418949993344987,0.0512580218845644,-0.1784278709334072,-0.22520992128533657,0.005666485602635302,-1.5608349321603718,0.2528463601211675,-0.5965305118914419,-0.5476321557540518,0.37150658374338363
33.025848388671875,1.0489997863769531,0.22839781304790446,0.02789144861002886,0.24613261851368404,0.424303218874963,0.21472524379125718,-0.9052271955748754,-0.13952763682388306,0.19360474691368354,0.15910822727783022,-0.1656085268931968,0.12213091291065217,-0.310729998818041,-0.2997239549051049,-0.2075528646167567,0.12671276628401795,-0.0977483414806468,0.05627550870302201,-0.07019104644613508,-0.0623141998112788,0.038725349182699445,-0.025003137983370772,0.05722418363105785,-0.004831758466988765,0.038888088145939644,-0.002388425910357929,0.0687245463610752,-0.011484767556636695,-0.05009690072359532,-0.0028788865371361726,-0.11023731433054676,0.0389924537168942,0.024332215038967965,0.0002469674038033424,0.013204110254796477,0.07355329295768603,0.06714836491798479,0.021449031227593163,-0.003745090074792205,0.0030665519343972968,0.015349104839235971,-0.0776808902503303,0.003259719607327206,0.08049218005696941,-0.057944179889943034,-0.0007440147667373191,0.039565678094742686,-0.015774452086131527,0.02698733369242832,-0.0024520062310460764,-0.0006044732737987075,-0.010589949382529587,0.022584596099632624,0.10804743408122094,0.03773260678253337,-0.012001405264349667,0.00990559105889596,0.007386835957073096,-0.042033733859057655,0.005060377185864311,-0.04066404587935161,-0.016849023823253692,-0.05473633278896564,-0.04654046371225415,-0.009913254913976105,0.032720345816910974,0.028428369103429704,-0.023266640498823973,-0.0387148784749274,-0.04990627133961841,-0.0021569146545120862,0.06271960462816424,0.012428481366080765,0.0016590717732018062,0.0539024045425659,0.02447176876652165,-0.020926435151384537,-0.01314983173770698,0.07228850849332155,-0.03973724643172125,-0.019314920844560518,0.04759699402134224,-0.14846438022374187,0.06739013397771575,-0.0942026533632592,-0.22915558713985776,0.15223213051658258,0.06999272111485601,-0.26966818379958535,0.3031109801679981,0.26809037992253604,0.012251900382298495,-0.26289983379006265,0.19163596536377492,-0.020011471359862365,-0.15808596160146543,0.2469885344702048,0.05028667007984865,0.04552747149468678,0.28166031767013877,-0.7364969461623773
34.07484817504883,1.0886001586914062,-0.47180986657459206,-0.2491084881353322,-0.26348143754080233,0.6037406462047323,-0.13310903130158136,-0.39917583158268616,0.04746842310830774,0.04062881936444285,-0.24256872951144115,0.10240722485788416,0.6311625277359284,0.16937617524389728,-0.0013652787524310699,-0.08090295215904127,-0.3076845413316377,0.19168765201850765,0.1708300002342345,0.12308685455292256,-0.08518555691107989,0.12898474513061145,-0.0063924899902072976,-0.05014480972926815,-0.014372323401201148,-0.08161882024208751,-0.13355534414229028,-0.020456289348187166,0.0651258663152022,-0.06332693953252437,-0.03610263461257805,0.004791359197141607,-0.011472247910447236,0.006054938610557861,-0.025427380670842013,0.0005195889184577578,0.029777536972631583,0.030257990556205056,0.007006827854129756,0.01775037096741938,-0.02376764750285902,0.06146286123071566,0.02901573431613407,-0.01506231724847732,-0.0676480961952619,-0.022163289823149204,0.05235878382832989,0.009670839884112417,-0.028644397581791436,-0.04908272441997808,0.09343253190515251,0.06459883174302963,0.04216042481340153,-0.0037396677363390387,-0.004847833973227744,-0.0317003366977528,-0.07052700543039786,0.15712996712706137,0.0149665059824768,-0.056348544232227,-0.027929345192913416,-0.09729392814029794,-0.021613600720732422,-0.06112734406926368,-0.012084283850696806,-0.0587589795564868,0.0656436034041867,0.010522495175754033,-0.001756528505888963,0.049295401108878666,0.005146456023533856,-0.0071045259831801835,-0.06728409400125757,0.05466596309255513,-0.07169678220634373,0.06585881676763769,0.08725574911430503,-0.055254594220416564,0.011214938032632531,-0.034351661446438024,-0.008900239048350175,0.01678258781440445,-0.03447968834124455,-0.02565458825755125,0.06251611137337076,0.03706599667445829,0.047608923764461464,0.20835325616589684,0.23288493346854494,-0.08273509331902548,-0.004366874802691829,-0.04907997884851714,-0.38248523346232577,0.3245516632197466,0.29184484107758457,0.4264019585485519,0.547317588867369,-0.29811642386573495,0.4135151927195067,-0.033557251859304346,0.3374233587264514,-0.1939467505005361
35.163448333740234,1.2582015991210938,-0.5843044135185678,0.03477771314990063,0.2972436382511197,0.32856649903453966,0.33783712655784714,0.7228595218167376,-0.04848496684074377,-0.42363737200686796,0.24948607036432321,-0.046366805470335476,-0.05508508853870124,-0.07411761509128104,-0.07378873504683191,0.3735099559501883,0.06098589429182792,0.10351048244977534,-0.022036018187212694,0.0847907631447945,-0.06444255259629478,0.0604921245608077,0.11480858265856594,0.1451529377765504,0.3123762527254162,0.1456294153296123,0.06190241166939657,0.40933007109465325,0.4084143541993128,0.15988755119153308,-0.00025638609058706166,0.02536057966482886,0.10354113452479914,-0.017489961211691083,0.03555705392340668,0.05532461419340428,0.06477091989340047,0.04309204244392602,-0.03917120070453184,0.07332666317593524,0.031123564128872985,0.02548821994379035,0.06092631843289569,0.023070791758901713,0.016663607384615337,-0.02903103394560806,0.0027789142132198935,-0.023992314301442927,-0.0029615562516151755,-0.0066943406367815685,0.08236045120305432,-0.04255104325405116,-0.0034849489325279844,0.011666704120885569,0.05895276566385485,0.0664249652713381,0.04776458498993527,0.07686916727842857,-0.04866574046903625,0.02727214298829428,0.10883446822934278,-0.00910564841789782,0.0023284093861814744,0.010846511891532164,0.06586323989348358,0.012006764820197968,-0.039514566329885197,-0.060515262517089954,-0.07962103809304176,0.013151363072878081,0.011390693937033288,-0.02859348003511794,-0.012288316244073269,0.014781481086607023,-0.04031395089122458,-0.07185958798449436,0.0743140593501726,-0.032273372571058306,-0.05933128690022951,-0.012671111860113951,0.018006654718864718,-0.026087861361442928,-0.014731163400214103,0.024844482453583963,0.04723602874378397,0.060159737466419436,0.1467010033338792,-0.025829105322802484,0.17623537584749366,0.17136671643044937,-0.24889486975212952,0.2567664179939406,-0.2417447472965576,1.155931525675277,0.32972491647121144,-0.10698691853500604,0.1439593916989441,0.05370103817396518,-0.20795671568496557,0.15369049516714992,0.06813489828345647,0.02279150104984823
38.59904861450195,1.0593032836914062,0.16111397448553316,0.561909448128975,0.3437004831795053,0.5139231809582776,0.5139115952280056,0.6661583215890816,-0.13463011029396765,-0.04139500805530594,0.04370305362822913,-0.03196678724724883,0.6989578764146236,0.15425460228714752,0.16573373073080538,0.05898478160866463,0.018405448141237016,-0.0064636164630500585,0.08299303152940836,0.027125741519774458,-0.035773272575128176,0.019513990403953588,-0.05244102679761962,-0.0007324722911644221,-0.04017068269538323,0.0023626733659461926,-0.0192619224758809,0.011145426724188195,-0.013842445417638306,-0.024554212019818535,0.032605859181225674,0.026330109762541267,-0.02018412627557054,-0.010520585162427681,0.030568816147092257,-0.041372899392791096,0.057833270621774596,0.016102724864077465,-0.009614304248652936,0.05742874430656442,7.419421709348216e-05,0.08735723065866124,0.02891447549494826,-0.02273154504949481,-0.007186634228991032,0.007731765698364434,0.05052786812699418,-0.01649081999218335,0.00796758922816048,-0.002201145936449097,0.06076488110367184,0.01815519643995624,0.010365962388925594,-0.0024775263921550245,-0.022575708661058715,0.006946923179385454,0.013923088881741902,-0.009980779270238216,-0.03265060471222521,-0.014728361970307056,0.021081219056736194,0.016079703286233274,-0.041947909655679363,-0.08870563693927615,-0.007452618161503719,-0.017577504595769816,0.021800685076854565,-0.005095255214760619,0.036943001296069256,-0.044056542529270847,-0.037163048155247694,0.03975857840223053,-0.03981853864609,-0.00662516757957303,0.018901874364588914,-0.01648322961432715,0.002215133408542451,-0.009271344556475478,-0.021259748349077782,-0.011986837966865319,0.05651374092517296,0.06030943452943842,-0.1023809616560621,-0.0056743939801621075,-0.014197180676730047,-0.020337844837944735,-0.0424420695949524,0.10950000113996991,-0.10277792829568284,-0.11755448501235347,-0.08723882695784196,0.06251318297266911,-0.19941821368498414,0.009551920020605738,-0.26980378095040547,-0.5297838400230864,-0.4615775254104945,0.26003720303439076,-0.026541086275985202,0.34422147734154773,0.2820002319597759,-0.1648663881537495
39.65835189819336,1.0587997436523438,0.12139593932407469,0.3371842020019509,-0.2767341934803323,0.8802180612117118,-0.468546087462279,-1.8695775727685844,-0.04339436249310369,0.455929144301404,0.233458147379796,-0.155452218303481,0.14384024183809865,-0.1389388993181112,-0.15039837429489078,0.3579619578225381,0.04011691564012352,-0.0349909037425591,-0.11324344733320688,0.16683098321393286,0.0020508884291785268,-0.03923911087809517,-0.000383454931154748,0.15318998379548798,-0.2832226858158323,0.4376807450703663,0.21897232401276803,-0.1802780450752657,-0.004077500225292817,-0.0445294783337042,-0.12440283107110611,-0.0913954759019801,-0.03764630792948012,0.04685128112114434,-0.023295167486236362,-0.029158075044938534,0.09359062327303729,0.03659849222142636,-0.002119456662293108,0.008626427799804458,-0.03583489051763397,-0.009578348362598002,0.001830446320475465,-0.03738401850481806,0.06882177206481441,-0.05142192316004675,0.04991631990702351,-0.06498589486814343,-0.03698838151332516,-0.01581377046118437,-0.11209334234064978,0.03689343818425983,-0.0028099996545689096,-0.0010341616658126943,0.033564126067452855,0.012692562119615277,-0.009499086476431648,-0.0538504138629332,-0.046697912797782806,0.0735231524995303,-0.0686704150379023,0.021848127307577292,0.00893125880179818,-0.05237584135715543,-0.0023088462743315503,0.032459122562029104,0.037081334823347696,-0.031772852590189214,-0.04061943575909446,-0.027463734496623694,0.0013399017637711745,-0.015057429318910184,-0.0627431230866519,-0.021460989409687874,0.059179709839736166,-0.038857156742031024,-0.12172013716016258,0.08745920681710678,0.06814667134819373,0.05564702810029441,-0.13598960837449747,0.010890664122233898,0.0038261799584502635,-0.030647497802579454,-0.020378450772720956,-0.046088422923232744,-0.05787400735454927,-0.2546709501746524,0.07613562711659456,0.14526464210275106,-0.38241169714308154,0.08035268398951373,-0.2726079896776281,-0.5350546319802265,-0.16823501957815107,0.07829394227592414,-0.10807846408446622,-0.3578024779988913,0.27868761815377574,-0.20972248446215963,0.4994746343024163,0.05136225295823499
40.7171516418457,1.1086997985839844,0.06566634203032008,0.11970278054706272,0.23508371502043013,-0.5526438959794673,0.12021639897750887,0.31644546883411834,0.2636683111496666,-0.14982979371536384,-0.3747042838836797,0.1501956915037884,0.033953523726510705,0.0502438491060948,-0.1663241786414682,-0.053283151127627014,-0.7683042882868365,0.09542678653945974,-0.2870776198288963,0.38192171248263174,-0.06427060036814136,0.045995408036685614,-0.6835694778728599,-0.42421074145545856,0.01603351706647335,0.1211792111900333,0.3007863698601454,-0.19687780467030272,-0.4986964913953799,0.19513032431835248,0.09431235227126775,-0.06573821931943843,-0.11304610931766228,-0.04797444263265328,0.24002285313752972,-0.006568387054480439,-0.010475698185275991,0.002445712641819002,-0.053826825291059414,-0.0020183436146812284,0.05060322515189617,0.005515712516628107,-0.02823019558213199,-0.017741114519891733,0.0026840429524234237,0.013689615366423716,-0.025196102697611116,-0.023798270255373684,0.027252690549186352,-0.04521662762153019,-0.012029801388350341,0.08910136415432136,0.009372867287282406,0.012511082802114853,-0.04748894872521828,-0.018518670105808904,0.015233112160293352,-0.0811943830127548,-0.022763751116904776,-0.11167338353328554,0.04408412994970076,-0.010042074194242268,0.05695168382465573,0.039559039243925016,0.006473635083328993,-0.013715539381707682,-0.037882548109802516,0.05714803512981426,0.0731274231884315,-0.09447707535717725,-0.043519744732285426,0.023391163086506923,-0.004080969960350988,0.0075278561181533026,0.006957564762133739,0.00840282013650416,0.06630948845535997,0.008492773625913386,-0.05159185584814999,-0.072150152458605,-0.016422979849319567,0.01443290631912271,0.0482781735105208,0.023693775089694558,0.10785828685121561,0.033480480493463416,-0.03346419397695791,0.038918324454895764,-0.0913774328537517,-0.01001956322264274,0.05581312087902454,-0.4706725940920527,-0.18236754625621354,-0.1517648505007716,-0.1941257929239298,0.10340069877436127,0.12994927745055807,-0.36545347775028436,-0.06938161331437438,0.04022148800456837,0.04749718164303454,0.49075186827226824
41.82585144042969,1.0884971618652344,0.7892646632025655,0.0002666127444956312,-0.14344367253234894,0.06003704948836443,0.3769909164024917,-0.4447610681751107,-0.0399178724647883,-0.2222924780064659,0.16054559853383657,-0.08934348133650623,-0.005432165152077171,-0.023054823543777053,-0.12172909375640506,0.06857974842563974,0.11893619550228901,0.24227541527241642,0.021643315366003113,-0.05062077060024714,0.04921386802510977,-0.21884539016874208,0.053381674878850746,-0.1019842277001294,-0.019519576372418704,-0.01094676601367136,-0.262321639620551,-0.24354033774887757,0.1328823048478459,-0.13883145679140668,-0.016809101237746763,0.021037509468351607,-0.025741964185680297,-0.02315668700663421,0.02469400308149862,-0.08843178376506412,-0.01757336388147885,-0.08517088093103697,-0.5090894058314565,0.2782308028537588,-0.3315184379134464,-0.21591676069034513,0.11947001272598479,-0.055714183019489015,-0.06715361811081144,-0.19541911683534688,-0.009100966920337723,0.02574517859737724,-0.07011343944089134,-0.04237465586556766,0.05233906579486884,-0.025765575528773565,0.009046115801576661,-0.011943875076081398,0.0517312554866107,0.057651524286991634,0.1295076896657899,-0.16751680979526057,0.06427472097642098,-0.03945718011041286,-0.06265428215583961,0.2048633010297124,0.06830058238440889,-0.046906178821035024,-0.05045122509659641,-0.022762080970540836,0.007051072641998399,-0.004651221390961852,-0.008770415641514052,0.06895017710052917,-0.0023682433873258805,-0.04824718211832463,0.04159692283783172,-0.026173008922385787,-0.006590468637696643,0.17165611693703878,-0.04302018742080069,0.11436713786752306,0.06560607978822665,-0.06419810745697307,0.010539184898848496,-0.08963133382822114,-0.00306176983589741,-0.028356838367119257,-0.07339307609623415,-0.1740171407360046,-0.1924821632340533,0.19863188091956124,-0.196735863074621,-0.08974953945773945,0.3531190865884353,-0.1477982775597028,-0.21428341256324976,0.03401190157724991,0.6425847484863466,0.3302627815587682,0.38786114502899477,0.6827407555126741,-0.022450771447476352,-0.4239628122859984,-0.09589184895920534,0.4250536826622082
46.15105056762695,1.048797607421875,0.08164997395218554,-0.15244727125849955,-0.8400262965398111,0.32492823866332166,-0.36139582057856917,-0.10387055197607106,-0.13867281135177614,-0.5241240958714481,0.2768307096349317,-0.18145954177130066,0.08990158607537987,-0.17322523498311596,0.18010166341379089,-0.2279187958039106,0.27667120315933397,-0.029343188531290504,0.24396935980386708,0.15824656546365978,-0.02694051828674382,-0.010193389429072363,0.0901415891795759,0.15767996975645548,-0.11129780278851029,-0.30540646244367353,-0.14775402934954288,0.10163589091658486,-0.21574840916772609,-0.30127139130973796,0.010074392950846561,0.21179854389078634,0.01716332707915155,0.060994735061796146,-0.05753132802935244,-0.06675994446947868,-0.0036804959811379007,0.047005077554827,0.07866422136708637,-0.003729212885974984,-0.021348233897207983,0.004049319185315766,0.0027758982463294683,-0.06695616325044236,-0.13104079413562672,0.003907598111943337,0.03325915527544366,0.0942986856519362,0.0765799479014146,-0.025627815543604618,0.014537590731971474,-0.004040025299030904,-0.013372801719840266,-0.005444730052314502,0.09110398315207412,0.006667774146495685,-0.028990534839284054,0.014669772434222163,-0.05874268792071004,-0.0024447180049918596,-0.06257168452244687,0.033992643943665794,-0.01724205491627541,0.005140885082449635,0.0040011455763766714,0.030064941587942838,-0.014795125494541352,-0.0522567296423778,0.027998715497612618,-0.00974360844967411,-0.03394683439180429,-0.014784328144074838,0.02467150459954589,0.0976193049236987,-0.04392900104901966,-0.06743961739360334,0.017792382020557204,-0.006674761856684969,0.07569349136158683,0.030388078697370823,-0.00019337758980462593,-0.010530800238496618,0.005958676146482312,-0.025878449323347798,-0.07459030985357187,0.20583801315179218,0.05266382513897237,0.0588717025737219,-0.10529580877764824,-0.3335523374999108,-0.358875170098849,-0.4014732193952813,-0.6446294454764072,0.07468982937553414,0.18491344928378514,0.0022268778406469916,-0.16229312524366452,-0.1751419429414768,-0.27207612391738956,-0.6493368003362752,0.07943888886985041,0.1131569337092786
47.19984817504883,1.0689010620117188,0.09129255459188801,-0.784746305795595,0.036268459960667465,-0.30696766362416117,0.1681131295905661,-0.004373170272526136,0.06453796588428551,-6.242960174110412e-05,0.010305108250516195,0.10550566944247479,-0.012413712341500351,0.31306116165926023,-0.2704973455945628,0.17064058738551355,0.14572877751307728,0.12915832922701698,0.17021490919678103,0.2102760059139007,0.002244741576803427,-0.2805601348893022,-0.44261853547554775,0.10408852575665202,0.09164760816713005,-0.05015814924141171,-0.08139492387400547,-0.06317385948493326,-0.07816877835844659,-0.019733496535525412,0.05976936225494376,0.09077761921775664,-0.0202826859510955,-0.014317428382915234,-0.0023531329992959715,-0.008412912354229649,0.07418344244381242,-0.011947000101166897,-0.028349197558626228,0.03919864048114637,0.03867207446867729,-0.008918899438813707,-0.005248428983089586,0.04966359631633578,0.031438816951699665,0.010587725130745212,0.08854435021881134,0.019785754388361273,-0.008729291366529834,-0.02018429987220091,-0.025863608664609468,0.056231786618764844,0.0004748615503790232,-0.08499317564738834,-0.05142290709561828,-0.06150388710993876,0.039405333804133344,0.08067025366715563,-0.04197129223493036,-0.12125003300594549,0.025913092657966093,-0.02299259336078552,0.07928981867785978,0.027479356632781345,-0.0054769394552281365,0.006856991939107968,0.027074994766472463,0.005204473122425444,0.12247999155128948,0.03975122819615162,-0.07404442279587596,-0.019112662015455847,0.05044542567667169,-0.052313326737992265,-0.019211687136516893,0.07710532595866644,-0.010125193440033431,-0.004053374527656688,0.055808849186905984,-0.013663585501110726,-0.007146072886972381,0.01978617860234469,0.04042125170348009,0.012085213851518804,-0.04674434187890133,0.12018835140826581,-0.13232071670579346,-0.2639082387632065,0.03603285458821505,0.2720215193327761,0.035128618140034255,-0.09770964773666446,-1.1567970823006046,-0.46226664343489676,-0.3812309086175128,-0.9892162125850656,-0.04070957444670787,-0.20203007041560075,0.4562548827854356,-0.46101417890985635,0.6796520256850708,-0.13771462385521627
48.26874923706055,1.1486015319824219,-0.18349015592495987,-0.490286734809476,0.6016667760133896,0.793791229353539,0.4904709807179125,-0.4159110831006802,-0.5855456234352463,0.0513418041696901,0.3727861147571139,-0.0463901321615488,0.09709938558277567,0.46675849138840525,0.405852211534802,0.1349927883247407,-0.08276807764885338,-0.41268376391653694,0.05165030103218565,-0.00955171360844212,0.010790869533588873,0.04168994421170258,0.0646682262130656,-0.08102138243889365,0.32472423147698387,0.40277040249057616,0.14672207949738555,0.03959753762690754,-0.015888614835840514,0.09181330043140748,-0.016887840125511987,-0.05749486019968622,0.05893322779330012,-0.01751412115960914,-0.0019173628216932201,-0.007345063541210545,-0.005361710931529035,-0.006205894744303789,-0.0315324546992069,0.04767529985514826,-0.016562826673123875,0.07797142384434978,-0.016558292420738197,-0.04063309893401272,-0.004138671669504612,0.01701900031145203,0.03675782570147454,-0.01381270147380897,0.011598669003185999,0.02168514951594779,-0.04353066440986481,0.0165389368483835,0.09040828007200337,-0.011465057630732287,0.01672108769394229,-0.05360919447773394,-0.1077472262772016,0.09083656671339904,0.05311721505458368,0.13462074622980266,-0.25615522910047656,0.014267766767373053,0.08052568206161985,0.02891286248977467,0.027865602274987883,-0.009380178885075682,-0.02210924987419677,-0.07135688172432872,0.1005149352877211,-0.05073081589807075,0.06191764906038861,-0.012476985401885653,-0.3250123825156288,-0.018745074375030486,-0.060346812739805744,0.03460268968406425,0.06793869856155008,-0.18913686301887242,0.02102706599875778,-0.01911416107328559,-0.03619117554565572,0.0070129525477579426,-0.02400552829895007,0.08119207507158618,-0.026443720216727043,0.05801892775690162,-0.08282468994337716,-0.009199199927555099,-0.0180382913312941,0.15653370528242203,-0.10400215351621847,-0.24543862047630866,-0.11304407035710588,-0.2898881198452858,-0.2672712434806593,0.3169308732186659,-0.30507112004039794,-0.025857837597237015,-0.057579271295699994,-0.10752352938245978,0.0636999148246924,0.14353515699892203
52.53355026245117,1.0587005615234375,0.4259220956252153,0.10352613969990504,-0.6557436332251346,-0.256234821117692,-0.8384354356226589,0.7735660105101414,0.19473122677927343,-0.16868041542464227,-0.03762920888591037,0.33663728137973137,-0.0758769483261699,0.2742215436387464,0.01613266448265776,-0.07414446107154361,-0.10292412750959903,-0.1769899348416323,0.16861257535363594,-0.1878718094378155,0.00998549143091787,0.08884658126668538,0.044388612098612217,0.03354881106042527,0.015950364904650224,-0.026398173126249883,-0.029289149696641325,0.013829952166873456,-0.019335420877371307,0.043653744672236636,-0.12659933027862,0.03713291077482372,-0.025453145013337744,0.008493335141056105,0.06251664852227143,-0.02321991104830401,0.06785278072713676,-0.017215507765436053,-0.057380573384994644,0.006290529847374977,-0.011424295757571246,0.0034011299429261782,-0.016195855782064027,-0.09176589482782788,-0.008851224280243555,-0.022823877421195817,0.0992300661339828,0.0454390593227708,0.014567292196086202,-0.015547307536122575,0.007629008990083454,-0.016101060424022196,-0.007552538061333339,-0.04739099454789636,-0.015280012234782554,-0.0732114991796112,-0.09464379031941358,0.06756014593615671,0.003558919397703154,0.022707157502100363,-0.018792550397567397,-0.02893334311909112,0.0055814208741532334,-0.011705832771794628,0.007064200321667354,0.03970095442099731,0.043937327271763325,-0.04350170268124014,-0.01758085213368081,-0.04324705716541283,-0.07793761910953312,-0.014650242128740536,0.0509454276963368,0.015963314114583727,-0.041211462123771414,0.04407833754915923,0.04866006456115536,-0.07362359070938804,-0.08122009945621454,0.06311656736085929,0.0058505178106748115,0.0956425516589122,0.040902244977652234,-0.04036303349735671,-0.08508768230517383,-0.053207676623343074,0.11683294227030512,0.11930971894973998,-0.1401058865618043,-0.17246505685174518,-0.38179585781606723,-0.15817770101387604,0.22301487012878934,0.05683613781106072,-0.3613783468089148,0.26627885257855854,0.374141881184619,0.03738125245929619,-0.5907570599157321,-0.702391411042126,0.35854743703978365,-0.17608196931728282
53.59225082397461,1.1292991638183594,-0.007787913708566546,-0.5507627653685633,-0.43226113304537206,0.26325311108753413,0.3577310468845216,-0.9228901818613798,-0.818792200303335,-0.2882276252629242,0.0077626052421309755,-0.02391267771123828,0.21586889086017666,-0.19198826076607356,0.01452820174285338,-0.012793053384755022,0.04888529756743189,-0.06365676989531951,-0.19201578270783973,-0.022019280679972192,0.04052934160472248,-0.019405302040418557,0.009341262552908146,0.0022073829358045475,0.03489915771244508,0.040763707128108756,0.043927580218589744,0.115161342935737,-0.01616872402066372,0.02637004886506654,-0.12941761212433886,-0.012891880064490466,0.025521126843675433,-0.04508041648899965,0.023051780278107503,0.003528164521982755,-0.0447290235782362,0.049089061080271466,-0.018636603460460224,-0.014414143001634627,0.07984439514918744,0.005375223026804135,0.01420643308231244,-0.058839559181744855,-0.005228680755143238,0.02852911210664661,-0.06271061132885677,-0.012277785436563946,0.0522732790219208,0.022393822095862444,0.0022812345955326068,-0.02022741550718947,0.059033721097191114,0.011181455892982403,-0.015586336510684445,-0.005153691699009184,0.0035354810242335943,-0.00784041712493034,-0.033896040550297865,0.04164881355842372,0.026679398313815907,0.02694570397291301,-0.008032474490011503,-0.012555454797282678,0.0763612535052458,0.047190987305489575,-0.0705515303330321,0.019968690041966206,0.0325224237383536,-0.0051346411889289295,-0.020719480288575436,-0.02840294545416093,-0.008622167736305046,-0.012892587088923877,0.04234260575208902,0.02218979744340649,-0.030696134837971213,0.022651110787613556,0.03620456759790233,0.03793829843260683,0.03471759633292038,0.003827199751714755,0.05442348984669029,-0.015527117466577256,-0.010518773560848745,-0.018647883659026275,0.08733054229870427,0.12715144430189287,-0.19783553130814305,0.03860294585031038,-0.06380448289592958,-0.17919714183798008,0.42990841235504634,0.3397755012906786,0.5917045469190386,0.43982398882783763,0.24220704914404617,0.2656283695602677,-0.06501795071078868,0.013646661418238783,0.010350983132134395,-0.4170922532474747
59.01625061035156,1.04949951171875,0.14304104571496506,0.17743582087809487,-0.46744715473727844,0.21457967248773302,0.4684473328790674,-0.36140479442773776,-0.010549724114133432,-0.28552409102939985,0.022581040309454264,0.18611430924763545,0.16631605196836638,-0.34249219840133416,-0.04840332183978122,0.5306286031540732,-0.211496388895594,0.01828007464570615,-0.17870281212739803,-0.030967375364903144,0.04591807334434512,0.05571346199845436,0.05412871292020606,-0.012199341026419404,-0.04359606068550791,-0.07283520703915193,0.02286601964428212,0.03648519459967625,0.15375714639903815,-0.08670818773827207,-0.12423082841396912,-0.043547008978847945,0.0887354169497181,0.0035371514591288336,0.11019436543471028,-0.01055897460966027,0.010320942088554746,-0.02252930166030723,-0.030931215891135955,0.06811429634747375,-0.020794453856612802,0.0117102531459721,0.024805715458844236,0.042312033489396335,0.042083520071213576,0.07723836934859193,0.046308202362896594,0.0705180351142089,0.01922830602775541,-0.009513214933352554,0.10499725417798306,-0.0976394812712022,-0.07551691408331598,-0.03420229531133395,-0.07031224444584998,0.004703677443256922,0.021427577649815566,-0.00842627898339187,-0.07165326268945985,0.11279030322936105,0.032066921846307446,-0.044362944956128164,0.003104894209168989,0.05257848641951856,0.01682751397388914,-0.009229743533032103,-0.040016492102473725,-0.0666282879577852,-0.06776936278745546,0.06389928641026332,0.01824249039139621,0.04283720169259527,-0.021122039242806045,0.013976550631853386,0.06028311156365817,0.07061175617674242,-0.06581737185508152,0.005450998144035626,-0.014115328945678435,-0.025214790362113132,-0.02782941756697903,-0.008876789291525989,0.10891387419682418,-0.017852339116183454,0.0016277661189327969,-0.02428768452671374,-0.1860915748451607,0.08909825292994727,0.02529109735155369,-0.13257082223521155,-0.3951124306488759,0.413454824494772,0.0452242602022768,0.21231585779683124,-0.3602033556799966,-0.32603634154716277,0.5125750659758022,0.42665596441914994,0.08343403834299573,-0.07208226651506114,-0.2190987653842856,-0.5052452272334998
60.06575012207031,1.0582008361816406,-0.3095943245365649,-0.5996564649697064,-0.5265860443884773,-0.6815033807014066,0.48721356577203645,-0.22144474462870295,0.3601911568786287,0.29156698066905956,0.7288875503480773,0.04170762673909807,-0.2545446016440869,0.27895949788617447,-0.24923519944418288,-0.1670503682099726,0.016969932995026485,-0.1989434802310579,-0.12359911051825678,0.19722905802872934,-0.28697033468743294,0.026605907404713906,0.08318989426415771,0.250829230694656,-0.2504264624296109,0.1379998745287398,-0.6253681428430014,0.09773510618110375,0.3211799826079713,-0.07674700011494617,0.1634403321697604,-0.13244453635807857,-0.09404061462509551,0.06789304783256533,0.2784455648365984,0.14892117570855834,-0.2516278368088994,-0.0069644582954057135,0.013725388585339303,-0.15042078594346073,-0.2479428061883294,0.0887917252483842,-0.09024917607120535,-0.1518957133586421,-0.00698113537176411,-0.21163082007454076,-0.1274259599200013,0.0626753711735779,0.16917605247239592,0.016879677089405753,0.030546167143179818,0.030163600572851976,-0.08831729614006537,0.002300491332357833,-0.008067306130194962,0.08349759754934365,0.009724808467307005,0.10300439517877673,0.009671708049227576,-0.14981262023194455,-0.029258365771614125,-0.06228993942340271,-0.04023415113223467,-0.02848157119289517,-0.007752058122525225,0.048351781267332035,-0.08120794720160099,0.0035443827147020623,-0.05847957385313852,-0.015629484663969687,-0.005444739206385621,-0.004240771169660963,0.03394251085867858,-0.038244793758296015,-0.0013164385099720816,-0.04195140968844998,0.06851470639096116,0.09387655167725575,-0.1310279566632652,-0.02555297324486635,0.02360051726530039,-0.007067928036243301,0.028363755686686018,-0.008741161186407893,-0.05165327854005611,-0.10914550060975751,0.2024989466674268,-0.2132641128608025,0.25818965629618634,-0.16816481496466718,0.7292197184616913,0.549894630432918,0.15655889065821368,0.9575848913016277,-0.4968876868472694,0.3195890930927542,1.00883526575812,0.49290079428435196,1.0271058275145992,-0.04968932220585687,-0.22279108762455552,-0.6593098889430651
61.12395095825195,1.2290992736816406,-0.22522740299241384,-0.1666776273995995,-0.694384156324567,0.15769206112071976,-0.0012643003136896189,-0.44908704960397583,-0.19356471560109795,0.09136210846227548,-0.07487501509710262,0.007867840505254402,-0.08531923558502699,0.0089739325534661,-0.039969133164263496,-0.13424229705048274,-0.30313903443058854,0.023058681801306234,0.2307231162069573,-0.13553626775104113,-0.01861082803649588,0.05969783595451518,-0.06418297207338929,-0.09630911879524026,-0.11328063666883811,0.5064411835186013,-0.04696732345770584,-0.2110727199187397,-0.26609001553654316,-0.09104818354780142,0.01827245185950528,0.1116009524074687,0.037786520886725024,0.07962379451876092,-0.0017346285889047741,-0.06721034527776319,0.005344893131556514,0.006017101620960961,0.05341450967590701,-0.010371061050564234,-0.011616126152447427,0.028523730415624848,-0.09387381408792916,-0.027375358585705296,0.018093473816031075,0.011901884303513223,0.018618995382886125,-0.023070995890896704,-0.043721543862290435,-0.04019874280456506,0.03005611550457045,0.040704373570275315,0.1336389762781624,-0.09304414338722396,0.05882772885896709,-0.27375892810210317,0.04659291211463224,0.02647148092899058,-0.05512409680666483,0.0660827861493564,-0.06769603795452919,0.016489433698632962,-0.0010143155400641236,-0.07761790721275583,-0.013184580311906011,-0.052798794748046385,0.006385371168056776,-0.008132558356771614,0.05528379200786765,-0.027354684641020626,-0.020874628941897212,-0.047213397300514964,0.04656247145788074,-0.02379671024607434,0.10825060859178469,0.0767717558870046,-0.03588592011269348,0.09565660309175142,-0.023239952325287427,0.14233657370307112,0.0233174120449364,0.04873692903553481,0.0994969388815178,0.0557639353696498,-0.10371629132026074,0.06110395851819827,0.20858029871939987,0.13942367641799405,-0.11248095253587284,-0.033184956377144595,-0.029642113612200358,0.5701160103829442,0.45389197089635164,-0.17519466149733334,-0.1851797060055392,-0.07657113582062804,-0.39804021131543377,0.9210036831750419,0.10724635386859122,-0.30997514484028416,0.034297081069267876,0.010334248990167785
65.39945220947266,1.0387954711914062,0.04793492045057757,0.046026262447349545,0.1564836994580187,0.04308037527685543,0.3200799840756333,0.2601202349853351,-0.07401303362767328,0.3917004136453089,-0.15957450694772296,-0.019695356943537808,0.5032583344657389,0.00934779923835495,0.4412170086413285,0.14712908109722717,-0.016085097990626247,-0.039484558454461596,0.1588171944454628,-0.002631718358923313,0.041519012168830506,-0.026093297179894694,-0.036059737713936106,0.12558892170968713,0.4179597325163347,-0.33524362007780045,0.6153714404167818,0.14769907396044024,0.16751815553198499,0.11742313023587625,-0.16621408703633278,-0.11713693827293394,0.050157370380993944,0.2039250734560924,0.2519514609303579,-0.028876098706063696,0.18850145883686859,0.13607990994073332,-0.11109386169016955,-0.12951405038004488,-0.3018255834349674,0.017310121002755058,0.07392555316264143,0.34402089135464314,0.31064768397834824,0.01020242937227926,-0.078151856574084,-0.08114852590865573,-0.07413129248993436,0.003117550757258017,-0.03542192521328749,-0.00276979269758725,-0.010364878558976139,-0.016267141145645002,0.010363431652906187,0.00027305227479918837,0.019638906689573424,0.02288206745315435,0.03713761502111967,0.001663913363606384,0.052845330346625655,-0.010044203037526848,-0.08199436582503006,-0.04062435569126528,0.06721882545965666,-0.005100251189392538,-0.011525227344511814,0.06725594060868946,-0.049595515208049896,-0.036271089557487465,0.03320669340850091,0.07534757066820853,-0.013778085020692877,0.028963588382945507,0.03177570687720844,-0.011184153192656155,-0.027276616854576462,-0.016365588801247367,0.0007497098316399525,-0.0799680809155145,-0.033628897197482216,-0.05598967436662846,-0.07499819280263169,0.029656943550419035,-0.0353220261027823,0.156292915992859,0.2297234441244459,-0.33612897656150953,-0.29105832692103933,-0.11344351255368042,-0.2750539948255051,-0.3688691526322244,-0.18766450717422645,0.015803147823598,0.2371041682347632,0.5856985994667356,0.8532049973689722,0.19917429970939385,0.5947891057874557,0.8799922985337317,-0.12410720944996512,0.06152918430695202
66.43824768066406,1.0889053344726562,0.07033919627959212,-0.22143363798648538,-0.3099175619347785,0.09261396896416957,0.8152136093460352,0.5367805061056985,-0.4459858140919344,-0.22460407608976907,0.13108299931511003,0.038140122314564956,-0.26496842714403473,-0.09637631878944869,0.25504740472663245,0.12288935816152813,0.026002460848341416,-0.5762911315009931,0.04971382994496091,-0.49177961937708825,0.11557536463843564,-0.36170330457764976,0.023371606549781664,0.08062276869805143,0.17829180177738355,0.3278411514293485,0.24337946104952174,0.28754460768845386,0.908092414945407,0.1983956955301528,0.19097048738790492,-0.13833989964082283,-0.04697255574798044,0.870700230367683,0.32794296757758623,-0.36157416624890726,0.753005096086476,0.5983186257199948,0.5387591697529941,0.054202238220515946,-0.004620053788634768,0.22748642383136064,-0.06892928661952308,-0.045707568623612436,-0.20423137443497544,-0.39069898958369387,0.005845150108554893,-0.06095102472059172,-0.05498881030567563,-0.06770007361802644,-0.004608327660221562,0.024015974974426767,-0.04179948855908269,0.0625220341650468,0.11983997204784488,-0.03899753479317529,0.07000509603650153,-0.0684064509724988,-0.05092352892268286,0.03469973574877808,0.04604047117490704,0.00509816355214792,-0.01837085317144005,0.0678366148383392,-0.029758908014793292,-0.01118798993428805,0.019557370679130555,-0.00724223601839745,-0.050722367945722886,0.0010173609740140115,-0.010933526060973354,0.011522931004004103,-0.019280815768349738,0.0446818943677124,0.049579788719280496,0.0038867423209819904,-0.016718591722923393,0.055722448416922206,0.008564017611363155,0.07182196970721462,-0.006974881061063098,-0.0924613593293186,-0.04203981047320081,-0.033426483820656064,0.1341680741694527,0.2656679073205508,-0.43659128803510905,-0.11827311997004883,0.0844123592987093,-0.1820355113836153,0.6371164527118457,0.5317178724549008,-0.06267052349046386,0.21027143668210607,0.6779837273078533,-0.16442968505226635,-0.03558844710940931,-0.20482722892319027,0.670400919302375,0.20728363581504972,0.08659290333751715,-0.11648451880077672
67.52715301513672,1.05889892578125,0.02058622110035995,-0.49576229852506987,-0.9528591323719131,-0.062299460060892174,0.33778429328222387,0.44885147147237653,0.7254084739328341,0.4237335463351862,-0.04063773861019454,0.2181105508498976,0.04971680244908529,0.04398527604092682,-0.031860966163561134,-0.005909643860812157,-0.16259650863357172,-0.024819933237827062,-0.12034195364915094,-0.20101416357132074,0.040732191480738006,-0.030971939623685128,0.17113770219258567,0.045876958361924805,-0.10181578838115816,-0.05337869872023296,-0.013658303666594977,-0.038560620574996325,-0.02465982657563471,0.34927258297403474,-0.07405470625704172,-0.9612386982492878,0.13030192814229233,0.1133396810616525,0.5750747834838617,-0.2071537905136884,-0.2776937735013413,-0.2972172653997086,-0.018362979915462825,-0.07937700893247844,0.18524465467515927,0.32891933112867605,0.27855662182801516,-0.27349901578372426,-0.04209602459606035,0.06987494804091704,-0.15030323707542562,0.36998349169275424,0.24558149094526432,0.051389968123369184,-0.3945489768175149,-0.00563945954408468,0.0454222355131953,0.0021381720758083377,0.008435058448496027,-0.023268673149246234,0.019736250260656066,0.05492327782398689,-0.11024623181523506,-0.01922489897954724,-0.006924332607943056,-0.013627336089306455,-0.006896725005266159,0.005096751987554252,-0.04026817970527622,0.058507282583539016,-0.0271981243931672,-0.00494153237470283,0.03324091232432743,-0.025991703998094237,0.01898252164537069,0.030332918890793273,-0.04765951514517179,0.004407607088925706,-0.06496415204458286,-0.059312589106568545,-0.17524703151175652,0.029562241119421476,-0.06179535483468148,-0.09338552456878521,0.021850575776370056,0.12158686495456318,0.08905389117080735,0.2393838338462076,-0.17163887444225948,-0.11962722263117914,0.23692373439318526,0.30962271055527146,0.27115064995547905,0.27764321633714517,-0.020166265378805774,0.032496514498223716,-0.44180510223089936,-0.2490932289275572,0.22496386536511295,-0.12925259133422196,-0.3371139422488502,0.33101282390395714,0.10599173875237225,-0.1350053736219773,-0.07258841029181723,0.37361454563562535
71.73255157470703,1.0384979248046875,-0.040189076249516814,-0.042226140297063064,-0.07562592397291198,-0.5590263774079526,0.06960187169107199,0.6950207177460243,0.07582692002658668,0.5957289109654601,0.29837924010047046,-0.5520727361250191,0.11382756005139325,0.17204485537506012,-0.5935921629224105,-0.16346877886381794,0.36271740615578457,-0.19407220953624985,0.2542646607403424,-0.08329879834042525,-0.011546573992073275,-0.03270381220411049,-0.049214822268389635,-0.07401704832870742,0.041609142758321865,-0.022433432105661535,0.07119839408153358,-0.18371245131678055,-0.1967506814814985,0.9810459031001891,-0.8539915536014354,-0.6376502293575163,0.2949935479131123,-0.873617761511708,0.11579392251050132,0.7595454788498059,0.5826831322268121,0.4811761907411275,0.7581133735225817,0.06210107646897759,-0.2864301218476295,-0.19156392921515641,-0.3721751268378586,0.0780912320494819,-0.2443890276742168,-0.6132131294434382,-0.908754288222882,-0.241936877456762,-0.007281662515335546,0.19857546475756088,0.2239512034613778,-0.04828044544827925,-0.029375224198622783,0.042650015340511736,-0.010365590531992517,0.011911289549619626,-0.03304322027619974,-0.034289858534125923,0.05617735040360499,-0.045038762018842604,0.01188484013362022,-0.006095751058510216,-0.11545640725225093,0.008124721164528581,0.036654001620897395,-0.03672656204158918,-0.0805796383781736,-0.051712451304305566,0.012866730684898443,0.021944417238175255,-0.010272001542797966,-0.0396764910015687,-0.022661415576663412,0.01169710002239141,-0.005909748211029962,0.02001139498594509,-0.030148113167400434,-0.001947435958767462,0.004126899734585017,-0.004433428139895147,0.0014877481546746434,0.052382678220103104,-0.004847572825053175,-0.10906545783407219,0.04958994369783258,0.28559525194015767,0.05864636040250991,-0.006679359666115048,-0.15605338025578858,0.12761247522885855,-0.07891187642735371,-0.9491069129851062,0.07634526662080518,0.6330428012150209,0.038274447325662986,0.09486140049827053,-0.2098039853279137,0.2395927581111959,-0.09995371176496862,-0.4731000855542334,0.5018790466481772,-0.16783609943558386
72.77104949951172,1.1285018920898438,-0.09764755440649514,0.3458055206173993,-0.49965577497667685,0.37770916331879223,0.043046467260070276,-0.6685610041389283,-0.05096036746071739,-0.24863408090330258,0.1034037958282961,0.20565508291422654,-0.23104043290352638,-0.19333566043338882,-0.513726441610311,-0.034077556250342526,0.20317450745860136,-0.04862327060969995,0.024984216336140532,-0.005530614123455535,0.06265588728160627,0.02199543744764225,0.1842846283748165,0.011591525779389962,0.6352589774730176,0.24921082805392578,-0.9285773838309065,0.27171489115840153,-0.006159014453746323,0.17674436661309886,-0.0458909893821505,0.23487695687312918,0.29765921120771505,-0.14718078190218437,0.14601461689929207,0.00624880294394323,0.02263661040653131,-0.008085280860075173,0.016400874869682818,0.10175377706265575,0.2978417873055953,0.04203313520910338,-0.09842588924328383,0.07828337991314219,0.09388053266298328,0.06486178048164602,-0.14036596856360753,-0.030964690098039177,0.06320381854456542,-0.02764427507606098,0.09912092390936647,-0.005367268888730667,0.007062749458268486,0.15790319014693835,-0.12272473030601651,0.021269966147716937,0.09362937801077391,-0.30325111199284877,0.043307722457850056,0.15343030386007617,0.0050845207822311075,-0.028291448522018404,-0.0728422516343444,0.04729634273752244,0.03235218590640049,0.017219668713028578,-0.0149948254961981,-0.059410669169942865,0.026893160056565127,-0.0013791891163733986,-0.04703193061253975,-0.034506449040004966,-0.014224332291830177,-0.03700428363152361,-0.04252398384717731,-0.11033487161815325,-0.028795249054045846,0.0381782562139565,-0.020078704733366176,0.10211845223950868,0.08189735155950895,-0.038933595546651656,0.0024230307012547037,0.03233743469007361,0.10366515090834202,-0.04368096158278212,0.20991877311647972,0.1555664008559568,-0.09318213522375635,-0.068872550452304,-0.04356678117843784,0.09425296464589533,-0.029260650908513514,0.5028728442821974,0.6494272924261406,0.05772711363866462,0.2375346689928869,-0.12644865448646644,0.24871744426539147,0.879040524140011,0.37424331045878334,-0.1604345810911159
73.89955139160156,1.1291961669921875,-0.20189459635977308,-0.636400510523564,-0.5107677318697911,0.11802109779522607,0.28869387199666285,0.06959921948992817,0.020192933146972118,-0.06514137552481214,-0.0902167498073833,-0.22592883720345508,-0.23350117091200426,-0.2742876409691414,0.028018545930121094,-0.1293808860782215,-0.004219523603882243,0.10253372862071033,0.18045177760710593,-0.07926280002458379,-0.0489618430040156,0.025691431429401217,0.06995147465211118,0.2619422196940981,0.18485889540686667,-0.12153510316523507,0.01108172908499591,0.05162849994422772,-0.043762666764968025,0.28577021733329355,0.018718006581254033,0.09371209001940829,-0.2771854854626581,-0.9164683667049165,-0.0842445762855133,0.20669875968468532,0.09527836642849792,-0.4823182821064734,-0.07322858722655574,-0.11195109223896477,-0.11154801645600457,0.1244289771953199,-0.17283947643579195,-0.24359975937662082,0.15840291891945096,0.1955553401267425,0.017913452401945997,-0.051080815389527974,-0.13388456191918702,-0.0043539400564528916,0.09853454574922346,0.1270664505561315,-0.051616150167399275,-0.08124226229160847,0.02470920762587106,-0.035489449118856195,0.016818975141435974,0.057405344191978194,0.04255425007386993,0.043826043105196645,-0.018101342331987763,0.003946172109135865,0.07288192125279706,-0.013696277170053464,-0.038560759681826554,-0.051920687257512754,-0.1524929293950598,0.022615617518187726,0.005183438608292125,-0.15196045396425076,-0.09130315064159161,0.03394532599784671,0.019569801541219053,0.17720265932687046,0.1923656767697636,0.010008246458263453,0.014479005707946057,0.06198193417158394,-0.033831325914523334,0.023720458543277013,-0.08341857690032085,0.019823476151104677,0.12245729273278427,-0.19107173670523192,-0.21282224829867885,-0.006690809624991759,0.08715176494414485,0.148277780044936,-0.08231169948460479,0.07025803971954978,0.2139860169309695,-0.07849167275784807,0.014601354541208741,0.06993019293597055,-0.10485104061152604,0.08189788723747776,-0.019342522604114478,0.08870763338994384,0.0508790157024202,0.19951454515036215,-0.17389742792450247,-0.18592981644876755
75.02874755859375,1.078704833984375,-0.13551532528758886,-0.22462004894276422,-1.1734976055528548,0.2645829637544106,0.0354863412618682,0.4639753775080002,0.10229762984043426,0.0016009582645578647,-0.01054124155860445,-0.058547028926618436,-0.017295657701440644,-0.006173839177664231,0.13827066887260087,-0.13948287845860496,0.030699324009967093,0.08144491336790954,-0.10655549001039386,0.07710103003091939,-0.051354579636586614,-0.04733663556933782,-0.07331349792974817,0.08637110109251911,0.17019064237465917,0.018964236069834023,0.005069098030103136,0.09601716717403277,0.2229468815265201,0.0037264516639658836,-0.016693040132432918,-0.026941724009477388,0.027873340510318066,-0.17095288163067598,0.022865540644691335,0.014905235239201162,-0.030063387115076508,0.013448073205760044,0.0012530361205473407,-0.08316560084498711,0.3159925740558356,0.0698076027785821,0.039380825981075555,0.13702767108295127,-0.03813147053669995,-0.0003199532095750843,-0.42369346689258724,-0.44764961660128266,0.05118223247536603,-0.4525520498231539,-0.23404238251309156,-0.032817960538748324,0.07744728052926583,0.10873440852607442,-0.021798045494761872,0.020817537688529515,0.04261420770783472,-0.03077057727856023,0.18597855659974427,0.13488897639691216,0.04763736591523138,-0.02900223963632675,-0.023797297323531308,-0.017255948522044862,0.04578157043430958,0.03322889364977901,-0.0076300054985777785,-0.02946382664662194,-0.08061580931031845,0.01625846651566324,0.0486524383097959,0.07822986277230988,0.06226879330742561,0.11097696595929886,-0.06582312768783181,-0.09606452612130688,-0.012220296459223463,0.046693959369655966,-0.07747811957005465,0.12695205880264515,-0.0848028878247424,-0.004927883281477889,0.03475270193550565,-0.03601870393659907,0.013855184066812323,-0.06120526920303517,-0.05158200944614884,-0.09375996868838071,0.04989041455720568,-0.16343339913178595,0.28475525212060177,0.731112644874806,0.06719100824102923,0.18059811560598982,-0.24928888616031794,0.0822636681849827,0.3877039267771452,-0.28999082352139605,0.45260275360047114,0.3043287864605636,-0.07698530737520749,0.0879384839322776
76.10745239257812,1.0186996459960938,0.1154973894611406,0.6378178672718554,0.3159950826696766,-0.7171223405641882,0.5424717842338567,0.16163620507371942,-0.2032221682104835,0.9274765767947337,-0.12108092745588464,0.970442857585877,0.7431221900598932,-0.23642255349376942,0.7929845167955744,-0.08897963996746944,0.20498382981685007,-0.28645694387146403,-0.08303564021179394,-0.10291299308330154,0.09141924366277264,-0.022285640125658923,-0.021564175797880447,-0.08376963059667838,0.14772804294721215,-0.13102878229637366,-0.1250141146488365,0.18586800370469025,-0.41133956115821807,-0.062212829550125845,-0.025856943161851526,-0.08408983367577197,-0.14775542264250932,-0.05193684669506392,-0.05785960502891534,-0.06016624467598118,-0.017298375511606668,-0.48082802399872293,-0.018730702246124723,-0.29049945000734995,-0.015154935803486735,0.14917340084995082,-0.26401759370952765,0.08758462276210072,-0.025162870310452137,0.08602483700624129,-0.027593513998498003,-0.11806636034543094,0.06444398115259746,-0.14770003244069696,0.07403455407286154,0.04687207109982487,-0.07561442835223721,0.0021596956068038226,-0.0348231138549939,-0.04163329352429916,-0.016816147414935447,-0.014758833229364398,-0.005857439395417153,-0.004473251179293383,0.008719729743318154,-0.04392865780437723,0.0034849792430459202,0.10568164407000605,0.013032422298872845,-0.028100348281609497,-0.06596908709800238,-0.045996191596130394,0.02709181639709432,0.006478530501248234,0.004276463041212244,0.007501243673152511,-0.03779781978239927,0.01688965784264621,0.09833153182252621,-0.0960606023979001,-0.03556475259813366,0.007288280334758323,0.016140804367082352,0.022856442047128403,-0.06071613104451265,-0.005029409047175155,-0.0032882145356745943,-0.0887403952085766,0.031193934206076468,0.07164755109549781,-0.17438026763558873,-0.06705390985422112,0.4211299302187301,0.05085191916583287,0.022205850073985855,0.019584146893735693,-1.807313461954532,-1.821904462155067,0.11585325321348153,1.2898445335579802,0.5135432705482394,-0.3233393481551018,0.385515833189444,-0.27707411677570287,-0.5350073560399795,0.13079139983551574
77.12615203857422,1.0290985107421875,0.2699974706002181,1.0049978511713737,0.2200036685610618,-0.3792077428228172,0.444119743549235,-0.353576633423198,0.32532628341719955,0.020268586354182938,0.0021891280713945693,-0.06025564100995702,0.20916866765579595,-0.14526996890356633,0.4469139751026923,-0.023599648472241844,-0.12777134080120894,0.1447116785755028,-0.12579243596522574,-0.2880760489290622,0.030200829567285183,0.06469712554812343,0.004329243969740203,0.052761463821464946,-0.0028570253900731383,0.004693319778460436,0.057773561896924314,0.1195441704048575,-0.025796136807585975,0.16073367395511584,0.011133478697520509,0.040552325134175116,-0.010017638571359878,-0.00025267035288648477,0.05354365308469284,0.0229631247832153,-0.02188104154927502,-0.034526491746552215,0.09609027886441765,0.0025358957000351286,-0.0129659284865934,-0.03930875660415873,0.07299965293736863,-0.04291909351044791,-0.08644702068686268,0.01444541343244906,0.0019004142072302373,-0.033152467671357794,-0.20427814288952792,0.033419489814566314,0.011217073739850968,0.0005494989751930372,-0.046825445576255724,-0.08003166837259768,0.038937227819884165,-0.0010305135681871562,0.02229439860739743,0.033551179325193164,0.019632790757840773,0.08648505603809922,-0.08957304651493996,0.018555722523672036,0.01953955042918191,0.028987650273186078,-0.04972377692679212,-0.005920143491763567,0.05315180554695963,0.0008287033708561462,0.0049966361479572285,-0.03391740297984641,0.05051894557894245,-0.04407303105068617,0.005279663559412499,0.01036645570547684,0.04425117475416856,0.01759165259550467,-0.006600071123545534,0.021101211906326287,0.010123455110030929,-0.00394853679046211,0.001391452759882954,0.07117738939259943,0.03750452435560172,-0.06731192265703771,-0.02263114223031116,-0.08339174123337151,0.016219307294373392,0.32224590980431583,0.5693523532204261,0.0047762252323030234,-0.04638977506608469,0.5949392981811983,-0.2836069577790275,-0.15472239350462086,-0.27923456497350274,0.11249462482875605,0.3325797963253856,0.17226271972678456,0.23621162299228565,0.5435637369597145,-0.17822573051708493,0.053333631773378784
78.1552505493164,1.07879638671875,-0.08340220747753332,-0.236677427168817,-0.6057969621125441,-0.1533161389095623,0.15772483766369993,0.13699201398520613,0.20498976868199884,-0.20003144197913345,0.18347243424432624,0.14888222080078684,-0.123512040595876,0.7602187566021456,0.38830698280220144,-0.2283863437839192,0.14412851089148243,-0.35400599452382986,0.18068621637718255,0.28593077860901667,-0.03778046955442112,0.21925829008915,0.15914779913830956,0.3472659982672153,-0.2052048266420751,0.47934409317703497,0.25895405858392967,0.5764576931714064,0.8624179985778645,-0.45384296165635585,-0.004340155859228171,0.15580409015852184,-0.05721706986859751,-0.012130820727890582,-0.043370434224402454,0.10877425681402095,-0.040546162579638285,-0.19757824347300917,0.1862883900619037,-0.022955091080195063,0.035155403138948604,-0.05024430989260447,-0.04130836638236437,-0.06790728147371417,-0.14682185801707073,-0.022042455853500315,0.06104132025925656,-0.017865455563633423,-0.011159400034924516,0.00039103849134730683,0.03597744429676686,-0.09864258636579741,0.029852805434802576,-0.01330730417625548,-0.056550777265711685,-0.09038083399239076,-0.023560333255681392,0.0835651336060872,0.056538524035526276,-0.031632681086340764,-0.009177090004192603,0.11200971269814497,-0.04211831455264972,-0.04155084400748496,0.0026671516421005043,-0.04772719371082232,-0.088853966174669,0.052950609666877806,-0.01954373772420497,-0.04978229803522856,-0.04290297739081305,-0.02410401566403346,-0.04204905778593667,0.0062715581314230166,0.04080190060252627,-0.0844415137828674,-0.009202204033960538,-0.04917870263733238,-0.020515209565916306,-0.008114934815908624,-0.06287827747418204,0.019676142618917553,-0.015851874585295096,0.039983949830608226,0.04413325575450283,0.0580752088249537,-0.09280637087442356,0.21624616989149026,-0.45999236341823285,-0.31382409369778247,0.2678914113550003,0.23404479350675805,-0.17512499658934325,0.09592543673844918,0.206766257456463,0.43773387232732086,0.19164215474527502,-0.4759072520059053,0.10202114442666732,0.6861639743228797,0.009108354693848048,0.11534365534136137
79.23404693603516,1.0987014770507812,0.2604436260945013,-0.3047598570719352,-0.9919691080243047,-0.6461488220567956,-0.6240785389134521,-0.5458500505455975,0.1932138203038598,0.24787519936564908,0.07342261227280378,-0.10600650794287601,-0.10616563947319199,-0.358481541619443,-0.05270555567056201,0.0042068487252288,-0.22567643556750305,1.0962744909754352,-0.10460034110399292,-0.051092735435782605,-0.0479018099709371,0.10570945124737395,-0.0384416332553492,-0.0831354194235997,-0.07302557942037399,0.5329047841683633,0.1615526030113104,0.07017816708041053,-0.05376370063648532,-0.03465578839394945,0.09885442743873368,-0.04670567771009523,0.06729352605239605,-0.011162469789851723,-0.03377718318116559,-0.01903671070455055,-0.03364378896394094,-0.015262681156826023,0.032877413766103473,0.024701092860854087,0.010729611709842263,-0.025173991247442906,0.09682385605397135,0.09958789113164791,-0.03524150088823084,-0.007885514235914312,-0.1786499655405906,0.01238229637456819,-0.0396182867347852,-0.008252712124568745,-0.014475212358722497,0.014312534479208367,0.003968928870341728,0.02341582239242149,-0.048894681215182784,0.026137047733374316,0.04407413808727994,-0.060644506806545456,-0.03670576223697587,-8.631859860773212e-05,0.03862984768376168,0.014138032519999448,0.00294437306941604,0.011157953703853824,0.006449187524970392,-0.0016623979453811641,0.021817495608403518,-0.012813280542274241,-0.07955787484715039,0.02109571480339488,-0.007012997812751136,-0.011393771051066799,-0.011969583233315116,0.06086756811520198,-0.041411707341103346,-0.0387983604148488,0.09746677737687645,-0.012270994084755273,0.02593935159036361,-0.01833289429253568,0.07557335318493431,0.05528855555272937,-0.024861111668951334,0.09810571890107676,0.0211906308067958,-0.02891889157828692,0.2223806262517992,-0.048573350364549905,-0.11655397381636709,-0.22942732291862156,0.19320050558248586,0.1086326866488577,-0.26253934504318743,-0.4294962445338554,0.33063159986162277,0.27027264419547264,0.08307725476877648,0.01650146958587942,0.31166767337105894,-0.5570750336128016,-0.8748136558593901,-0.1704172274029867
83.46935272216797,1.0386962890625,0.18114447459319039,-0.5662381821968981,0.3168141018812928,0.052004713014044114,-0.1436476556386553,0.38687769062472355,-0.26714691873743185,0.01994889766280744,-0.1708563911436012,-0.20427887209000825,-0.545979656868977,0.182493935175052,-0.7543741322458507,-0.31253325369467444,0.08630679615344816,-0.19211691650615748,-0.16099741166088713,-0.039383487782863456,0.014567451613694004,-0.021275942955474223,0.16530796140208887,0.32554578643261506,-0.09619279127855748,-0.319703646638968,0.23997241064580396,0.27416494711657974,0.12304022286132736,-0.06578265299830362,-0.025559978344745972,-0.5791630120589233,0.10144973627318421,0.08352418455777902,0.05252718827876774,-0.04814294256532643,-0.08572303186174915,0.027095210924941663,-0.031277162292352556,-0.04311810525080466,-0.2827432428998824,-0.16321664090286916,-0.2563340282819046,-0.16313179007215733,-0.15548757381925374,0.012466179745382014,0.08432292229173323,0.012124477333960345,0.024192853387448254,-0.02275309609922683,-0.006264186198765287,0.13915875715928988,0.02788094534120078,-0.08260329318099302,0.05311481513531613,-0.007047893702266909,0.00800863625509296,0.07283950223964,0.021595190660308267,0.0533911266579596,0.00976153739175477,-0.01666212408074272,-0.06524704070467581,0.03019705772394001,0.016265069027286975,0.02847822072544498,-0.020234307546877925,0.006280408512189555,-0.033408166984189386,0.017745813638699044,-0.06914509895605495,0.03081906516564975,0.034319080817365795,-0.06877001178633982,0.0047704061869912745,0.03696057554795898,0.039310657948660295,0.08968480395425164,-0.08607318436732134,0.007943244075722227,0.017116779490570957,-0.03644868458329219,0.03723024883081181,0.048477574557359945,-0.019459995739235424,0.08118612939755603,0.034757601532840604,-0.01885096516377955,0.3432850741168251,0.40187029144372016,0.09934230203971553,0.2741557828084066,0.10965423852469092,-0.6852241133016089,-1.0915226756135483,0.5290958494320677,1.0015697311317786,-0.5901661670258439,-0.13206434201342365,0.3626116431393849,-0.4771478084451386,0.6119500837159985
84.50804901123047,1.0789031982421875,0.2607645578983754,0.1771938719061907,-0.4839603026852886,-1.4218680374478736,0.5493926148851549,0.0370457214358723,0.0324682436944292,0.01884773567918887,0.2468182885924337,0.08418573536837959,0.20829460608540068,0.3437817489433394,0.24953054645836376,0.0652802226769162,0.11681624538892116,0.16716884662415546,0.06951728191087149,0.10601659212205197,0.15933985654604463,-0.05756672160185762,-0.06085240347053873,0.024086943198920227,0.01641563288308679,-0.048837998154410256,0.002814269305923381,0.13067222356163796,0.13550430058157362,-0.03899229471909646,-0.3050915897779883,0.14188330659218348,0.41712962186929575,1.1399014856046705,-0.15163138922120656,-1.1002017921423002,0.19826910968474992,0.330823231321676,0.13775130357314602,-0.12675181192937165,-0.28677575273354455,-0.09565073362196867,-0.031373926223645675,0.16326826125479205,0.08670628945423109,0.15488412996890175,-0.006564391219411766,0.2411391532578727,-0.009974308325070375,-0.014238272219509334,-0.07553437707608616,0.0141617864217324,0.037166218775001245,0.03706034231764388,-0.009152379101726192,0.0206273528649403,0.10381444992940006,-0.054357833139687436,0.038013448235977486,0.002764049220994373,0.011681920843181738,0.00773954479432115,0.0018664389224121363,-0.03357968021300387,-0.02291383527942253,-0.04640044212463672,0.03414227205934878,0.03139619263565274,0.04484170231594142,-0.031003643038035555,-0.13115019695229688,-0.01157012345719882,0.027230233154669114,0.005569380314570995,0.060396075618781894,0.018572319118313748,0.05000365934610981,-0.016393195466003707,-0.024694593428536478,0.03456980189445366,0.028266670913860616,0.05982537301092104,-0.014774042721642872,-0.004990790793305625,0.18898403147119164,-0.15537247627817719,-0.08954657773329093,0.03153284001057382,-0.39864750265796656,-0.5440319637871521,0.255646669295106,0.14820513616205985,0.21284482656018266,-0.1518976797327528,0.2017717024958988,0.7631689192730973,-0.75350669593075,-1.27339780101863,0.37517032099497016,-0.03891848038689824,0.6373511378364973,-0.20731071631051934
85.58695220947266,1.0880966186523438,-0.33625742155763927,-0.8377889537828878,0.35557147166360026,-0.08953919095486162,-0.22029459895561154,-0.34993967123340974,0.44075681585767834,0.4270956642303613,-0.06433195482680068,0.09472768905448122,0.16683315532221132,0.10139239231554337,-0.4380091802681825,-0.4214441673588158,-0.05298786094198572,0.18209923893716634,0.12153926168381161,0.07694515622194274,0.44930180599774716,-0.02739145516470111,0.04830864836013009,-0.039356006329298324,-0.011302071294166799,0.0721709744788328,-0.09274167956929197,0.046958055870651425,0.005695890029184067,-0.6012934446231875,0.022418464313116622,0.07420673789362266,-0.0033758759422275646,-0.05520398669529282,0.1314686567270132,0.06045452348264258,-0.04728897798840769,-0.009839365104345445,-0.011354847019004067,-0.10761145301884976,-0.033435767691219996,0.03401347558453667,0.10097688259087718,-0.009260861974137108,0.00386014446740765,-0.028975104787887503,-0.035881074409035284,0.016864653277261093,0.03150291689428984,-0.06810339488836675,0.003877005261414841,0.07530511159522607,0.03343588722587274,0.037867146256254224,-0.10503929917963699,0.004624826030440768,0.03302187789723682,-0.008039024287758604,-0.043051729317443506,-0.00793276073422693,-0.0502441039031087,0.0007913708918007723,-0.001074394186312968,0.07400273550903722,0.09771726456210988,-0.030509890478700938,-0.02118570498263042,0.010328863187456128,0.039399746784815406,0.03244175473621921,-0.026674921389026232,-0.03492581113472273,-0.029457599150881607,-0.004975465724520145,0.024035469714283077,-0.022446959522122552,0.02748119381723778,-0.04960942790935883,-0.012534829191185298,-0.08333403527903353,-0.0213158099080987,0.06715234056754038,-0.07529240442298718,0.03542515278507194,-0.03466391327024171,0.08628022404102662,0.1752826790863037,-0.06009836074231195,0.13381430353590554,0.2515455640757998,-0.516794601241922,-0.3641090065311536,0.5403810328951728,0.04790381280820175,0.38551225639025594,0.1856756855689058,-0.7115947215391071,0.10652531154908376,0.2171852601677526,0.30067844894273055,-0.021912792235155104,0.0002986439220684853
86.675048828125,1.1191024780273438,0.13143730089815195,0.18995435324701868,0.09212342596579298,0.5964077284616032,0.20902404751562798,-0.319155778612856,-1.1991178642888465,0.1449244924076849,-0.09199382092738305,0.06322623336585428,0.016212477031815414,0.06418192639550771,-0.1812302212956063,0.040692498077981906,-0.12937135349251783,0.29551661850905747,0.0312961775174816,-0.1383970197615992,0.020349027214662904,0.012998586290739198,0.02996334830440502,-0.06269471372359692,-0.0006442438429348888,0.5950961082925091,0.21748303664416777,0.3554925541118551,-0.0013519017981371562,0.013667898809418896,-0.20871188777886898,0.08925162196640628,0.854934447844354,0.26669815957113374,-0.16568142381759127,0.0501602786044239,0.22749562618500824,0.18939883754997228,0.5559080643752137,-0.025545632914753362,-0.12597261422654302,0.11533124961089088,-0.058604930489413246,-0.005480625861386745,0.04688883619787419,-0.05833918090275602,-0.06660405197807852,0.15241518718613806,0.13196227019774895,-0.07034055695513314,-0.026805813973637616,0.026524879301392246,-0.022034727779885827,0.09255855799895776,0.01731986075395442,0.09331762005742934,0.014783204355780984,-0.15660340296938116,-0.016537424597941913,0.014404599167410277,-0.020599405567321826,-0.08418477825637945,-0.01729047636665456,0.0017018060391528862,0.008642951786231394,0.09647005807840149,-0.0072860882335080285,0.039128877959757655,-0.03605212022034763,-0.036884559289919176,-0.06255683156025568,-0.060338345988906146,-0.009542880021492619,-0.07447127947080269,0.017332715857047726,-0.007619225330511174,-0.02962726465573472,0.05191121707761039,-0.09061432577657214,-0.01851959755924126,0.045812520537747564,0.11494637121392055,0.022845890367885098,0.02280351965852135,-0.03208835394465691,0.20200029309226689,-0.10634855946169143,-0.22087427111558733,-0.1602775595097482,-0.22215230220089907,-0.03152989969600939,-0.042328830933909815,0.3001782864656034,-0.19447425253341183,-0.5136026296133334,-0.13325438890097313,-0.06175310055530932,0.22104833376706326,-0.07514467007622633,0.0008000675287030312,0.13942149325732847,0.05429010501278578
90.92085266113281,1.07879638671875,0.24529199318310396,0.03619319880284745,-0.0005491027297892248,-0.04179151911122849,0.41239892038239334,-0.3004700158488418,-0.24226871143397047,-0.06458680945499466,0.1698719682876278,-0.10571186640632207,-0.2832117709006496,-0.5166089730576483,-0.0690386315204775,-0.13794250555756898,0.06358821955623692,0.6601170441098618,-0.245234497279194,-0.12949909140316157,0.01123117419799597,0.1363857454814136,-0.16956693677802107,-0.25961248579496543,-0.17292305873784009,0.2241513090846181,-0.05331267619917101,-0.36323071269228735,0.22105971139651853,-0.011095813745414452,-0.4738344421004408,0.04048491159870898,0.0021549022880271895,0.11388635447044658,-0.18240382839917724,-0.037855796055675225,-0.3961404626715867,-0.08581547928094095,0.253775323757908,0.015671537839404552,0.06264892754137458,0.07422293310750112,-0.06665113029632991,-0.020154259663549362,0.1015780642235542,0.22708313587679715,0.08885117185805713,-0.03461461583860472,0.051794117760983804,-0.057076942492098666,-0.037430064889712074,0.0177792492373388,-0.07490727077748031,0.02775491113313807,0.10909864751949752,0.009084574319566233,-0.06619160598463156,-0.01697096498502411,0.023892440074718677,0.026452385719093773,-0.013071972843612726,0.03101949006302742,0.04594683936676849,-0.002142102614830883,0.028750301958148792,0.029302058140095715,0.016037861298051688,0.015470942247700603,0.029114567092756314,0.06219726177118133,-0.008692269371923795,0.009085893129860065,-0.049822871285456934,-0.011349520976067326,0.1088396318608481,-0.028083456230303627,-0.02060345027757087,0.0534284661066155,-0.024944320320088614,0.024326785286424298,0.03742976041111038,0.018123185813181064,0.0009472402055553469,0.014054529750528897,0.03420618527918297,0.07249491739259079,-0.002787956781550082,0.06199262299156781,-0.3391746723901215,-0.1068902998071894,0.8359657767027013,-0.4902965805874199,-0.1748757841399573,0.3314614202116082,-0.48004119003335693,0.7240405266543721,0.14426837274804738,0.44297948136349685,0.5594447142532968,0.34307986940233304,0.07326540774669806,-0.25953267222035276
91.99964904785156,1.0988006591796875,-0.24433470732604012,-0.5539009467967331,0.8915239639766634,-0.006482407931137822,0.4168953986025132,0.17963758951766476,-0.5275931803864808,0.6432165487588074,-0.07600759652153125,-0.17731946077547028,0.25504181278246785,-0.1963181738586633,-0.7313914401871411,0.2570073193261727,-0.08467271368624399,-0.024111863343484235,0.015752625601079193,-0.012575439463906782,0.050644344575819525,-0.0002029478385854877,-1.0258021423053563,0.0742646900660679,0.15984446757114018,-0.46408578909584297,-0.22919809978294187,-0.015756811825774913,0.09046715637777084,0.14824776444841775,0.49177624679238907,-0.06376020570090611,-0.019102951339969976,0.017979448051852233,0.3101974320023714,0.029612328874444094,0.15465251536143154,0.08428670839661428,0.06996426468670924,0.06581053573002277,0.05534639582191206,-0.02000889993779867,-0.04198170617850502,0.09043206621230715,0.03497733375515692,0.02104005201296296,0.004086730515746552,-0.03004406433174111,0.09226476641473544,0.07400887688644212,0.005300837110727583,-0.0015953718141091724,-0.0284919262908054,-0.046088783802211285,0.0030299534889199516,0.004276021795906927,0.05673758980543736,0.047886117757185355,0.011116932600657391,-0.0634489658749408,-0.02671756994795661,0.005053161483846104,0.011575460362896028,0.049299788647996536,-0.005285209470644257,-0.021459345156647932,-0.054005734902160096,-0.004630643075601697,0.0325804684706866,0.032044332689715925,-0.03194523964963236,-0.0512921896832765,0.05518031155677182,0.01271217091693233,0.012472418712257453,-0.0284923863339193,-0.0035249402188157466,0.08185431136854937,-0.026618084365862153,0.08064336829025806,-0.04967622413086617,-0.0032868783928441834,0.001042658743533913,-0.03500312607264575,0.0582874506588009,0.027066652758843585,-0.03851615450587567,0.22541242173017886,0.07278160518115247,0.04881317086207321,0.13313007397100926,-0.19719552035095733,0.3371025295027692,0.33583802836601584,0.36765766531618205,0.5192261877340244,-0.10964319245093848,-0.15928892492633207,0.3249761423949282,-0.2636066397205339,0.035597561442876055,-0.19652256225522266
93.09844970703125,2.1471023559570312,0.11108098308283254,0.5440966468039802,-0.5411503501947581,0.5882502582251367,-1.3901199069622043,-1.6065687877201447,0.47249798621779293,0.6764609939988006,-0.03803437035604543,-0.34371258705525337,-0.05314888502015985,0.06647900631315445,0.020275478753606788,0.03231510374572609,-0.10103422466980656,0.4354588586049969,-0.03961160775674479,0.030065936757225603,-0.0017866858764123486,0.016706703656671457,0.21758786848932465,0.40631660647258555,-0.2905561536545431,0.019087919118612684,-0.05098473749550812,0.07453976827691779,-0.050312717425732886,0.49121325891270945,0.21228522153885004,1.0670632197120014,0.05775155833572181,-0.027826449932637342,0.005829935917649066,-0.008913591496859032,0.010857093753082364,-0.01788960386329934,-0.03073809563184783,0.1794427198526164,-0.15793356442513565,-0.09001283904969948,0.029733543853961066,-0.3406319397221852,-0.15170619814524203,0.027635568090435502,0.02220293178459987,0.11163412841188984,-0.17838291736616943,-0.0004870082929260423,-0.024872976860548388,-0.072318462363776,-0.12131562317214867,-0.1481577424694026,0.0017610882023221973,0.07270322751228336,-0.07400586776120911,-0.06948422418371163,0.07874093533179469,-0.024719040613621852,-0.12598375894853237,0.006658535375145144,0.08640748480729941,0.06282224924042774,-0.017722167043732074,0.0155187507828208,-0.0007181156372962974,-0.008741817116217,0.007158656029604286,-0.0038183352673808154,-0.040873511924299055,-0.016769968901430066,0.040428581072463325,0.027536364218561996,-0.035890510860468336,0.1205740625260267,-0.03537649839815613,-0.0014301440712024202,0.019773803633401033,-0.04188066745187398,0.012351229308837662,0.027954004239180628,0.08124893035653565,-0.12181846892558312,-0.23251749026358356,0.1424275421234447,-0.036698484095261705,0.23873206019913162,0.25434377934821284,-0.2442688053955256,-0.10297774012072534,0.47371020326461943,0.5671579273983892,0.010959311491676449,0.010283541790495326,0.4792750217895362,-1.0918946510142178,0.010768083129913418,-0.24022238929787595,-0.5127213282413601,0.5645786181777492,0.16052230754232816
97.3436508178711,1.0785980224609375,0.26315387434097304,0.25795451002666686,-2.1833772162913045,-0.0439919171798954,-0.03231658019196619,-0.4009421654847381,0.193115590165214,0.039813008125360934,-0.25609896824517175,0.1842538114440724,0.019285513517896504,0.1254218740490468,0.017653502103688355,-0.01579072601677972,-0.07112935189567739,0.2367836629455146,0.1294606429836946,0.051206624146765814,0.025841830790731487,-0.006708384065169012,0.013870263701540285,-0.02108056622042506,0.009833564471554717,-0.037677810376164925,0.11168756387204547,-0.06072437527016495,-0.3970827105361963,-0.1278078165025177,-0.022314637723254895,-0.008357643262928687,0.03351962651714345,-0.012679012904150529,0.05975871426816796,-0.034117090339410586,0.07243842761530168,0.06355602973743713,-0.003205470128767107,-0.19532650223917103,-0.004692927286649374,-0.03363052178244555,-0.10597273285149458,-0.052062687537376855,-0.024763993154287713,0.028168961114527272,-0.06173878807561396,0.03420202004673913,-0.0158661667130933,-0.0818606760570181,0.026014328588606875,-0.06597000502121592,-0.05569611600057049,-0.0991470502975439,0.012417840726157085,-0.08622549039043674,-0.005711809096870607,0.052545595989109524,0.0830434324949855,0.002371302836934301,0.05637011831947397,-0.026769383303390674,0.0068435105391475865,0.09436606364390052,0.028912590159944126,0.03548377689800995,-0.0070676814512096965,0.01191781735342453,0.024600759642003762,0.019032495156749617,-0.03466556812877862,-0.044895657049683936,-0.06399877121428243,0.04810142002805358,-0.03170696624953373,-0.031302435273941276,0.0016953994709493093,0.0053782486585453905,-0.0003198314810236996,-0.07786833388309093,-0.05893087431175148,-0.005079542625467257,0.05725323279751765,-0.008639859837523668,0.07666951401302408,-0.02607343444669756,-0.02464816320305871,-0.0003036395372615214,-0.11552058467860882,0.11677835182861841,-0.2368484980371356,-0.7692516992366889,-0.042864157794285616,0.1971395922138745,0.4724013770358764,-0.14617749319185486,0.32208609161367724,-0.21671975485985473,-1.2790128828429446,-0.4694036660593893,-0.019081444571631398,-0.12356976518046492
98.42224884033203,1.0988006591796875,-0.2527076722051903,-0.5000868886508487,-0.755574589489468,1.0363437132581113,-0.0949950983245674,-0.28394515338211923,-0.36926835306671285,0.04746616271545762,0.09080044752650021,0.08929502754553574,-0.33712647194863693,-0.5809823427658781,0.023713952253299454,0.03671705267450194,0.13493059782418607,-0.11683957819281271,-0.30428506728345595,-0.06343904778138859,-0.03303914683861625,-0.11106875000796908,0.14250066385001547,0.12675373011283997,-0.0806966796059659,0.013362154808794942,-0.1631344750853554,-0.19102808744223476,0.037678126732844985,-0.0633342032886558,0.08102781636796809,0.05061439296944781,0.2573508939873228,0.08475277448218102,-0.06590872275073847,0.014257527428970369,-0.012972190851770787,-0.1055710851577205,-0.013164978364890384,0.018217599373046907,-0.027846743875390725,0.010723091684460843,0.06510069809284205,-0.025056913091024285,-0.09815844824609656,-0.03147326604536512,-0.011183122077523056,0.017645358226082142,0.11728040159035379,-0.049804687277195364,0.006839331321451483,0.025080894261464856,-0.026360141445015948,-0.020672693811768447,0.014222473465492897,-0.14911724577989094,0.04300629485609628,0.037989388563406265,-0.10088427272773869,0.007647297117907514,0.06980691508181926,0.03185700414472275,-0.10109781591242266,-0.018939629465393674,-0.0049103602960234565,0.06963209603077042,0.014322124551659807,0.0010946367902158198,-0.0040930892941927945,0.07515308069345115,0.07921814750279138,0.023552646785522525,-0.02830553748821481,-0.021023727399453383,0.016275493214475578,-0.0715544507488777,-0.016349828173627363,0.03192969086490428,-0.029419688463992233,0.003987818127589774,0.09275807501318725,0.013478304303924962,-0.0019036829224133678,0.06789492278404928,-0.008147573439551015,-0.05836705013900242,-0.051370071183709225,0.06326932534256997,-0.05564465691760051,-0.30813581875448914,0.8917813793078929,0.114589176625359,-0.23111384167478066,1.059398754841837,-0.03975591082706286,1.0575739925971588,1.0082170822927943,-0.10023659783703391,0.09447317198543276,-0.0620993249466886,-0.3741188020892113,-0.15274484950709766
99.52104949951172,1.168701171875,-0.28202826349855153,-1.0853031235105317,-0.11457384125274717,-0.05431090164671754,-0.517755208235267,-0.1384191168422182,0.04194178616007671,0.09205843503854527,0.07467054557732161,-0.10843327843099042,-0.19128177883914246,0.10210709299871826,-0.042917036982738535,0.031552653257631846,0.0661942383210891,0.0741748258058744,0.02845314182931588,-0.06917825805864485,0.035669460641569305,-0.013411602821029699,0.011710519917620411,0.06106830772298934,0.10752748088901656,-0.05018081352517545,0.24067323724270026,0.08174294022905551,-0.066335288721453,0.056314755307350056,0.09475421451462625,-0.18736999240378568,0.20923751433484838,-0.013127929439399583,-0.15489625828522757,0.017132752823432327,0.14181761907289678,-0.06157631155448451,-0.04703030569425156,0.03876903373102575,-0.029085468132573806,-0.11727152982860536,-0.09831108110497251,0.014851397159301699,-0.04064228036892984,-0.006068604235710297,-0.011550637025439202,-0.06887188805699328,-0.003005766172146438,-0.024972804591260497,0.007148475185001463,-0.023474499799579197,0.11250232593478723,0.02569564138204079,-0.03967336440271452,-0.005661176151875905,-0.002213121805863965,0.05919109418139203,-0.04625916591136388,-0.011411399601310254,-0.10930920412701246,0.022269683203350578,-0.010877567006077195,-0.0038905529977271277,0.0041607599991006,0.05522366446190718,-0.03566234575997625,-0.011192049734597852,-0.003835712312658504,0.0454818436648775,-0.05753573396324629,-0.06275485803304195,0.0514405830260822,-0.06647956600600574,-0.051826794979554114,0.10561930703999745,0.0675690328905079,0.023759387334011176,0.04217445960272847,-0.015745687588240603,0.05280455465616654,0.06174911364124071,0.007487308444317442,0.03117371660817586,0.00236546927657204,0.031892867473164555,-0.08714714275146096,-0.3723534148180742,0.013055738350279431,-0.15169454238561356,0.1657088358507522,0.25887894547376245,0.48833158565365065,0.1531047714016919,-0.07489857031950294,-0.2786081762881182,-0.258616647766706,0.08411571202683343,-0.17238954999872358,-0.17771765807098597,0.06597132895729159,0.05580542327166249
103.81594848632812,1.0589981079101562,-0.6742763301392525,0.007657458184950429,-0.33845718525292545,0.22006588089808882,0.7224312008441726,-0.3676498667263495,0.5965611256847366,0.2777880343174929,0.023405874189592,0.10781518237173822,0.16396336831943853,-0.10542739655936166,0.2656371516342329,0.059568703171144544,0.10522065682409432,0.021862380329864414,-0.3917800228040508,0.18651914563578553,-0.06769856736821481,-0.02674861085257456,-0.06859447298070966,-0.07436295555771835,-0.041642713863323313,0.12289755836513444,-0.21017059526465443,-0.9366772551035897,0.010354478453480696,-0.053492916912722586,-0.0058252528720094746,-0.02974430840101434,-0.004591324932378849,-0.07527422827544313,-0.054802942325590805,0.014344234612632331,-0.002911261217697216,-0.001486167802796807,-0.14992988977355348,0.0020077749041019135,-0.015059406957137608,0.004893586146588432,0.09992753700161378,0.02441612497725602,0.0024861028950428216,-0.03472409019666242,0.008359327464674304,0.011164026039448716,0.03953578071063345,0.02932487478724127,0.008253674100346317,-0.006944953172109986,0.003244400972809405,0.03190052902651389,-0.048105118577128785,-0.028403882231605504,0.038372419275653394,0.06746241050679688,0.03810725486133465,0.01667904734503633,0.02164668805501674,0.013964293683943614,-0.025873883941418305,0.016394218448806522,-0.08176262347214767,-0.049149817194699665,0.009656888118596916,-0.015541631678299965,-0.018573784466886536,0.00696788318775049,-0.07148748436816052,0.008554759291100807,-0.0643966786043136,0.027585555799725544,0.020738100392831825,0.06437876688199393,0.006377537038970829,-0.025488183011874083,-0.07051037236342357,0.005669581783188077,0.02311477751941977,-0.006005957940545287,0.07436494767804191,-0.01913400573304927,0.005915246216720818,0.01539301883727443,-0.04379818723719205,0.005089287830115451,0.14178330640709058,0.03529025246882816,-0.032292060908439085,-0.015161266939468981,-0.9116067473752094,0.03587010924508198,-0.2875131413401314,0.06573442192555329,-0.38657139972608767,0.6415861756280606,0.012148484142946614,-0.7133320751815901,-0.6911972975926193,-0.370773278730378
104.87494659423828,1.0985031127929688,-0.10211298392859569,0.18017446254047087,-0.05260026261942882,-0.24890667994065271,-0.35446565070449854,0.38515541009986315,-0.45307394554361813,-0.3339792137288299,0.795482269484397,0.16596549377596032,-0.021154422735289797,-0.1445932903546201,0.08349675854958154,-0.06941416305001592,0.11536091787235388,-0.13816853070850912,-0.29094443689240557,-0.049892553339888346,0.06527103930693316,-0.03764528074250024,-0.0059991824376297,0.03022381401042141,0.00012110038124857212,0.14960600930739,0.10664514895912973,0.04083556402092618,0.2111090458431494,0.013349092201802132,0.5533604641544625,-0.07922995605262392,-0.5835631960749399,0.0821595148454362,0.019084547834205254,-0.01052141899631858,0.014662699620760167,-0.00981358126837712,0.007296877080593418,0.02403540923642973,0.007402737948334979,0.011268910777987112,-0.0045330287638598995,0.12259645495518733,-0.06659709148412833,0.0030195997600122038,-0.061404918024036165,-0.047667068181596474,-0.045213419984876255,-0.02640233526766354,0.06883486548118027,0.08019116439156868,0.07934642480243059,-0.01011163689684138,-0.0363161035790609,-0.018219645745714767,0.053870652717061,0.03650089243222614,-0.014046889519376589,-0.01596489508049127,-0.03967196677380082,0.0036815156603090295,7.376004276795581e-05,-0.028433622742177325,-0.02861428865788609,0.004505349686811197,0.012841065446240627,-0.03981550777090069,-0.01944623665869558,0.031399141047392685,-0.003580727565301911,-0.016932692536001923,0.004413093198966725,-0.027095026958661953,0.07686930337405479,-0.02259388401138712,-0.05947907893243589,-0.0947454148222929,0.03526263943543021,-0.06471049097832166,0.039805445347091725,-0.00047130427802108714,-0.042480304902396765,-0.05663991385230575,-0.06144533438037865,-0.0549551754900326,-0.0459880787915625,0.09890637188580922,0.1807032586738472,0.17987233622897936,-0.3462184049722724,-0.0943786059557079,0.013621577929803015,0.018563763526678392,-1.3936748610347294,-0.46159615043060054,0.9974388582422054,0.1030768880141096,-0.3210411987657,0.15532728084288364,-0.5111627389505309,-0.24601301845945478
110.11914825439453,1.0488052368164062,-0.3986698206749332,0.8458927015680826,0.9117619177247778,0.22984503913944723,0.43827849037376454,-0.7155470791989824,-0.055779866350649104,0.08113590063871062,-0.0073465278371640024,-0.1647633347469939,0.2241089934896643,-0.35854709576494714,-0.14074987704667513,0.057460750231013866,-0.005330916445555167,0.1263387775745901,0.4278303911544847,0.3284049225092173,-0.07983426426271953,0.043672729912577396,-0.01256281025730268,-0.007820523927641517,0.0032138151551042438,0.012796412054520603,-0.21998217413563076,-0.16159971680470547,0.4329588042499329,0.16777908494376897,0.013740654357518329,0.031236776337679864,0.01498634660365393,0.03166680414624082,0.061606993129111186,0.061371452336879115,0.033977179502283995,0.03264480130627642,0.0035796029359248813,-0.0007314525089855437,0.04020530132131557,0.00994254427020846,-0.03164568445040713,-0.03794580515555308,0.030189902522952172,-0.08411383580914732,-0.02760495285129669,0.026347444093684235,-0.007220435279656255,-0.010120102954572207,-0.008978154650996203,-0.04721143923943533,0.016544025619182508,-0.06743887669123451,-0.06108589382443584,-0.007766589709012376,0.0010917119106575888,-0.07315903564934981,-0.07915246061950972,-0.05190231945603108,-0.00259186171353425,-0.09814912986408067,0.04433040384809652,0.01677284628954035,0.11048563327702776,0.04455426893616556,-0.04868424679962957,0.00014442230830509235,-0.10510852870527895,0.044457276807286374,-0.01056060628229543,-0.00443865957647941,-0.0174812329793041,-0.02010674877674168,-0.005300668740639329,0.09344236870280848,-0.07826097361760255,0.07381442184939747,0.033405163308765216,0.008041168986770604,0.07142738774910398,-0.12185710749176759,-0.05082152710136268,0.043138858681889526,0.06375153403512253,-0.0936177294334939,0.13693768523018296,-0.043390476611370264,-0.09851571109282647,0.09498443427837464,0.08564780479172207,-0.15612851355275068,-0.0018844711157969922,0.6210716738883882,0.1708589560227401,0.4475503018037432,0.2392080090469472,-0.14932337869341356,-0.07163539304158084,-0.5289314723485837,-0.5866235130645068,0.10937034027382986
111.16795349121094,1.0586929321289062,0.05444859491712284,-0.14986859113976644,0.4581080302431837,-0.618924935497671,0.20799578919319217,-0.8297075577599073,0.060966677198962295,0.560074662956677,-0.03277748009638293,0.08436928608678769,-0.2533257440960813,0.11874410260124216,0.003930209258886777,-0.06218265594788082,0.2635479675535426,0.07623633048588967,0.08682114996241728,-0.023190776377263033,0.17974182423594423,0.0005920894763565519,-0.04093251310760218,-0.03249457881656765,0.0381027922809604,-0.1030283742289497,-0.03850774510892163,0.4071965890607483,0.18768298750429935,-0.5298606247968352,-0.36754168079464555,0.8955423960376385,-0.039467389479776224,-0.9414894461314627,0.058397842558681745,0.773785783956236,0.1753781822749188,-0.06742902580840575,-0.49238291377946203,0.25361860464622354,-0.3068285725227041,0.11282773127578935,0.07037243676283786,-0.011798092953621839,-0.029330927722404185,-0.10155972459966983,-0.010117309295801014,-0.13485108146903246,-0.027911057768561363,-0.000630653100197189,0.03140499518932893,0.020075239120285103,0.0018209605719209643,0.07614886575712915,-0.020496391635647718,-0.023001900243842483,-0.052678461855758515,-0.0021612650259638395,-0.017810777019879827,-0.13653533775431642,0.003586717935115785,-0.009737353737877971,0.029565271779618995,0.00413375445807064,0.0750779420311336,0.04980698842408115,-0.03186252490309638,0.022144399290929987,0.06855597633986747,-0.07525790544384611,0.04134050929497232,-0.047354796597474255,-0.035665226344517964,0.0396475631990796,0.10168564709055622,-0.034313498785075384,0.013610657749141285,0.006134681605247232,0.02358890003499877,-0.02486854210252491,-0.007429148981356996,0.054298481530571194,0.025349288552434592,-0.027755665055845258,0.13265820777376408,-0.18196272841529115,0.06689369116062233,0.4367249965849688,-0.08105057105568211,0.3358985627046983,-0.11516659256712428,-0.4162785251094654,0.49250188075168594,-0.04662101337173481,0.7092454797879826,-0.36728231004152667,-0.011403641406254494,0.44506930897186314,0.3897041137067559,0.1098024414224131,-0.10079988432359527,0.3105698054486766
112.22664642333984,1.1890029907226562,0.46902405020189925,0.4221592966333336,0.22182362454283897,0.3372166046189294,0.888163706531825,-1.0184698281954792,-0.7154397892761117,0.1045030805266001,-0.08394452656110045,-0.06494795249483717,0.11253697701795426,-0.13728092573199124,0.11043128963832524,0.10428135422167649,-0.05909077292477564,0.07256465710144075,0.23488533161409333,0.115447989080558,0.026681534376643376,0.026733024415922735,0.01714682946344994,0.05835200999238764,-0.09076419349175827,-0.04117261121382669,0.04488291579896323,-0.11745083347643968,-0.36310694472736715,0.09466353649650808,0.002985486624145233,0.011360293324066944,0.01177966346483033,0.030883763228213297,-0.003721617079709042,0.01212667116180774,-0.024586790587607973,-0.00927883130570596,-0.07800568190453694,0.01312978510333705,-0.025945106713193836,0.018545423937403733,0.0012355239490963866,-0.014395119619699095,0.08459298732379214,-0.010152272483079974,-0.01816972553587996,-0.08100438474208166,0.046614128988977474,0.00219797122125693,-0.006247418888443516,-0.0034059860684642305,-0.03491365868327326,-0.009202791478489371,0.0015699617883698407,-0.019728502754986183,-0.04268089590415671,-0.00736018802394682,0.13449186247602934,-0.014732183702544976,-0.023355573033774613,0.013392627771160735,0.0011747234021900659,0.00442467635395623,-0.06953391585648339,0.019991016818624585,0.027933758310223947,-0.07547638020333026,0.023392381248498885,-0.017002196738017353,0.016244802296349364,0.07088635095523932,0.037356151321633314,-0.014437901330497507,0.010231797540990118,-0.07121430871002707,-0.009621733833256547,-0.01008598810719091,-0.007041572727457538,-0.07636344824259701,0.026085680365127394,-0.03078041544989183,0.07246387223504344,-0.035997530314192505,-0.04292020193554567,0.15634323772154415,0.08189566319699165,-0.04517253438277299,0.4330684793474435,0.13165514867840591,0.01670522147441278,0.41156036528763346,-0.16615963349108903,0.6685018623494898,-0.17735762690220858,0.40496274420766587,0.2347497332133654,-0.6260558452194164,-0.12730452229643582,0.02500082521496403,0.0015568822173487092,0.11089670132457047
116.53154754638672,1.0592041015625,1.2460030868253766,0.6931906832952854,0.7485502687663343,-0.30560757525942883,0.45396866687680754,1.0348412115506247,-0.007448331932759804,-0.3859550811217053,0.3147730996633621,0.06692453304606355,-0.014414631584844337,0.41101738023464796,-0.06448419084659107,0.3277572186007956,0.21101311984363363,0.25272803998777194,0.8132921362483835,0.07030930359048797,-0.21531046207931606,0.018509580810346395,-0.0373791370810524,0.0718515244979944,0.19137879236073144,-0.2380692031546496,-0.23529603981671762,0.0061607802034788495,0.09102097678348883,-0.04492759889264579,0.13619320151061623,0.2150970024302982,0.057304250735701695,-0.2139681802864617,-0.18754706780676927,0.1485161110266747,0.04714740475599623,-0.04238714437487856,-0.023165898761249047,0.07640800055891592,0.06433658060130237,-0.015572926806075568,0.14991694707006686,-0.036458248946133316,0.0037292142421481303,-0.00925222922484066,-0.03446532263412212,-0.13677281736271973,0.1267180927663463,-0.01415781643903095,0.12393918693369205,-0.02694920165283883,0.0489598528745282,0.004085319556052276,0.0029035213852987066,-0.003817455825824826,-0.012691942094444679,-0.03128789291000759,-0.0062000771326951865,0.004115307435821665,-0.012174824397258012,-0.05080363685447582,0.038678317038369485,-0.05551737573501718,0.004214360997046604,-0.007718378974047853,0.008961105267507635,0.024846528624093638,0.00928680608551102,-0.05955427728709728,-0.03626471883736874,-0.050808561523291204,0.03422103826426759,-0.0003624474459048427,-0.02067830091755459,-0.07464249710552649,0.10724654935107183,-0.0010189015494876108,-0.003492906039308512,-0.09837453041442148,0.028274558252526883,-0.002225917164242528,0.03829790041481742,-0.052984707543903886,-0.023997804736726292,0.058767262583102706,0.1080132257052478,-0.19833074924895253,0.23815478200783777,-0.01897696678021579,-0.37201451896875287,0.5393612859319473,0.1167281154033113,0.2686023759901451,-0.4625392158139191,-0.5376799477868976,0.42203705128254987,-0.11982323545750613,0.22345584256896442,-0.2658128052964061,-0.3161143096049217,-0.029160329200336177
117.59075164794922,1.05889892578125,-0.278207136103782,-0.6768671944067445,-0.2675911813128252,-1.3761126905002166,0.5794390186665472,0.06772216836042813,0.6102372944761487,0.051008278683992554,-0.07718998160319127,0.3405782739982296,-0.26002060109067143,-0.3330800051019709,0.0676765263138876,-0.09695651078050252,0.23909687341316768,0.322336739844247,-0.07064069193261556,-0.40784550491140653,0.29551856128342,0.05579522099929628,0.02285334640042367,-0.042937421228529844,0.06942951206725675,-0.19684748154480347,0.4336256714498615,0.3522480689842479,0.025790303846504187,0.4090966196784579,-0.34971344195229187,0.9309825406843055,0.5733393839833258,-0.31373618617873583,-0.021161858050248884,-0.08628809692880637,0.21244558180559062,-0.20433544015387584,-0.02361972325288425,0.016651800499885478,-0.09119914397764659,0.029153751413461628,-0.003915181964800729,0.04237030455367287,-0.00039153735380523637,0.03127757152630156,-0.04418006021642884,0.002854038792728604,-0.009271815654780323,0.06129802809310729,0.00901050322180066,0.0037902993720076964,0.0641121346605474,0.04527933510360544,-0.06767644780340445,-0.01080206531666324,0.025651087621647313,0.02255380193545831,0.17456374945834463,-0.14841823230326312,0.048818230422797246,0.10761324349463403,0.09208627975954532,0.022343095861644884,-0.0074325001367870625,-0.04439397821064583,-0.01598930310835016,0.054111254203538434,-0.004171681581416739,0.021630762565365908,0.03526174328475899,-0.07230067433701962,-0.053597203901016084,-0.00039373780230346836,0.0005098929053193729,0.09634811189241407,-0.05219638880710083,-0.14734918160403748,0.027058717222703567,-0.010972149711376306,0.014224985677480952,0.055100514543293046,0.00566533616715853,-0.055540825698167595,0.01619222027308019,-0.08536546058205528,0.30952814918360444,-0.05615049186397676,-0.3886748558033717,-0.04559710171735382,0.20676426397716968,0.3427440184676238,-0.7290349890845208,0.6161922297446968,0.008720311667190207,-0.2573197830485223,-0.6089623467444192,0.21518163535885543,-0.12559154281283502,-0.3758347823403052,-0.0013504154108281985,0.2842119328804517
122.67455291748047,1.0294952392578125,0.43182121152967984,0.07966120458081086,0.4543294263617118,-0.6484555912891875,-1.4549260552689594,0.7704589984672126,0.5426911871543515,0.15796417668186416,0.6072287349109861,0.004015398637285644,-0.15857718303500457,-0.020376022223093412,-0.3979272881930094,-0.0756586539750388,-0.025683559743999905,-0.05840562736279794,-0.5585449149097956,-0.42504004449035737,-0.5535440632300163,0.04424912277120929,0.01934376903520399,0.0478655765795976,-0.005417438924737771,-0.018005050751039017,-0.07551856307600796,-0.01003990927221988,0.04158065732843354,0.057543292228256965,0.0233363331210426,0.08580289061125872,-0.04666397491242593,-0.12584043870419773,-0.028319251436152847,-0.19004124752003132,-0.09945365927219692,-0.11825025266743312,0.012921793334821966,0.008903493436908022,0.0016253625972343512,-0.056208484216675854,0.009663451915421005,0.061123894587594325,0.02652878154425251,0.026909435462833295,0.017976114828801768,0.007679266229674679,0.06253606790484209,-0.06902367484982992,-0.028460653672526627,-0.02156038312550423,0.05662675645314659,0.012432940941206158,0.005744294017022797,-0.004791421435470355,-0.030666822506075796,-0.03169057081682962,0.058117354636523004,-0.014697992134365824,-0.005511998712522552,0.001969700475994582,-0.026232942482085318,-0.033033479398001706,0.07213805764445155,-0.004532851054033641,0.014760312986540215,-0.010877251994935517,0.04266597925036809,0.03084869430414733,0.045822869807664375,0.03768107642479501,0.046107317717827445,0.026740547098770655,0.021982744515942863,0.012222353314170384,0.07731862065392335,0.035475310910493,-0.05108295364722852,0.03976599358090631,-0.011717859543401717,-0.015030077335531116,-0.013855197358221275,-0.019650432353081705,-0.032745899261148216,0.04866984629574857,0.12891104297937916,-0.03746880490238351,-0.29988961818775767,0.17630166480841353,-0.0972629584281062,-0.6200484603789596,-0.612634236661864,-0.09358542054256022,0.1144141731580537,-0.10863316508176481,1.694135959778303,0.5816101837219211,-0.22679781118974,-0.713630984906028,-0.09883246119787742,-0.372241844784094
123.70404815673828,1.0685043334960938,-0.4151673315613352,-0.49143261919090403,-0.009618981303300037,0.3632270586623911,0.18709301274076265,0.3909944405094162,-0.413482979139488,0.30675323468066346,0.2845592940957722,-0.4463964080637066,-0.5546175627909219,-0.0943320826955008,-0.2773149638789153,-0.3145030319716423,-0.12620006684595714,-0.23434734441630525,-0.1817149354534456,-0.27090905735013976,0.0730115228034861,0.19701343175249708,-0.09982560452703693,0.6261870226003924,-0.14316258740940896,0.3833337083526324,0.14476141916616658,0.19188258431870633,0.3564321537433935,-0.2349555644539718,0.06539763008364255,-0.20813231687936168,-0.4881544165939253,0.022288440765657197,-0.057108908557912494,-0.05368009076495972,-0.029385013802732646,0.044514765784383264,0.02010591415373557,0.12171788009772747,-0.11170715348627888,0.1724898836229976,0.058470382890811856,-0.06527907882500485,0.03331583990052983,0.002615141498912024,-0.019653975364700975,-0.07961092437386622,-0.000498606346330365,0.002046157780727989,-0.0018276906877379554,0.04581022802984509,0.03243150724322542,-0.03909735904834788,0.039247986628602315,-0.04262139889787806,0.02728601249193035,0.014543305393923204,-0.021640476920767582,-0.003035028824556739,-0.09288802631814085,-0.00922734805029789,-0.016187347896349867,-0.04467792111749254,0.016307578972269907,0.006925475043162821,0.07556215581267264,0.035343950941304395,0.007003906562873419,-0.009587206478791613,0.029384749974552756,0.009232195535384137,-0.0177781952915729,0.037734997255287714,-0.050260914627061136,0.0620303975238332,0.044475209355734444,-0.04398527953649289,0.04642452241584627,-0.027213627355161942,0.022165421203062884,-0.008676305674514453,0.006108071836077228,0.08245112020041387,0.043503209344259504,-0.16197672395660764,0.4425789428553767,0.5236953270615976,-0.2118240533421697,0.47823416931305923,0.7979278366349732,-0.20390329109528596,0.5803871385119598,0.12026419039829203,-2.1358371959962024,-0.21893705286017748,-0.18079312584674884,-0.2642833962711693,-0.053621002068898166,1.0164171285788217,0.2845097204060025,0.4999249813567545
124.77255249023438,1.17889404296875,0.12559208411227427,-0.23859274521500703,-0.28290493668912065,-0.08956398040333703,-0.08789037618283929,-0.09652178022563526,0.1411944763786719,0.10961923010098336,0.08414360693231286,0.012366082863555616,0.1649809291600475,-0.4880825776603771,0.14921454158015426,-0.14263540765840227,0.17110183838540077,0.06073976406416838,0.3442444364571161,0.017501902247847558,0.009654531317177736,0.02956585008586328,0.3647403184787885,-0.011336775970430368,-0.1444299234922335,0.4041867462483201,-0.044660015015537576,0.015752672267251105,-0.005788809205615884,-0.12495051741420041,-0.14647447601965566,0.009558810379954225,-0.07614547539809088,0.30544897632469237,0.10222901617237665,-0.03004238695733872,0.1962926878471091,0.04912190825858959,0.2039468217803351,0.03053499293612501,0.053352268467506785,-0.041083123760511174,-0.10376509385153723,0.012258392467611361,0.03918773345632552,0.023274056068487245,0.05222861758305942,0.029385677016592827,-0.005486531743093609,-0.040871600191040476,0.02061223290380713,-0.015867225700102232,0.014677814914483497,-0.03393015078474469,-0.11806098015972,-0.0056050975096981846,-0.022698431123866214,0.09841006027272402,-0.006512162190680566,-0.06898156466286498,0.0042761309781983725,0.00874751784465671,-0.017222505942522667,0.019350149182972048,-0.04099247429989633,0.012251459183008222,-0.021905419564176125,-0.07160623021127997,0.018527417281188546,0.006896007290757348,0.0416944080181685,0.04273227217787979,0.11320406446361966,0.07262373525641216,-0.06489481548036537,0.03520347983060674,0.13521405735849332,0.01393639661297786,-0.002973045649411379,0.04023107712551293,0.1657433479867306,-0.04751515306421542,-0.10879425373259048,0.022664571583810186,-0.007425144429724362,0.021924524168064313,0.3515167975243862,0.32924495262368386,0.186599414840441,0.39592056476782667,0.08694204991700774,-0.1312821728319345,0.2742154138941367,0.8934825099752517,0.2716663266233088,0.32782702461723773,-0.320176228617974,-0.0958469484586571,0.1650662395372608,0.32686369032955587,0.10676576069290691,0.08670162065749516
125.95144653320312,1.0387039184570312,-0.08680656074891928,0.34686644645068343,-0.02277353050514077,0.015342696668111284,0.042200569363789284,0.0013858652205657844,0.018151620695746815,-0.025106787236231533,-0.01885225276811859,0.07472038213345404,-0.08676686723643329,0.030960434697878153,0.14217867367643192,0.11146050310369884,-0.2711373057772913,0.08063946893820816,0.029737406608311583,0.07500902609966419,-0.18753082041420388,-0.12362496556560755,-0.11287748699162822,0.2602184880650718,-0.20690284829546637,-0.3374446727598262,-0.014237799442474539,0.011053582603054462,0.2074154593529978,0.23978352797389094,-0.018173313063828578,0.03846271410138576,0.01832161286419314,-0.0183301042041486,0.2713792156513041,-0.10180769529642233,-0.22263610699303377,0.1690237440363428,0.027116239062044363,0.10754625053170896,0.013055346908465021,-0.3515007531792225,-0.18401819565238203,0.17708263722780698,-0.02149454439725086,0.06898258175605146,-0.08585153661757883,0.30687872315801423,-0.0800969098405247,-0.11111402753266589,0.40805528546123637,-0.8902711564348245,-0.06762227368049831,0.04585173177259744,-0.07609199031250845,0.046173216617386534,-0.036127632754078313,-0.014907210688570375,0.03237673612092485,0.164969803910466,-0.09223526725152657,-0.02407668464426034,-0.1664104697360257,0.09900831653929201,-0.0025503841711089718,-0.09787013367038387,0.020034002495036913,-0.008661056942875646,-0.07863006542648332,0.004815735605324915,-0.06776640274525689,-0.16789880098491516,-0.009670921331789706,0.12403767471712805,-0.2547477568733467,-0.05988187080757757,-0.06431404563434671,0.010044816860849123,-0.030499768249504434,-0.1456661452978389,0.17670419477113136,-0.025094608352721332,-0.06085156506088649,0.030627721901690483,0.03675683771673917,0.003708530122921855,-0.013076285066616802,0.19367262506249877,-0.01619711923737464,0.06266490712560951,-0.2965910142848629,-0.540186057619024,0.06658877263688752,0.22745691971618884,0.8254237172196971,-0.17601998226050158,-0.40691339139790456,-0.7226781121320036,-0.5583362869412924,-0.18642194442095994,1.7065143595514387,0.41824244452684134
126.99015045166016,1.0188980102539062,0.6103674897942133,0.7824334464100761,2.2700201237816726,0.5868439959409342,0.8665647972782303,-0.701905201193147,0.10849429901634434,0.9118790931096629,-1.3167219084535022,0.042953718655822745,0.3763972788720746,0.047549353213848095,-0.02975081370377479,0.22929201618239886,0.27937887253593874,-0.22466376890555143,0.15557899852638385,-0.25001269731757864,0.02374257414710848,0.07523563148151433,-0.08524149192835001,0.026514040100331062,-0.16521673164130246,0.15862299571414676,0.3138769730066809,0.06810749767940155,0.018497658690036514,-0.05659524535408245,0.3017271438901468,0.05247269276090527,0.4702637621466063,0.05749108284824392,0.24148879986400767,0.12783742852114882,0.04996147604636962,0.30970413999356705,-0.022533833986106297,0.2684448988995193,0.03671849836366033,-0.09607750422694458,0.0037197996223904814,0.06581524249256855,0.031923369564295555,0.1314955275165328,-0.06710305743607482,0.10672354865423983,0.03694444406710421,-0.07245960512481153,-0.060201684905796096,0.05040265388155607,-0.010746271016253962,0.042694244225878024,0.0065645375703743385,0.04267652904641974,-0.04372689305958424,0.04793039698880246,0.027378876772553667,-0.0027621571717827993,-0.023787820116665366,-0.06385595618448713,0.02708901466996252,0.05546199896280136,0.026800236391435174,0.012204294475197441,-0.047762641989324305,0.06736872266798717,0.017471191503640675,0.0381130665702549,-0.06500303375658373,0.01936211638986738,-0.1355190364572705,0.03143475032920658,-0.005282472168762412,-0.002482619270924604,-0.023365037711762973,-0.017261257246858886,0.018712315065092026,0.03186364860143456,0.024316985902718802,0.016824685970720066,-0.025210831080138205,-0.0029032467230081984,-0.043804366339262844,0.10932907397236279,-0.04702994454827112,0.10461584598731533,-0.38475670417494073,0.3133892061712704,0.5921480683308065,0.3453322489994559,-0.2792279202736614,0.42654982048023066,-0.11297187234956058,-0.7743215674397039,-0.5597037330770678,-0.051321867737369076,0.4379980495397958,-0.2048325049680754,0.21525955280659984,-0.4907848607573826
128.00904846191406,1.048797607421875,-0.23157015298841077,-0.3719291680196649,0.2542926595788745,0.19949319924232473,-0.4849373013723939,0.02235442426456513,-0.00409482603210269,0.08709069317157749,0.008703679744136163,-0.5491940780519984,-0.13167341670081276,0.5712936747304147,0.15932330924368665,-0.027572907168829514,-0.1977592497155817,0.11275289153335709,-0.3105282274057476,-0.14911860686173864,-0.009018546657570636,-0.06579832885558724,-0.048280991505047104,0.03352270137454064,0.03840910455116343,-0.03182427008177466,0.09601009411816788,0.08485062631698673,-0.21407997556901026,0.03547902399041068,-0.033196647774896386,-0.0627218663918676,-0.1084343224205165,0.19078223354667642,-0.021043151440606547,-0.005923791764174045,0.04458884698632984,-0.010626069252723663,0.018864845703985153,-0.07552957729617474,-0.05023632307585591,0.016261286048807194,-0.004129859792351959,0.05552469865435682,0.04514514300457358,0.027796617370288487,0.07765548364169325,-0.01577298659564336,0.05503550892647902,0.04198275859650145,0.028080772487204485,-0.0007142223357003129,-0.0016290982658294403,0.038993666102111885,-0.07484448545619354,-0.034048249734405754,-0.06790579851184617,0.03848876994233617,0.0897873330238689,-0.0033192497655190685,-0.025417713339050733,-0.026272176825988536,-0.015077919214873402,-0.06894714031975496,-0.04357347608990162,-0.003948208015372077,0.020509416813064688,0.031409620245526855,0.029577126960872942,-0.032572297715919324,0.03596631999596607,0.05386267125025987,-0.00615347615629395,0.03950154838062316,0.02677037334476887,0.007890164175072642,-0.04316892258322655,-0.018838705824273702,0.08857650386370197,-0.07225192217677724,-0.004536911786048929,-0.014117994636572886,-0.02940342948325032,0.038612480758428526,-0.0606669792296756,0.04793550310349712,-0.11871709673574915,0.2581355877549463,0.4018125445614915,-0.5747404634214193,-0.004313779868436771,-0.04895523907695317,-0.28392475385207316,-0.042703077949161276,-0.5201809332631138,-0.37402117937793244,-0.1244151361899892,0.03211376524202425,-0.14180201983293483,-0.5188767393796796,0.14635413378283854,-0.14610354272055995
129.05784606933594,1.048797607421875,-0.09269898689210618,0.2575768628892948,0.778620608617569,0.08983498232523156,-0.29266400366204764,-0.10145915662230234,-0.9488549640944968,-0.9151729272436244,0.20286151543404243,-0.0289362831265473,0.1651021350561152,-0.10462824811916158,-0.01840887168802119,-0.05225572170449339,-0.10469860059822726,-0.07431073373550795,0.3131604532695255,0.0774149765351366,-0.04132968444155089,-0.07085022081279077,0.0037976773721348327,0.0004910759165090194,0.03665278548719887,-0.05770506956322184,-0.04136317968020341,0.014043496817707932,0.09942593622085,7.126849615809311e-05,-0.0637208144600657,-0.05734519778779115,-0.04305077258379602,-0.02424921376161718,0.062131379476596374,0.05888091992769088,0.009589466779889505,-0.05273374591063524,0.0034367301704851063,0.005322680973656912,-0.08274148266145785,0.036196129019345595,0.02985954668130552,-0.0693068277336294,-0.020271800842194217,0.003936952593862515,0.024004699972934484,0.007183676838531383,-0.05458976376351476,0.00522417929624466,-0.012906286565187282,-0.08225744980629464,-0.012460036238373308,0.07106923938859074,0.027403926469408264,0.0657884257370384,-0.01993988544243078,0.016877884249413312,0.020436892650074815,-0.008536475880926308,-0.05247143553804703,-0.0024525402751004732,-0.002872004744249719,0.005989320667104085,-0.05656599207108807,-0.05636995335412008,-0.013656329075294708,0.022818898698059056,0.02840009386426824,-0.05756595234920221,0.01923362038619617,0.037147074134206856,0.012881653839802151,0.0706536916413031,-0.011720649584892643,-0.0168699962411214,-0.044856303438696635,-0.008504174321290726,-0.03956598944969675,0.03873465519741537,0.003549480965500965,-0.020404121633921496,-0.034162303052047434,0.0350315830075994,-0.04554796115918935,0.030565524445735487,-0.04889665197561268,0.18471993619346921,0.04432494681957137,0.11981025794151237,0.23539465809498417,0.09272700288150709,-0.11356464337222874,-0.09307426288805776,0.17280959454117567,0.4938362893519243,0.5014759826690913,-0.37678868606954125,0.39262179754701604,-0.19501385675226815,0.026278003105974508,0.40694964513823384
