start,duration,0,1,2,3,4,5,6,7,8,9,10,11,12,13,14,15,16,17,18,19,20,21,22,23,24,25,26,27,28,29,30,31,32,33,34,35,36,37,38,39,40,41,42,43,44,45,46,47,48,49,50,51,52,53,54,55,56,57,58,59,60,61,62,63,64,65,66,67,68,69,70,71,72,73,74,75,76,77,78,79,80,81,82,83,84,85,86,87,88,89,90,91,92,93,94,95,96,97,98,99
44.40824890136719,0.9790000915527344,-0.010912975387666932,1.2279552753647434,-0.20519116384940697,0.0670435835881765,-1.0126114040651493,-0.04724025874724894,-0.4134444225169862,0.05859026505546543,0.34904940690612607,-0.47272241888778593,0.10107869292797872,-0.006231653305298398,0.24304871649966325,0.08121734699055588,0.1802764773731582,-0.01322471153881619,0.0032680337485927633,0.059072972308255416,-0.031684541091307826,-0.09061464276220392,0.01590903496464062,0.09374197795239365,-0.012156221081280444,0.05749490161577059,0.05454019355205843,-0.01874261894359932,-0.052544394854005624,0.09231250282951527,-0.1109908246926733,0.07886048918666357,0.0015993548783373168,-0.017216300805249836,-0.036967065044829425,0.007187478215975564,0.08689856578348717,0.04679887752050566,-0.10024036025411466,0.0942610791684742,0.2817987383824949,-0.03285505944014394,-0.2717339691106496,0.3078553874445727,-0.33249285627638814,0.34578172052587886,-0.5916634949468137,0.2155454087229232,0.30662031850666926,0.15475425963327824,-0.15461118043473135,-0.002492637637233619,0.08834467771512325,0.1004207767028173,0.12237329034769734,-0.045432819000344966,0.035089937551535916,0.031060365274389514,0.03503183143538517,-0.18801825316186746,0.10020579824744688,-0.1814398095550731,-0.020224830471426557,0.20728000858095447,0.15801335201513614,-0.170077332781895,0.27886644871665356,0.2547311920762037,0.09263944384447328,-0.04844886665607327,-0.4270067140027673,0.6120681716407673,-0.26483147238870625,-0.1154017468810073,-0.37993661419925673,0.020208495783458014,0.710148616757557,0.2982914223013126,-0.3688700692641647,-0.03790052477160457,0.21857936166617536,-0.03884531335689352,-0.12616712130338456,0.13477934197688268,0.1986548896857558,-0.1214486718824681,-0.30986506115626095,-0.1696470161901119,-0.15607562035061898,-0.5970195324613752,0.18092099839300882,-0.2773138382604205,-0.11711142701455828,-0.3090046308173651,1.9658872800617433,-0.21458736534992898,-0.18013958440081632,0.2934211215250697,-0.699768559537232,0.24058476129934542,0.8761183420156308,-0.3148958452507259
45.38724899291992,0.9586029052734375,-0.08615146476480667,0.3367087921738118,-0.8315740281644963,-0.0872651749710164,0.7761064403527549,0.15975827194265074,0.07212976406749638,0.538925292232034,-0.9753613138777436,0.02657493663973929,0.15546477014634885,0.11750507297813659,-0.07214683878280576,0.0005830231119440723,0.0008757405944639198,-0.11391299606896658,-0.14044002556707363,0.29852204403129046,-0.1410505821206593,-0.01592665482875267,0.10281650730527338,0.058247429236105666,-0.051783309280803214,0.17217172376558584,-0.06951986305657187,-0.08906157162370454,-0.026883642665446447,-0.0303976885885534,-0.05563241851332379,0.23481166843423912,0.0788294133823969,-0.37330999708564744,0.05374655819422528,-0.08891584363602938,-0.3766957293668441,0.5347611119205556,0.04399308588144947,-0.314008075789052,-0.02663472012371549,-0.07241849879939237,0.049663785466580186,-0.3930878494778568,-0.0017213780666151327,0.41837844184439316,-0.725385877105536,-0.550084578856514,-0.6235612037971752,-0.1145796975162913,0.008641236086296925,-0.05875964919556561,-0.11591619021285304,0.06998333503934522,-0.0939567968126657,-0.18554393324005874,0.020830832238924294,0.06307736339129155,0.007519908372352813,0.12089473673219919,-0.17238462412599992,0.18430145179456214,-0.07022048577377182,0.1750066196829419,-0.30487342834926584,0.608866770159058,-0.20976559152332586,0.05403796449514988,-0.29395041429312085,0.053427923358019644,-0.035819055508759516,0.07963386691442968,-0.7374367380529788,0.21519738055393026,-0.018274554637835047,-0.175361183769963,-0.16176481267517667,-0.0017075310064278068,0.4151235662459367,-0.0848033919928914,0.3690522012987709,-0.13379373540601008,-0.3111358304173645,0.40565507188989147,-0.2977692786962036,-0.4314019874813884,-0.15232343065848156,0.008002455779635424,0.23393329542733554,-0.5628872592996336,-0.07946979266963453,-0.5647114208520791,1.2645817491596116,0.10615275281563297,0.10656975326203666,-0.07802969001516163,-0.2884939437014543,-0.18935663667822353,0.6230026160544859,-0.917828776858292,0.7050275250634364,-0.21908196288432547
46.34585189819336,0.9986991882324219,0.32037431300036245,0.04249338426241543,0.3207080461193711,-0.040669111754134124,-0.10043565055955005,-0.1265338283660868,0.5842241860606309,-1.717978963707019,-0.33070258865801794,-0.018980006592387064,0.21646228002500925,-0.07813678620487446,0.08478127702310122,-0.05204539951309592,-0.20387428461787183,-0.06007568749310378,-0.062291247184014506,-0.04100986802423446,-0.015274508018529786,0.0007766011479301198,0.10754392198829393,-0.0651357744127839,-0.009937191032944062,-0.009718377606714582,-0.0771520137680698,-0.050358540015808285,0.08983768585182894,-0.01794681146849149,-0.055973611635997414,-0.05548116754550437,0.15592278904376045,-0.07546711951300412,0.02788856780285747,-0.01914987057032331,0.046813645880651095,0.2156848327435323,-0.06586170611858268,0.06395408154700351,-0.34969823930645294,0.17894957838874628,0.08186635423532723,0.03473505169251071,0.34211639251157244,0.15146844242233048,0.5588059555000244,-0.11464714353220676,0.05833172685222662,0.15604644106127397,-0.011233225952258891,-0.05924032849597115,-0.058151501717861986,-0.19436125889335548,0.03298266288811448,-0.005569598357513965,0.04269866367444417,0.05715701246684287,-0.01112424754954458,0.0404122859787988,-0.22714338066728348,0.7725567855712249,-0.6157120334271726,0.4123106933934117,-0.1870014022901555,-0.32141033510894146,0.062146105657093526,-0.2732910090919949,0.5646197507640739,-0.5825041522952736,0.543109083516594,-0.30160347812210886,0.4111067899341059,-0.49406133101905303,0.33558919807503235,-0.6684275168463555,0.058613970095977685,0.6216871206512571,-0.4324786846790087,-0.15314832597011863,0.14942357030765407,-0.20895944364195643,-0.05579664217040303,-0.21055277629631663,-0.5806810998224646,0.13722701067433,0.1175848962700288,0.12004982214711135,-0.0035101809512909365,-0.3494889340196301,0.19811836477589878,-0.6865267511967438,0.0465900770374669,-0.16557766379796154,0.5559799917044426,0.9239961182270425,-0.01568387219914969,0.43270338049253415,1.0061623062817309,-0.49190882086184806,0.09645925760164907,-0.4169426487814812
47.34455108642578,1.0091972351074219,-0.532176703116835,0.11328701682827674,-0.5586802423315654,0.133092192490992,-0.32501603198189916,0.6611429448028001,0.7527128186019486,-0.6384296235624478,-0.3862868977304521,0.9316369620254206,-0.4372605037598318,-0.055833685021471485,0.09556275348141484,-0.12537191828917243,0.02171508074669462,-0.03179944379170019,0.00835573431069213,-0.018632385218363457,0.06705372130287618,0.10557125161039652,0.007401145018213605,-0.0009974596716392642,0.026657357625452807,0.03645188470268979,0.0344160435942425,-0.030665048123438062,-0.0010357403511413654,-0.05973537154055086,-0.008459423441535222,0.09236604497718366,-0.03823617593386066,0.20292932807349567,-0.09493304487735604,-0.2667784979992494,-0.13529456311674423,0.010424049852821762,-0.42484431333567946,-0.031063187343514185,0.039622771607328015,0.22755410800472736,-0.4476204263892069,-0.026702034178452128,-0.11925403695743116,-0.047177423872545615,-0.18021179905739657,0.31832013141957854,0.17941673671797767,-0.11690650023356984,-0.287804516636659,-0.05663335613309628,0.061491212857434835,-0.0034746806986766486,-0.01583934544722359,0.10266731800058097,-0.13226646864749636,-0.025824114554930937,0.009032170378516939,0.023872075084322805,0.002891877610657026,-0.0435183236557571,-0.2185772253014296,0.2151267097271181,0.1897680332325195,0.29766915981542064,-0.5138485155372331,-0.197525704252484,0.6235615223423697,-0.06361053887631468,-0.007184892770656315,0.350890291294318,0.04157784856478738,-0.4131405652291996,0.8238758608451174,-0.6752954882896367,0.06616514676178575,1.046160433667091,0.050322991618910934,-0.03489445846063984,0.03560957873707278,-0.13645164753323022,0.39993561640462066,0.3898950457837598,-0.6250229662033803,0.17042726470640826,-0.14344245645004627,-0.30671248533471973,-0.49888823516275427,0.44182620931546296,0.507342094584843,-0.22447194490214287,-0.19024806421148688,-0.7463726837986584,-0.8239004975997769,-0.08876596439477762,0.014047025696574494,-0.08661330175717653,0.16281792650125176,-0.734441499703538,0.7611185618231298,-0.0719968802958004
51.82905197143555,0.9792976379394531,1.5074735027939345,1.586684956860395,-0.9065268775957044,0.06271591804686089,-0.4094942037305186,0.17582982064544744,0.5290787996934891,-0.7973617854884146,-0.02826265178083154,-0.12721790256973023,0.1166476616678011,-0.003556336228815869,0.015412945500755903,0.050486715063141493,-0.004599930325038598,0.24292086986240125,-0.007564472647848229,-0.08070020946015379,0.09794105106320015,-0.42225423277784696,0.03982562042284496,0.057807973097603965,-0.13624708904797375,0.1445387074086553,0.0355021180846426,0.0008795614515427594,-0.004693907710268527,0.20056581153259717,-0.03078306887216416,0.019415358114074154,0.09319762078783213,-0.01408627018439923,0.5852100123884211,-0.1746763330350638,-0.12435809219600451,0.0890369470395745,0.10090792015004642,0.13139549748854557,-0.04335823376466386,-0.3065732339139301,0.3975356601131602,-0.03987617287155945,-0.2385821319981858,-0.14000178569764027,0.07004014459435588,-0.5622885778724838,-0.11170092391815947,-0.25571977080096225,-0.40703525374163213,0.0548145971251546,0.1016005585669095,-0.03071230401376497,0.10860179678678986,0.02227923934045796,0.28115544139458487,0.00494911710027679,-0.09880488876532886,0.008243280677905878,-0.012243119929066409,-0.08510953622218054,-0.18703149053527,0.8665177525828847,-0.8729307505983062,-0.5057194214741635,0.4467436267933754,0.38216077473330845,-0.5489005076991667,0.022545069558680013,-0.07363791437483135,-0.43122986688167114,-0.13059780522484365,0.3001238677299249,-0.5269553375712624,-0.46925257931656583,0.462656744919846,0.2796098033434108,0.1083532562584438,-0.20984083845574916,0.45640696839276995,-0.2434155213651189,0.285709456816657,-0.1849572162177242,-0.7586963931893639,0.25719394895604897,-0.23230073785582372,-0.4044868283632174,0.3590593322931486,-0.9193441467814942,-0.24110284292857134,-0.2572411866210963,-0.5095204210129591,-0.3383215910981504,0.14399541372335067,0.060943708253620554,0.42700188144507845,-0.029882906278112804,-0.025623659440660376,-0.5282605220031835,-0.29491164402525266,-0.7847767282519854
52.808349609375,0.9690017700195312,-0.6474020354872563,-0.626357559769922,0.6901288091029625,-0.07643386881026673,-0.7924669333011755,0.09507353684028046,0.07111690664596676,-0.34782655416296565,-0.22273799545642625,0.39839009862015884,-0.4120354978203649,-0.03387349335843445,-0.033020089434268214,0.005670878068263746,0.0683884636132837,-0.09112853997575428,-0.08367473792000359,0.09163312160253663,-0.09018363955101759,-0.013649509437315526,-0.10241575899019725,0.024919977047183337,-0.01614778072801634,-0.1263175642551256,0.4135340191243964,0.4994788431295003,-0.5309752103317216,-0.27767568871600007,0.056848652287093335,-0.050017972420268286,0.001988560169792272,0.09253156866350154,-0.05201803619895207,0.009530066698397793,-0.02128813461796366,-0.0391866784083134,-0.008939026920636722,-0.17937288652588457,0.19875324453930443,-0.001276123768741172,0.0021807896666190436,-0.46999820560977185,-0.10367613420410521,0.2678030476766823,0.07845009199248663,0.7594142311458295,-0.34050670316449944,0.27430359492156,0.03931467389709719,-0.2838197467124112,-0.16236025004224477,0.0248048627731602,-0.1461515008970784,0.17379987458767845,0.17164762853888482,-0.03525277605959612,0.0062737333159067175,-0.04890312108536771,0.04639674936489689,0.004876103332352215,0.008179417716338233,0.19526771275982804,-0.09119438751078918,0.6509721572814718,-0.4173449956186776,0.12824089170882924,0.3107411532609266,-0.4399948896916051,0.5527103470906393,-0.7258595536845049,-0.2116474582302759,0.14268337051773233,-0.15424307016508723,0.20038873134573573,0.6052851001314931,0.06606335161505286,-0.3539005251752818,-0.35117597117442856,0.04519416962331335,-0.10109708672852367,0.4841849270559015,-0.10217648234003035,0.02660686887206085,-0.18574882446564894,0.07721871326684002,-0.5353245717647089,0.1153392828659936,0.25795592571564335,-0.2574229216746293,0.02341014240935406,0.676643290989972,-0.4474892831550788,-0.43468768616618314,-0.006579285656261549,0.1382424604497634,-0.4653776839677387,0.01661650439778778,0.3635944795902512,0.8091206754158244,-0.8706753531045482
53.77735137939453,0.97869873046875,-1.0102379083057478,-0.30668359972954706,-0.26137800176060444,0.7785646528757455,-0.665116967430696,1.0844298219003277,-0.32878295081525283,-1.1675020644979461,-0.28865055476438006,0.058879307060250366,-0.07002444400184038,-0.0036633771302384275,0.07115042771711201,0.06125545225221628,0.058672065110390186,-0.25485146702056205,-0.057864860839219566,-0.054171181965189066,-0.06696231959916756,0.05542233710643776,0.014053199490241827,0.17726881066100356,-0.09820092537317862,0.06790239802251427,0.046492194302776124,0.021005473903014635,0.034734413445003255,0.007515720353452217,0.026310061441590777,0.02855458040839714,-0.11665271554831136,-0.050065817666235676,-0.11976853553564916,-0.08812323403523212,0.33391494984150055,-0.03366892983370183,-0.01187836394361605,0.11017674806690134,-0.0914512416078173,0.10388870819503415,0.06461198614910589,-0.14706167449825747,-0.1619709949920117,-0.54634830382278,0.056619424075461215,0.10976913686238784,-0.6458663971433487,-0.19253036833495174,-0.4434562972207106,-0.08824927845565578,0.02085421757887242,-0.005773214710932992,0.10237335777874411,-0.03382683655985036,-0.04418018502255254,-0.025528528638164544,0.08291644612802412,-0.0034214270066889934,-0.11924678284412304,0.47870148697450554,-0.30307497055611876,0.46788072421117904,0.07220727321398687,-0.9687499515291322,-0.17409289730177924,-0.22256097828924334,0.5125496848280021,-0.7602124342910765,0.07233932768814649,0.142879091932384,0.24945323708009864,-0.09527675204343128,0.18221015270410243,-0.564265534843856,-0.547137829615296,0.7088524769540598,0.013320288034055008,-0.2693337543962849,-0.41591349307192627,-0.2190763760677205,0.02699442801443821,0.7267094717847201,-0.43678348773574827,0.835001427495019,0.12045003292856234,-0.26440151970722836,-0.017445130697409265,-0.24694634410277136,0.631427932380914,-0.1186797347548959,-0.32657662554220024,-0.44617547020970294,0.24172001093605638,-0.4269775586498987,-0.006434484432213727,1.1994782554451315,-0.6386109229057817,-0.25981860761929954,0.35868133704993216,-0.03882377506438228
54.75605010986328,0.9790000915527344,0.10309304049633461,0.9469773948733939,-0.8520561306818144,0.12423347404917608,-0.7826461331969212,0.5824725712785519,-0.49222698933712794,-0.05917998925972076,-0.49539995730358266,0.5897121855219092,-0.1970194233752619,0.11388695052528727,-0.03168249868141464,0.04410482949317641,-0.018774478330046217,0.1121039004210309,-0.05669488157315604,-0.08672426439006362,0.060350143567807844,-0.06312854887144938,-0.17176364213209572,0.08323126592062569,0.035190203512309434,0.033607869516118175,0.09531828148502716,-0.09157371954709374,0.0362851551175168,-0.04574534586884525,0.06379391522381919,0.004174732980285336,-0.04088849486013054,-0.014098087699161224,-0.08144009236078258,-0.22748617321062578,-0.17258022079095725,0.13821272488659994,0.7456540550378233,-0.022898411507672967,0.03250962526858318,-0.025474840769745412,0.13541916911616297,-0.18100151814230336,-0.12175426436851852,0.4596303517772014,0.059119953477054864,0.3651196891969914,-0.24935510241889103,0.13404630113131893,0.007551211526809848,-0.11588382112869908,0.005010162572655358,0.02279318811635293,0.05964718472315118,0.026261135448901594,0.0699009766799964,-0.00857052982696202,-0.11571351911482752,-0.01493954016892038,-0.09027576200305447,0.11505946441033632,-0.5153478233621684,0.9207962739264585,0.20503923152681258,-0.8163482231979439,0.37469327627595456,-0.2629891271683558,-0.4158943363183333,0.7352594998863416,0.3331699122903786,0.19497804817650147,0.1106426661775656,0.1498764908204308,-0.36894763709144285,0.987591680672324,0.11967903649323726,-0.47220884121403134,1.0537758735966027,-0.07504276548477466,-0.16343043713110272,-0.3040619233754322,0.41141931765930906,-0.09365234000859522,-0.4547653845905277,0.001556379704526649,-0.7364087576445557,0.1908166431796221,0.1734055703456098,-0.11556726133315434,-0.015545915173717291,0.326517862668708,-0.2862118776672636,-0.6075293109446438,0.41954901955540075,-1.3055176896466736,-0.37339115918688126,0.8725794693226825,-0.2453102082737348,0.31966844359880775,-0.09907853065566499,0.04269790733633598
55.735050201416016,0.9884986877441406,0.3203147720570626,0.7646611668923498,-1.1012640860078227,1.5621751418571936,-0.37674165357503,0.1766517171200279,-0.5226869690673807,-0.2896411819821561,0.519349168721646,0.006070038450249966,0.12507488409001855,-0.13691004837324164,-0.041969356203699126,-0.03398585683349806,-0.11108870491847339,-0.08231733863891524,0.002309048474022993,-0.14333584586836137,-0.047200033938505054,-0.023465764763070746,-0.05684059652824898,-0.1515073543085886,0.04365125736611312,0.024828907185629773,0.013892474733682839,-0.1871180089314965,-0.01544641449587162,0.006357653375639818,-0.020471215439006287,0.13578974911226516,-0.0865187474155204,-0.04031869987290464,0.04366944381476749,0.012112758597732934,-0.03866367524409207,0.0067758783810520406,-0.23903726870570013,0.12262738209647672,-0.020383766352065527,0.15764408751672707,-0.04527456408041975,-0.14859653724640223,0.06903414845189568,-0.0966575091659905,-0.0921396466378413,0.11539309695642676,0.23291361329697766,-0.04797508671906446,0.08147712665817032,0.06496044753245894,-0.1933217222947327,0.1451604355798842,-0.04936461682834757,0.014292820389240192,-0.04545193310961984,-0.013531705997351498,0.011392015035793764,0.03205757895967781,-0.09698595110755573,-0.3038778490426426,0.24796575628313117,0.8398386995719477,-0.8821482317442635,0.9905819200836458,-0.5516820797159577,0.19357841394679554,0.6157513873075933,-0.36774358361197107,0.18211667206983817,-0.14490983806787433,-0.12308870974831025,0.37749067692531296,-0.2147921068060195,0.3275559150442766,-0.39223364134565136,0.48389154750367347,0.6492368036258424,-0.20888893168290654,0.07090903918186206,0.03624517322935223,-0.184337535194948,-0.01806327273650631,0.19233704046312614,-0.35609417662180315,-0.02103257250149139,-0.07106414840299724,-0.1481563188871202,0.0432981859319547,-0.20186110314376368,0.11640374398725216,-0.5989486655157535,0.6295656263572107,0.20943299110189023,0.06290507927053277,-0.299149929617384,-0.3501474288674359,-0.3907192234097985,0.29515230598885167,1.2418545232737934,-0.9197802891382024
59.8702507019043,0.9787979125976562,-0.518294141839334,0.09921778909546758,1.306429932288282,1.5997737498959792,0.39716708503295606,-0.42260857815084485,-0.2837907769390725,-0.3013018738587381,-0.19494310779581372,0.1570481408476358,-0.1592318549392402,0.0890540906254934,0.11672691738963206,0.10423884446300274,0.18965412253917874,-0.015654536744758238,-0.09629132846944115,0.028653874908386848,0.03548637271428232,0.09821800892416935,-0.022950213387494166,0.1589102542521791,-0.22204048847110633,0.09156936883380681,-0.2440040146360473,0.051805361148817855,-0.08201907823028691,0.054989862182459055,-0.03777369616508144,0.038464806904449464,0.05601838456725775,-0.1139862656089014,0.030866968075267506,0.06658546402280399,-0.11769584495609632,-0.07837670395303291,-0.20130172190867732,0.04367286978032954,0.16446009050733162,-0.020608167782055892,-0.34434591973452705,0.2829662542008424,0.14341116177584598,0.1769202226521391,0.4532649531770237,0.09371285652952165,0.1785834938949702,-0.0396237031760821,-0.03296734008843001,-0.01884218269939643,-0.031235073505167812,-0.13463729638983016,-0.011156262337993895,0.012151119335929302,-0.019424652640097725,-0.09617947673087265,0.020512322915115646,0.06603679895400283,-0.08323442347197468,-0.043356022302096536,-0.8454345326533192,1.4697556614970968,-0.5388717980307743,-0.42731933347643747,0.061350674328701005,0.36771577359850094,-0.621437672522396,0.20436393606493092,-0.2691414978745822,0.06985102050581432,-0.18229961804896638,0.3025156289275044,-0.22954733679113407,-0.35640365601571344,0.3846785959042043,-0.028355317184995163,-0.25444653257059047,0.07544636075721482,-0.00706096593656954,0.10497559136435507,-0.1481510484005789,-0.5723647134053882,0.6100692071779122,-0.2490375588127159,0.34747730612094163,-0.16765584717158336,0.20405301963512415,-0.7544649653578087,0.006233776672734587,0.175498866707044,-0.22914799359388638,0.1528131874442637,0.34533068696511693,0.14151342059419184,0.359911385904122,-0.5985950823838753,0.5946285054947593,-0.5765156980000085,0.32895197485601135,-0.17863739524218025
60.84904861450195,0.9690017700195312,-0.30888720132673897,0.5388819750297653,-0.4200375753837309,-0.08554748019060208,-0.6483015513129,-0.13279257999228242,-0.22621732453962462,-0.44527940430001733,1.1264451470598962,-1.0177840374607294,1.6050084080582172,-0.2203287515722293,0.0822435484217161,-0.11169293071707374,-0.06240652908144135,0.013110254774178626,0.08431887435733659,-0.08533727298130699,0.3008997601373851,0.12372223622340113,0.02200453603242263,-0.005763554764132881,-0.0061502471306829065,-0.19745708963505085,-0.05115608316198623,0.09173577889698598,0.08119262746794063,0.02305980078490693,-0.027401550313833196,-0.04807092263565028,-0.4014604638732251,0.4115890019419907,-0.2358105154946734,-0.0807553371997442,0.25295441833115523,0.450469336440621,-0.5835444659935268,-0.14596883358229443,0.20335456853757405,-0.7284803409693235,0.7498529384768673,-0.07711079500114776,0.3145660211948213,-0.542477409651479,-0.013157707515088293,-0.23419503878011216,0.12757473286258028,-0.11601584439128333,0.3133022703648281,0.0017108959753933395,0.08634575506851228,-0.02539004333932899,-0.0044153558742389505,0.06969150922731514,0.05524622968166733,-0.15497525424409123,0.013930964114942922,-0.005972605561339958,0.04745885140758538,-0.055479288749841704,0.03709820615437098,-0.02741165526021872,-0.6979148346732511,0.2533952424930152,0.5213097683090077,-0.9154665418642152,-0.5638277585486342,0.6747026964979898,-0.19115352900952837,0.40396866227853034,-0.39570517248188286,0.7141739544700292,0.14240246101653226,-0.05815195666289418,0.575307413830735,-0.3912472188632154,-0.06169304463672942,0.0008896480946231702,-0.028730095592137253,-0.05786024148511701,-0.204393515122473,-0.36501218100409094,0.9553397026640584,-0.21588719024999706,0.009902941893908423,-0.47354616356664553,0.21270264813350412,-0.6302627985143621,-0.3402228755527281,0.12503839554077167,-0.05667537886014774,-0.5989135990258444,-0.3782119404215582,0.4729137137882047,-0.514693220935108,-0.4385180833956179,-0.14614069353124862,1.069079855029392,-0.4907955000024567,-0.8791946031254303
61.818050384521484,0.9789009094238281,-0.8539233354024851,0.34943062354383103,-0.2761168486211731,-0.11888946609790746,-0.18327082837292266,-0.15543250993982582,-0.8615631615721291,0.5936893977243255,-0.852300442711936,-0.007662217794093637,-0.0023970345023545947,0.032183331366082826,0.19915190514924266,-0.14047645850353288,0.15052306823666745,0.09721043733619945,0.05385770182845694,-0.05596836512330016,-0.2938074193281408,-0.023421618336633195,0.05954424857052191,0.016200547574286253,0.13050412247367113,-0.01837320333444958,0.035601544306431865,-0.010957908204038525,-0.002468052709229616,-0.018083608303641488,0.12648087033785024,0.16507430285245447,-0.002777924166233669,0.049880920289428254,0.10534206192392537,-0.5406979102728489,0.04646550214097031,0.11833525265446244,-0.228492695331861,0.039159708184877656,-0.1743693828164591,0.3286035383753341,0.8257478541060901,0.009814304515890868,0.07227318518395787,-0.2626613283570989,-0.2922638846149415,-0.3913741836354706,-0.044169090442869374,-0.28908622859095534,0.07501534324716759,0.05883568864483256,0.10061584846582891,-0.0910848412558488,0.10934746100579593,-0.04270110597587894,-0.036456343236307226,-0.0005195123742743812,-0.0059629123312024,0.05947009159866704,-0.248781037087833,0.2945555759125445,0.0808556316263979,0.9166097186460637,-0.6365862311015517,0.18073289797458625,0.4397649445926869,-0.960320441763171,0.45466238523305225,0.6719360044983465,-0.47310398555784394,0.07512778564688652,0.4776975693025518,-1.505958538945036,1.2173555599793984,0.397185780866558,-0.45086227499521236,0.10444983349725803,0.5938797143587295,0.030269664164224032,0.3103481231248657,0.3551615403034224,0.4299999757033646,-0.8366390992348756,-0.3096455617573824,-0.4398230485671267,-0.3180244421178454,0.18708525763531916,-0.2641691249593289,0.6257012893550833,1.0190191502109243,-0.9592574772380883,-0.15965394638685784,0.10168599539219558,0.4809865359931241,-0.448413618794179,0.33539479639545333,-0.4644976446410607,-0.12377346910914826,0.1751085204443374,0.5706024062767626,-0.3307565151626405
62.79695129394531,2.0674972534179688,-0.36299202230655436,-0.22294578663926407,1.1620089555895918,0.4744491125514254,-0.907411718314816,0.2440708640254041,-0.6439589924541964,0.975641636389265,-0.15136849204477001,0.4298065799832972,-0.17055894396762064,0.029205961295268618,0.017241893620122233,-0.06646497188060221,0.04530791721446211,0.08405095260269088,-0.016001702224399044,-0.013147490092170516,-0.011393442811517177,-0.09175523695765617,-0.08282409874078554,-0.0059066731566461625,0.061212246699274026,0.01977786779403563,0.02950912934846086,0.10055331614320896,-0.24062934373843378,0.1248695591869115,0.44243843790899023,0.23741799656738977,-0.09615537600337307,0.09021426669022663,-0.15622315173868526,-0.08369511650978806,-0.014151766700474638,0.3144725345869378,-0.061666318879273326,0.2773825540665655,-0.10314979396344715,0.03577231555956855,-0.6869004198330868,0.012230793448843166,0.14267488700409267,0.06794533329805674,0.13004976296352116,-0.05206944061148007,0.09782779366093813,0.05908525973716419,-0.10928684247679138,-0.09777641636713666,-0.17049757305697985,0.0746594499968547,0.014618402984840502,0.058585071131872266,-0.05446617570602159,-0.012312561282859315,0.02240962356940235,0.24048237426483718,-0.034670423358632164,0.23985107237686454,-0.2506334747949956,-0.06666265782692773,-0.1753417908807801,1.2585036255030437,-0.7178183293327954,-0.22451037643585767,0.11964164553642351,0.6259399575841237,-0.5877507032965243,0.7770296986446957,-0.12890814123696884,0.21136653133382835,-0.1723804244048923,-0.44700346382981826,0.031975210023711474,-0.12285254585557595,-0.3309617284260726,0.19581222040222201,-0.16581929907385262,0.34165775604176174,-0.15515752586342818,-0.3440279223496617,-0.39218628515472076,-0.1526160959124817,0.24729701373072943,0.2600293450242623,-0.20292267193617272,-0.3491389201817497,0.0047502052866394105,0.18216346960726196,0.41752975556134986,-0.27686220300582104,1.2083897808547812,0.3537855348361133,-0.12547269541280195,-0.19671842330088476,-0.5433538140347838,-0.7244703421787375,-0.05487498049229506,0.6072219151060435
66.8521499633789,0.9690017700195312,-0.31128082542612956,-1.4820342570683158,-0.19001079642534988,-0.929356707869379,2.269859225595674,0.6377828911865907,-0.573794009234625,-0.9803489024929194,0.19594857172337007,-0.41973976132876284,-0.0765189461863367,-0.023238840444019124,-0.07558966589276397,0.07532675663254775,-0.07215009666912439,-0.22823766558947123,0.32395241306400147,-0.02839424727658496,-0.14270839856193893,-0.012725615756614907,0.06751930225090894,0.01557629508606496,0.0228684518442755,0.011624326286412948,0.0256605006955423,0.004895674954595409,-0.10079320177912302,-0.07318728878433302,-0.04405980833188996,0.0486408490687025,0.05598749401638974,-0.15527654900509405,0.13953969098210697,0.045155344770239074,-0.5832292873635817,0.43830948071805276,-0.05288320775863864,0.1660921584162648,0.06628196001884369,0.06020163670655036,-0.35645943131403995,0.5022533953981299,-0.7375068965991846,-0.44169099022276126,-0.0691806126303443,-0.5931336901177544,-0.0693364972404085,-0.5665410221630396,0.46460313388683494,-0.08639416604147364,-0.18151882899989888,0.016842361471908145,-0.05280656588354467,0.006432846328818144,-0.046711104529979,-0.12492192116607867,-0.13120537726998582,-0.009228798855727737,0.013300068035569622,-0.0026438189686055925,-0.17714322008602848,0.650610825049275,0.05778733435293104,-0.6022420063809703,-0.049126046421838765,-0.6637423488288808,0.1782380358763752,0.3616649563044812,0.06143990090226319,-0.6421334499772957,0.7968097224528234,0.0012661639739049158,-0.028053925295927484,0.01995141993318217,1.1369226949457096,-0.2960827245282144,-0.32236337653433206,-0.6478497588849835,-0.20298765255020154,-0.09382372683250267,0.6085168710773693,-0.3031581121408067,-0.5940166949279017,0.709692935229001,-0.1248433163610826,0.8981293859895774,-0.5246519898227658,-0.34204766156700644,0.00862274619726963,-0.07770317911277372,-0.7298290690757963,0.9448069201592577,-0.132731271065284,0.1888658291937709,0.44283348476173967,-0.6779851475811064,-0.7600196439382382,1.2869283750217193,-0.9852219808989146,-1.279665498906457
67.82115173339844,0.9787979125976562,-1.3047554639344126,0.637977270106969,0.16831038796962913,0.1297797775027521,0.4680218187330385,0.10651750256833636,-0.07666627608253258,-1.0330075102191696,3.3516710200356044,0.09306624165070893,-0.0655562787126517,0.0922167656916297,-0.01857643529295512,0.011300675616589711,-0.04320598936868586,-0.017589771901113903,0.0973580377002416,0.09321836231388574,-0.0684254580017765,0.021566908669669163,0.05122486351529718,0.06741882125663305,0.3725181295103679,-0.06587140961908128,-0.14138300006099477,-0.10074263225376988,-0.24874240026203875,0.10693484800307176,0.04960826615447289,0.04401290923005918,0.026088760119130992,0.02846856237711415,0.09103723930447148,-0.08964403161761371,0.05444998308525244,0.19100228265723926,-0.07818729580128521,-0.25069584192979655,0.23559717713701225,0.12997373008803836,0.19866124459986348,-0.5464229559693823,0.030301717472386268,0.008520613179989124,0.10366715780606767,0.3420920449812914,-0.03143631742909858,-0.09990229997338959,-0.2976426423070584,-0.0747017513627178,-0.018528202478254124,0.05107041541834367,-0.034732947616669806,0.0038228559264989357,0.00560631584896671,-0.008181740614590316,-0.0851282134872948,0.028343782225353924,-0.06476861512218739,-0.0033237482136477675,0.456986127494059,0.042648167937703235,0.022128948546451477,-0.2951998764717498,-0.4903168897439527,0.04758144468198788,0.4170177750375351,0.16162918426627074,-0.2615285320345991,-0.1358086379274519,0.04218621730896893,-0.5302702534691409,-0.10070898312932451,0.5019571634850886,-0.7731965583888358,-0.17110371272433975,0.38466491838230266,-0.3508446437520154,0.0834848215680461,-0.006254007472009687,-0.5258914874159945,0.21010821697120843,-0.8322249312304594,0.6822917269223587,-0.583232614624205,-0.21573456333134042,0.33633345280510313,-0.2880575480174948,-0.6456176743117203,0.1532298322763465,0.8134104670209173,-0.4592319817184508,-0.7412317379919969,0.5478638685858382,0.623517643918418,0.26515554740448766,-0.5833445142846997,-0.7945143734131765,-0.4774028569541665,-0.9129241472443024
68.7999496459961,0.9888992309570312,-1.0290147460042662,-0.09745417114632801,-0.9605884088433791,-1.1201255080683665,-0.9796096633487357,0.2624475124345961,-0.9820591497349814,2.0618315253827233,-0.6989908253191918,-0.22388753437902775,-0.15667420099292984,-0.0704710266309166,-0.048430496670007775,-0.015034524498262532,-0.06500805788257777,-0.13057059812784466,0.0020432181027248406,-0.055318565091632035,0.09080720067451865,0.599393682387957,-0.09155632258319485,0.009228399511689366,-0.053293606711819846,0.030147557272401856,-0.04807968127738932,-0.02363505809659598,0.005063595914644441,0.07571047365407454,0.06619266045172803,-0.09628691435018222,0.11850988010217176,0.04154697094601024,0.15347158531063115,0.0662167713754344,-0.21912714141900477,-0.24421313464072478,0.13811512652390096,-0.23098987607868235,0.47308383509411084,0.2087643126939982,0.09485754861905105,0.2081847655084345,-0.29530200861667494,0.22844748455759303,-0.07463074349245319,0.1713508586798266,-0.1351509108756862,0.31773540134313366,-0.3671196903679784,0.01936973085211921,-0.13792775290970324,-0.053305117709311185,-0.04700970684933272,-0.1774086143238028,0.12728009961103823,-0.07232401464936025,0.0449498477656685,0.04474996468591463,0.0017242559053213288,0.010939487227731384,-0.28958285884111684,0.16070528444405643,0.34075545142458397,0.046810416115817925,0.4489200927537753,-0.8994717921849995,0.6222387362062292,-0.15725518396361673,-0.28086890400118986,0.45500431576886624,-0.560859401853217,-0.08256499401317344,0.8849002365016785,-1.0209450682216996,-1.2104113859990477,0.9746315612533611,0.44379273809865083,-0.5381268424391448,0.06609178121377692,-0.1491325299001315,-0.16205802845679537,-0.09756363022013483,0.21795063034115508,0.191134000229099,-0.20042041454744441,0.08575328318630274,1.6239092327631153,-0.4208389718049651,0.5546889590950871,-0.6517912402937102,-0.5311483472090146,-0.223467457142894,-0.5752721203280263,0.41318275704425445,0.11488081829419104,-0.5262558363808693,0.33751295202416975,-0.36858977745373633,-0.6297629164085781,1.5820538973359914
69.78884887695312,1.0083999633789062,1.333810867067156,-0.16629975892307905,-0.4799074132789791,0.27384064012850934,-0.29579105975261366,-0.24815902026041595,-0.4879363202398497,-0.15768102055970135,-0.5001124694483358,0.20050881184941763,-0.030441545723591812,-0.030793522786234654,0.1438249828021587,0.1575067519093793,0.0443873847917293,0.23931784191605848,-0.1680704959229216,-0.017012014893197664,0.16592807241893565,-0.0458910287012653,0.04548524609353416,0.02100489861856375,-0.015633055649427734,0.1003020851917358,-0.08639270793066411,0.08324503396292467,0.07515758273735905,-0.15955004664217573,0.03444436091188401,-0.038088436554574286,-0.06277026090080812,0.1803648403403929,0.5618169096917897,0.15023238733214112,0.033778954102771826,-0.33950038554209017,-0.15102444411752833,-0.050041445227280525,-0.40313642665863,0.022346385761667503,-0.07422944601474135,0.057247017818727264,-0.21381995101983026,0.3244817934423587,-0.12863274120958196,0.1079952561418161,0.23859483930341574,0.24528225484000613,0.33753461612737373,-0.36263327190593186,-0.10209530200377362,-0.024906665537154114,-0.03150458566947322,-0.0009602557614388973,0.019448468192697795,-0.041393426892194204,-0.030155818955573118,-0.0062802330505249415,-0.1500435132620327,-0.08135454586535944,0.30219697131355205,-0.16787228427364864,0.0749998930223506,-0.1628446268358615,0.4591232408263523,-0.6365734381139136,-0.04717975584491395,-0.09937391448551439,-0.3821335963137319,0.8133716977299303,-0.15680321458543156,-0.23814360021728653,-0.005879152582297237,-0.5470480425811837,0.46091196595388195,1.2672603151104764,-0.6937927259592033,-0.020416644268497264,0.47359665346294,0.1301460371314448,-0.8228872464401905,0.5671431569772551,0.7279753851910271,-0.270777602619805,0.3187358624036024,-0.053211903116596564,0.24314109710362558,2.0868956614042804,0.05152335998019712,-0.25580085132042313,0.17712218466612595,-0.8664269358022966,0.683065086246289,-0.07736933753730593,-0.13231180908982648,0.9232523563748939,-0.2995547918709924,-0.2763590931124297,-1.8162080343537368,-0.9547437840463917
70.79724884033203,1.01910400390625,-1.1501840405284274,0.2993579775398022,1.6041925393220624,-0.8477378848129706,-1.7831280580430284,-0.2844725338607435,0.2866779063979562,-0.4380210190620854,1.040505497948234,0.44301747065816566,-0.6346475194648825,0.12871427998757864,0.013298130538287933,0.037698814588760635,0.0038863969551349853,0.08996514219905849,0.011500485040781244,-0.012001283764308522,-0.09525155463872102,-0.06423885942351552,-0.043394877847212555,-0.11917331377477965,0.07168038750775153,-0.01031584782951353,-0.026838085704486717,0.043342619616728334,0.06610643849417724,-0.0735919229467147,0.041393986395076576,0.026248394270570866,-0.06955453698556952,-0.05862208559302321,0.03007062455160929,-0.11258276192134051,-0.07555739467748876,0.011888135815323107,-0.020318165881958984,0.004270549278590765,-0.05017216625165991,0.05900754326706015,0.06728343645295515,-0.028300003156989956,0.021315784263691587,0.060151971889506384,-0.011074552709077094,-0.08145339756067868,0.16651354799290558,-0.024858712416750906,-0.06509628122824346,-0.014734576517716877,-0.161294422601381,-0.01493043493047771,-0.03384051835712393,-0.09684378131095661,-0.09830417400018186,-0.004850050954789014,0.0005436852989977802,-0.04522367697504184,0.013901311402293526,0.03218256948948679,-0.12639885255246722,-0.03353487250268524,0.13521882549137915,0.23796704524042303,0.13929333573257924,-0.22156633119592625,0.42793013852031453,0.10123637293536171,-0.32860802476722706,0.057089183488855784,0.6885329264648138,-0.5135637568200245,0.02883470310378567,0.21648956616330867,-0.4593172589799461,-0.23456027706396557,0.1852258931129538,-0.0371138756105701,0.12153537128112439,0.06793627499116751,0.018792110851445887,0.4916050171261651,-0.07150696708347476,-0.2518635019783065,0.12179667241295906,0.01982864799574771,0.08231768981903065,-0.16150817554178512,-0.09913402370450874,0.16985866351968307,0.18670677820953413,-0.13129574632959265,-0.009562947710720165,0.8137646318116536,-0.06137459474350705,-0.049580464370419734,0.48509300335691163,-0.13659311707942243,0.298590706405756,-0.8763273067641287
74.9428482055664,0.9988021850585938,0.2406502511570665,0.002107470963176594,0.4906054918973198,-0.7837204264530105,0.3952609691437846,-0.3345715332533456,0.9688305269064662,0.23475958580086168,-0.7885708668538138,-1.5478638897428776,0.13694309656515402,-0.3479532638299775,-1.0319190653038077,0.2473963882618123,-0.4017403292791563,1.1355029130335739,1.7173805884610807,-0.44399797781057115,0.046470108147353195,-0.05466176985398623,0.13519975699578465,-0.16713662965098636,0.4029272037068594,-0.29473673255619864,-0.2828203671001464,0.11894996001228782,-0.256667195138073,-0.09735974860717847,-0.053186911103028645,0.006867673836171893,-0.042278177598205964,-0.09363098919936794,-0.02927709620670739,-0.07073768518331013,-0.12913081307832813,0.01929902406703899,-0.009080625194068652,-0.023589552696706914,-0.06172343680958029,-0.1938266449008471,0.3965554035028435,0.08546527844951575,0.43686952249163824,0.622209816268495,-0.49118479197441894,0.5945606169593064,0.23257029491268036,-0.24437171939532581,0.01486682739685698,-0.03302237337322268,0.03554526302463269,-0.0574043584254273,-0.006248414240952252,0.1251039708102474,-0.03396991994377635,0.04939229486720923,0.03342903984118335,-0.0888199310870009,-0.08138433666174809,0.0713658081841591,-0.08441992205410996,-0.037611951664900244,0.17503109867516917,-0.0721848976790786,-0.23162064022711187,0.40711654529876024,-0.6898128814826495,0.7217448735819294,-1.1705946706815034,-0.9798253020459331,0.15406887487366283,-0.5955412135130478,0.5899182466516447,-0.24510222584384128,-0.16434193657980306,0.17372478558216045,-0.3112508249797623,-0.19105283065613127,-0.4796079129555862,0.18742510109779606,0.05344705735838899,0.21221067875851862,0.19920022245350943,0.15979429240767734,-0.27475937662748995,-0.11044465930173904,0.5037142664255564,0.13678839321622674,-0.2391798353096788,-0.031088154414527835,0.6198102315265843,-0.22002844014404505,-0.35596267862149533,-0.00507064277855461,-0.19946745377947378,0.6845583004123879,0.25881418058479444,-0.22371817536744096,-0.6690713286964033,0.399563774103201
75.941650390625,0.9788970947265625,0.33511807682679845,-0.1924081746288722,-0.9178781004641633,0.6775327337784861,0.49265775412077467,0.7625470093279247,0.028236589836928234,1.058853920459001,-0.37189939172003705,0.13366433791249138,0.08985109645451726,0.10580646314083778,-0.05329972934317176,0.09190130036958616,0.15229362340527489,-0.12453110352102316,-0.18584325762772516,-0.06226004529679556,-0.20153295823690934,-0.03975134072384718,-0.06694402840540599,-0.3148711799536652,0.018791796059818622,-0.04146623526356493,-0.020648852382489098,0.02959319789514087,0.08662582192696452,-0.012515322780827206,0.12164493986800057,0.10275480759559816,0.026613307429656584,0.0027471163096580865,0.09648061292003028,-0.01975354263223919,0.006722278899739702,0.07207379455869238,0.15894406654052978,0.27074084389703984,0.16972218777657078,-0.06890894330806155,-0.1855459355595735,-0.19006895507075736,0.31154833092045203,0.26550913717335367,0.015837404057526552,-0.12646882040507607,-0.12236727514844364,0.024053825691101052,-0.1793809344796247,-0.20760451838760036,0.12531370430951638,0.1320444298737747,-0.052755449446210134,0.10874158554469829,0.019148320192432147,-0.04329229563031266,0.016892493586907392,0.058743868819463065,-0.025606501267786717,-0.05453900105105161,0.18331409000610202,-0.32929920974214466,0.6383573394786344,-0.6498956296673595,0.0676812042705717,0.3738060594989927,-0.9975426336666411,0.9362584314332967,0.0655864947877361,0.2488913608220735,-0.5419930347039114,-0.313261513921535,-0.2016830131654663,0.6510256271488913,0.40272998560215656,-0.6978374186155597,-0.40988682144505295,0.5384626353113102,-0.18842224027528967,0.31607257239122255,-0.32226563130019426,-0.5209959840692282,0.6699537044656858,-0.6072878045115809,0.09669516105629761,-0.15379340434325822,-0.3006491940765428,0.03079770446188069,0.28804619100782836,-0.7480387650920943,-0.4818415350341058,0.591579955340719,0.3277025129776978,0.0871948762917418,0.08983505809938033,0.3112988810685879,-0.6536951716070669,-0.46122502965229634,-0.2680753275092225,-0.5482226747451611
76.92054748535156,0.9788055419921875,-0.3141540872301988,-1.0742266115677588,0.35199296216760106,-0.22119386531327956,0.5767718960736713,0.07889404649289594,0.9007786231195473,-0.18407198773697986,0.025336534490975997,0.6911972303305034,-0.1413648421325106,-0.09153263040504683,-0.04802661953482197,-0.17927084209907804,-0.23544460977984785,0.0658816040706025,-0.026837410634002908,0.06762598173456326,-0.006710137438205023,0.09494314516537683,-0.15035811659981485,0.04511344993576201,0.06913346762546219,-0.0029407368504281196,-0.053889938445314776,-0.029141816765163864,-0.03904547799217324,0.017553281598183902,0.07595072781711217,-0.10008127456408913,-0.023933985901901194,0.2926176434682382,-0.0964319427043384,0.412729801428297,-0.30984545516173573,-0.4248211868767791,0.3279671865894621,0.30468914186224166,-0.14304213847637218,-0.21475367484415603,-0.37128634149291107,-0.28029433621919514,0.21039724712911678,0.23587366315232816,0.30978050032412857,0.3740860577245144,-0.506557907553065,-0.5658189877144593,0.10560229148934133,-0.7103834174508892,0.21136536863816766,0.05298508066858062,-0.12668545949664592,0.021683884251247683,-0.03499173695832432,-0.14252046055330175,0.04013759732750355,-0.09416538137646158,0.032506175829367955,-0.192613191451412,0.4333034013998171,-0.36269689979628805,-0.4476922465056643,0.5630238006825231,-0.3625144836158834,-0.26534963342685763,-0.16194505694224612,-0.38541486293908955,0.0038153796029209122,0.10541009302066642,-0.1368522182415268,-0.08334141606183693,-0.18385523367430506,-0.40961482945431044,0.550289511914579,-0.13522574518417158,-0.5069954071925099,1.564603356763394,-0.6519192112334815,-0.22868147207733652,-0.2996792661027546,0.143881793944622,-0.08879052260435592,-0.4663083092777826,-0.11527787552642488,-0.3102757949117552,0.7938137562926456,-0.9020719140095128,-0.09227555853766244,0.38252466160103776,-0.04230831743247419,0.045936728279568316,-0.5428778143995956,0.6732567698610369,0.174270750447326,0.08662256919135713,-0.41315115147646453,0.771688940158857,-1.2393529924688158,-0.2342951398983073
77.89935302734375,1.05889892578125,-0.505854196929072,0.6552119914844894,0.9409215235630581,-1.0361577427012638,-0.48785131129524195,0.18156205476220455,0.296659900872441,1.369529529913123,0.10839085961587565,-0.056882512543386526,-0.5832262148942274,0.07656575540223343,-0.005902421345375802,0.04222458624509499,0.03427357139127616,-0.04844188354055631,-0.32259824076430427,0.11440897143562054,0.0466087594575456,0.06240662846991359,0.1548463388157756,0.12373136902957038,-0.39947972998009973,-0.11785703928966307,-0.02594078539073147,0.05365331364364176,0.03240725966698715,0.3079584404547394,-0.4086738892256442,-0.13185152450205012,-0.5104045152514816,0.14088722907233808,-0.09790328068800613,-0.254399077662676,0.34002878569249245,-0.01211781453231452,-0.6470572008976342,0.347123461558202,0.2678935829001631,-0.10777288485743304,0.48950682443731697,1.533009419098002,-0.09235091182734013,0.2533666783451249,0.7075002376186413,-0.07660748681965529,-0.055082421596776114,-0.10648043145915026,0.10095123539930363,0.08376778035704412,0.04907036409481114,-0.0013923245446968975,-0.08726460826517243,0.0306743923170782,-0.002775205257462418,-0.011503707676470205,0.05232711354591141,0.010533659434556912,-0.08767817838650686,0.022838099967391084,0.06192946264242612,-0.26313801145868837,0.11380179996898634,0.04332862148066012,-0.1444897460121744,0.0853995661171641,-0.4475145575746687,0.4181189535378712,-0.1290704478486202,0.3459576389181048,-0.13112532302653654,-0.28139685658994623,0.34550420619626404,-0.2321613879701671,0.11731823603822855,0.019628365555588303,0.08416697029488787,-0.3592660179207651,0.15965596263532647,0.013832233078668502,-0.20976239925210916,-0.6347835499078939,0.18411416186836316,-0.08598727103377274,-0.08320256974402318,0.39868104783970476,-0.062008374625279125,0.13706910511777662,0.06627203376784166,0.7693613566575948,-0.440184947644586,-0.5669536726784402,-0.4210393879889711,0.3497029899789573,0.004495582323915857,0.14763411234552476,0.09847035144972031,0.26786444976770935,0.066171416002264,-0.7178252909848605
82.48394775390625,0.9690017700195312,0.6549456018780224,-1.0818849416863832,-0.29071107034586363,0.867439079608445,-0.14167139976519505,-0.33579750300712924,0.7526420893529165,-0.08964116214730886,-0.39116008806406244,-0.3062679640876773,0.39697339029821643,-0.16882877771826407,-0.6166735259526724,-0.5542233413674508,-0.15508775373709113,0.35875438622419914,-0.4788834239488696,-0.16869531878845356,-0.058119247670108065,0.15963208133511889,-0.30284471751715125,0.5498266859224952,0.2675184178913636,-0.46760915343917986,0.19886050158863045,-0.07264238836649277,0.04248280097542536,0.175682375553575,0.18387805116719122,0.013041214560238046,-0.01641712384001118,-0.021990706159907284,-0.060354851930618694,-0.08655260419616677,0.0919754269969792,0.25813430071986443,0.1286525508519051,0.06455027928912116,0.003025332837056291,-0.08773032297319364,0.07130236793484149,0.04985438999482189,-0.16278582280148435,-0.3903400983921547,0.5803444198212965,0.13587076095229023,0.5687136436934044,-0.296033290121943,0.1490694839134183,0.3042692673221774,-0.14595656384657277,-0.05109679606758944,-0.0739259986000567,-0.029003558759497977,-0.07080174831067501,0.026103112585232194,-0.08366105581491211,0.023897830385644452,-0.0819007934214953,0.00864006375554989,-0.03485377724275294,0.1446230318027037,0.20531402953303712,-0.6925055321215615,-0.5273851415732,0.5856088276016913,0.1105117195738387,0.09666614802439417,-0.141084181550278,0.055793589606965024,0.03897797156920752,0.236109261764484,-0.5736169313172207,0.04001499941418388,0.32680025135636004,0.23179440814499117,-0.06888420096050057,-0.1208504867657347,0.3816409951125882,-0.13036034121170104,-0.7872722067147886,0.6401457532294202,0.13674411546806084,-0.5913364091976476,0.2646407095733107,-0.044002616892959284,0.4200921647849442,-0.49719945076934374,0.4977426396710294,0.1509133524692443,-0.33026993110863617,-0.5539471828499494,-0.4194651644702575,-0.18774062890568732,0.20248672165172854,0.7827394412859826,-0.411452301098923,-0.668627705549776,-0.382913438519874,-0.053083556130776505
83.45294952392578,0.9687042236328125,0.10546812337406927,0.33093782056370935,0.6925464772150518,-1.3019321688895447,-0.4029767008169458,-0.04133677252814322,0.00017104268300999464,-0.8707413473047221,0.30047136889817416,0.5231266607582212,-0.2636133468268153,0.13630082559940568,0.3855009846855108,0.13351260189883948,0.14569392223028027,-0.015195226582453852,-0.011203683678850674,-0.12253170591251036,0.07390053038437867,0.08865671007067663,-0.04586675006456387,-0.0716239319471716,0.04123928149228229,0.913236744029527,-1.29095099627408,-0.625102601697819,0.2608827319624519,-0.07685903635841207,-0.08198156361877855,0.026369840444113765,-0.05736192176569532,-0.02790045758569148,-0.009063353007698928,0.048164637366166003,0.158430638547224,0.08143240469698268,0.2003116237199988,0.19439985735310505,0.4173951838952734,0.39808204345963194,-0.013200811581329755,0.07503811367694131,-0.1626071807088853,-0.27129878433881593,0.1767712620253916,0.29283570662446035,0.5302362987483944,-0.2908045403300449,-0.23496214293115497,-0.24732205805257912,-0.10425727980536224,0.0005803032555134098,0.06199768065902316,-0.0972189373237629,-0.05556785936350873,-0.045380851914992866,0.04067242494369494,0.04430963474888305,-0.012094547732365315,0.19012233058570946,-0.7693328043820347,1.1335222033782795,0.3081156619026439,-0.6396626239231931,0.36344711200381175,-0.34097517128961097,0.2560592032020634,-0.19929482561194822,-0.2388404022748368,0.39112182323151734,-0.010416882342930431,-0.670537055836173,0.2988743360946861,-0.35567909812137266,0.24082736294395463,-0.3842649075505704,0.38665632602092115,-0.3129195020341803,-0.1803547361711897,-0.1523286262857827,-0.1977811883269001,0.0431863677092123,-0.14711207796936893,0.01576614679347435,-0.2378288556188324,-0.05802923348470736,-0.3335532812748115,-0.15351080903731185,-1.3516927623667752,1.856883164742226,0.12435747341363129,-0.41512099825019855,-0.2109083231245184,0.440986607218438,-0.27251333202491085,0.053355077524163574,-0.4964229599951543,0.1622450488708989,0.5784429302517905,0.7615690039250802
84.4216537475586,0.9788970947265625,1.3914638322781467,0.06814069589266475,1.856567804545672,-0.43621187696199654,0.9684290513408241,-1.402771541681718,0.2956718170758235,-0.2714931841101448,-0.07640322213255318,-0.17269326569240387,0.11356151919670353,-0.03158743709529168,-0.08272689818843439,0.19952355196605392,0.0533738558568128,0.17887812092461802,0.15366267948642984,0.0370258720188396,0.11441712451844752,-0.07592136962390186,0.02549005928827343,0.011456331305493228,0.0874167236466025,0.014164642477797503,-0.14049848960993813,0.03115452434260395,0.16750579556603568,-0.0649132119265417,-0.09471747383494694,0.10783595088477839,0.12564722168801665,0.04796943355401599,-0.1780612707820521,0.13138705565078393,-0.02878888287207093,-0.152191645012021,0.16383013069043453,-0.16217819667326483,0.32157237472553246,0.21509743851378516,0.22091355482527156,-0.2032548961430722,0.2514233208321739,-0.17464401420889666,-0.18394940802214674,0.07081838881306482,-0.18878289506561624,0.06363811313140667,-0.1566747907115321,0.11018887175958843,-0.23803001233607826,-0.14052934643408874,0.028027680684833557,-0.024685466346200138,0.051635223593322496,-0.0455485695524987,-0.003207286507144129,0.049690453812863335,-0.16321369149005593,0.46041737373727526,-0.08320469994222891,-0.14632762894019724,0.16617076039170903,0.16318915152572963,-0.5456727248194354,0.1814473789146054,0.3130417049512962,0.20669774571034427,-0.11025258686436328,-0.08589795363460825,0.45923821337966114,-0.11511105059390928,0.4352506356177529,-0.4816002909257958,-0.0697310076970392,0.41037549458268613,-0.15757194196361196,-0.1280620870184967,-0.054586049197161944,-0.3292285840764365,-0.20473217565496823,0.2785897885650495,-0.17171023517263112,-0.06727120775382475,0.12492267803779813,-0.3871670443004464,0.5147587687506392,-0.0312839255942276,-0.1903112384508297,-0.7065612805734995,-0.8472445861909799,-0.44392321113496513,1.535832589718689,-0.30347619623692834,0.3452901699933225,-0.20428107091096143,-0.0493841926535033,0.4262976982842505,-0.13020124418967755,-0.11671515427459975
85.40055084228516,0.9886016845703125,-0.09949640872291826,-1.0445684562381878,0.4707777292387981,0.3461202614150648,-0.8116177612352008,-0.008032984968420961,0.5263845147235742,-0.27548453115722327,0.08701043719809734,-1.5372431575576906,-0.26221750676583283,0.13923677139405158,-0.09001197607230785,-0.08625525431314708,0.032127715791706604,0.018879013262212793,0.04987835354911019,0.08486157340744174,0.046400186707328324,-0.006115981856189445,0.1645595713939652,-0.07963072718348448,0.08524928268227391,0.0015444612661996513,0.04513101569107428,0.07475145519014949,-0.016988646763073257,0.043493873692610194,0.005967610038814351,0.02542712026219681,0.045344437431717344,0.03297983938831573,0.24866693564114983,0.17493620405838184,-0.11479306506300602,0.04772701845331328,-0.20859612751877704,0.21268084400791912,0.0651539498234963,0.30267720115212504,0.3176246962919971,0.38094728368335046,0.354584193639575,0.23250504738701597,-0.2942706857943286,-0.30012178230215075,-0.20346367817759464,0.20891647957652065,0.305922678842282,0.03258432433466232,-0.35387989583158264,-0.07961097109963544,0.02730881432799872,-0.004257965451681958,-0.01926500927664702,-0.03569506223769524,0.0396691423973206,0.0219706135051564,0.055440202113634034,0.03986614993906648,-0.4599822395788498,0.34035083197140364,-0.35983958202348926,0.6711933848084126,-0.04667653460681609,-0.14509110632891795,0.01905290964781087,-0.586852294178031,0.05837087272872867,-0.5589935472056295,0.5939340453204502,0.019530583473127465,-0.10003101768207925,0.016915194977685677,-0.09003279261361069,0.4267887994499658,0.18038194401495805,0.11622054988525293,-0.11046599121837938,-0.1070335027192493,-0.026420415097749762,-0.11136036890852105,-0.03182229475043888,0.012324016603317917,-0.2091949015213448,0.09411554917048848,-0.039539859160514834,0.049650609989370875,-0.1591722754894423,0.8401440967845835,-0.3128552137943115,0.2776844700401048,-0.07248510541375891,-0.04770055529975091,-0.59026272148516,0.7686439163215695,0.29513399545880314,-0.4541160582089818,0.2510788065321569,-0.48468067219128497
86.38915252685547,1.0491943359375,-0.20470384247487394,-1.1869986368802659,0.6198540930048678,0.2790265615761539,-0.4643814634640776,-0.45368490429369707,0.43755273443782067,-0.829369999467231,-0.4356953977496073,0.5005603942014931,-0.19049735817197866,-0.14414960585595799,-0.08975073115651293,-0.40202728427948164,0.05506215324795588,-0.027210444718227332,-0.024572053268151567,-0.014391194193504986,0.021728428180932288,0.37475096816134257,-0.21836635686062583,0.1318398923240287,0.24195814386293196,0.5504840814591259,1.065858246284185,-0.37636397575538594,0.09097508378225176,-0.4985500711745857,-0.023199523374799892,-0.12232892486550467,0.0852615928209892,-0.07032593520958923,0.08946488225934698,0.19476691090747192,0.35003413028603153,-0.07708278724834305,-0.00217850889539882,0.014710557176610864,-0.09831541648102572,0.040876679391195256,-0.03669628561192162,0.030114506742863423,0.3250794356250042,0.11904057241700582,-0.029369862543632698,-0.0217888445313862,-0.06915876829925141,-0.07950548833075625,-0.08571184059844476,0.045869412046883044,0.04440181498907812,0.0400209774809316,-0.017538091612648174,-0.1546213297022883,-0.022551523304246285,0.03628640936986395,0.017580043407911923,-0.014730237714264122,0.03520669173919737,0.07160406542990554,0.02333678670910766,-0.731394272874445,-0.38917618252586,0.35243145129029824,-0.27990718126299224,0.8603213262133004,0.19914302496578948,-0.4031456986639618,0.30422491110887606,-1.065541576680146,0.5178815961464096,-0.18692549453971036,0.12714552756940478,0.2471830308929115,0.17082980073626503,-0.7227161418620852,0.1390377253163026,-0.6829745760322197,0.42338966957603485,-0.11799811666915787,-0.0522549199203524,0.6402389772610757,-0.3587671309230513,0.13481928176550134,-0.6548985052681646,0.06929268302842284,-0.17268695760654115,-1.0939844892752248,0.4895528956369763,0.11202578113034732,0.3857509058325417,0.04686469096453638,-0.22014248911164347,-0.0473576596200888,-0.37476817661724926,0.23067515049814377,-0.25470987261562195,-0.9600419474618993,1.6852226634115628,-0.9138072975214127
90.52474975585938,0.9687042236328125,0.3500915557675988,-0.5856945351801452,-0.5129721102814551,0.08836687328530152,-0.23457497147987677,-0.14884332234063194,1.2951608785860098,-0.15955167064720138,0.5002820064428628,-0.19513389236172102,-0.22727531977730075,-0.3038233272101375,-0.5254005223684601,-0.6122622920890971,0.48810192951903064,-0.17089481296427803,0.08001132332704294,0.055616381324445095,0.0007196897516360632,-0.036978289840631784,-0.12220346175932188,-0.18759186463102107,0.08852847062018913,0.025115631466814295,-0.021564825073331455,-0.0034518286209052063,-0.05029531922459921,-0.034953603085034646,-0.028475161919347014,0.0495169606703242,-0.14404791511840898,0.10619210893402599,-0.2599605347894272,0.16495920433747546,0.20987467963997125,0.19466195430748748,-0.024583127390534823,-0.3833317521447482,0.10284232577287927,0.1738132985814603,-0.3060393292947394,0.1444038040617675,-0.1329466437301731,0.2695064613487553,-0.23889690325690163,-0.26615573874923926,0.19449550572329521,0.048971221787457594,-0.11376700698291389,-0.19603303940596398,-0.1753556463289294,-0.0543297461157042,-0.014423002572447408,-0.1669873624007396,0.03497884451355612,-0.012047513939504975,-0.00045083517959057474,-0.03093180141829375,-0.0020857287360087455,-0.04421937649324853,-0.10681261082627207,0.5547388098244073,-0.8044433307173908,0.22783364065735415,-0.37640254932980277,0.8982748293735541,-0.05283631481360629,0.07765442748497577,-0.05288676957518028,-0.11585870631443101,0.5572520726614921,-0.39574291995593625,-0.3349098040869968,-0.16662943192325677,0.3691643500596242,-0.8209895521185038,0.5361312981208548,0.15262793603015523,-0.024103800618547746,-0.13440399973685044,0.05624471980822076,-0.41937990132144215,-0.5991098062130993,0.044339295365525985,0.043544358418473275,0.06795919847171514,0.3625360154552143,-0.43282235209034087,0.22223779595470708,0.5011387922306438,-0.337099768443464,-0.6512513444043899,1.340202690056492,-0.551135201677285,0.31267160989000115,-0.7816740560371274,-0.694765776779668,0.1617092238269654,-0.031342888522257084,-0.6848197102117435
91.49345397949219,0.958892822265625,-0.6623639939808728,-0.8451841918195041,-0.5145644622848258,0.9383849706957338,-0.06510215200210163,0.250229085533216,0.15998567684468137,0.7580585021764221,-0.5673502332966428,1.33979695695335,-0.17316870571692586,0.04877960651723846,-0.05066566176804553,0.03696788433690459,0.015930591166472937,-0.06955435386608307,0.030179442261826676,0.011259285167658813,-0.16185964879269568,-0.010331434113320798,0.040609338692827394,-0.30066678810685454,-0.02327210299026483,-0.04977564313967042,-0.020098398392444615,0.15513781481258915,-0.040242415748424104,0.038058731565111706,-0.045267049722611696,0.23105856297436336,-0.31085257991985754,0.46219884410610607,-0.09564955689960827,-0.010423742582419668,-0.35751780896843677,0.48151917342589273,0.2384740488257656,-0.19782905649858426,-0.16374991725942217,0.129042053145804,-0.043856709994561545,0.42370267342572443,0.3687548278460362,-0.3241050864357187,-0.18787127756963176,0.20642703635595488,0.004880458157717829,0.046787536812183256,0.11550388970586067,-0.1697858514892737,-0.1455445537505187,0.08030983468382458,-0.03966227200138542,0.051235502128388566,0.09467719454802201,-0.008467343356109519,-0.05166129362171915,-0.09269552035043452,-0.13325107117462545,0.5622614975374206,-0.39020861465664497,-0.4245878686868875,-0.128787535215545,0.9139976944415565,-0.07003191182192624,-0.8015981515194044,0.8284057265739995,0.46685698892469646,-0.17917351810111384,-0.3238593304170566,-0.056495030936026355,-0.4101906834112399,0.15650642818811336,0.5964702850431227,-0.5545758044728343,0.40278921393903616,-0.5347195725571998,-0.6567652952262322,0.18566202971975201,-0.11666192528297117,-0.0650393585507783,0.44645043369758197,0.3681258594220325,-0.457349101165764,0.30123266254267056,-0.15687460635467146,0.610202913965063,-0.5040974718759124,-0.42943411385919045,0.1356928719847055,-0.2473705204153289,-0.8232459812642017,0.15547525884753222,-0.1366246348392427,-0.35414497216600005,-0.3809059449217499,0.2825120931553339,0.14836802684724293,0.8554577424153376,1.3304239782784668
92.45234680175781,0.968505859375,1.499704964419477,-1.0537964198824294,-0.6026244275976794,0.14137488429990322,0.6725740221605729,-1.6339949059323189,0.225466321862835,-0.5104967027352023,1.4016052915301251,-0.4256943750890687,-0.23459425855576527,0.08197058443217149,-0.09707662398490022,0.07414636354203541,-0.11472781773480885,-0.20037724372736293,-0.02020696523772802,-0.0725188502541143,0.021220198576650112,0.06942284403875708,-0.31100773064732723,0.05734149581742513,-0.020260643849418725,0.1726969308824535,-0.32139908197799477,0.28653246722574527,-0.146862450298348,0.11092467127621965,-0.13807940200775187,-0.0434394230257798,0.09613396569891795,0.1795080589512509,0.121214459415748,0.06074634168178434,0.08415664260391482,-0.057021511859135676,0.10538716927709048,0.0032743076053276254,0.10156699526826213,0.05420916350999524,0.012512664887867316,-0.09595247405339093,-0.10054499034369214,-0.4563865373923464,0.15510772916308194,0.39965255069938266,0.08984243624379168,0.306488835866494,0.018027024399943366,-0.1768449514412649,0.2659745154678172,-0.07530495501809276,0.08723845709138914,0.12752973307368284,0.04189982886051934,0.06896113434587588,0.043532458077778745,0.00032793638399432063,-0.008821993587035403,-0.033654895446298586,-0.19288182458579012,0.4628537591559837,-0.4613029748389881,-0.5329182049468856,0.11119896922157793,-0.45148476419840455,0.7785139425981081,-0.4621266331139276,0.2708422528327105,0.0071105300278072325,0.2057802096941481,-0.03504502823595429,-0.515584711204756,0.05844390095492867,0.35450303059693355,-0.946520182183727,0.4586424090410328,-0.12335589344561547,0.09780114333510301,0.40803668973972596,0.3783941290569256,-0.09036184811312455,-0.23184231993426274,-0.09286258916918846,-0.0036577907578992166,-0.15285233978562957,0.14898485963921082,0.01463285947722548,-0.32751556511572927,1.0266586076613415,-0.41431993181319693,-0.6188763853320896,0.2840439052164313,0.08906577160293136,0.08495256181506894,0.21483881059617504,-0.32543952483352523,1.1239780067243494,0.4737012493942884,-1.6364683737812518
93.42085266113281,1.0388946533203125,-1.3263592357212717,-0.2252317121798435,-0.3844838977240986,0.9535076391733238,0.9093755232350142,-0.4124443807357384,0.670862895779777,-0.22780727425654712,-0.471514894913964,0.166870319984409,0.0810594655426452,-0.014776231772419705,0.12006502599389865,0.013984058293443888,0.06115590965022226,-0.1777643510714162,0.04809030384141602,-0.025627404232790574,-0.0902248722869973,0.010773741459395143,-0.007627067441987757,-0.06393155154108668,0.09772465653809165,0.06694460958277211,-0.01586935053357469,0.02527070349669333,-0.007530498630729757,0.002239199553372923,-0.2729371258234764,-0.011614997666763794,0.04428975067819184,0.04130393776897212,0.019596133308267316,0.04323781403165324,-0.17886116034227054,0.26371470463610786,-0.03515043131257982,-0.1526667507504291,-0.076795107828937,0.013822887747888571,0.19935069168427683,0.07736496252728664,-0.20214164572831014,-0.4333278158601927,0.0011981864774144547,0.0991934123329498,0.5561734328341412,0.01042178441904565,0.26227010744027573,-0.04992468282679946,0.055163316313541794,-0.10104456246021819,-0.2011257955163692,0.08595759938719313,0.04002170921740243,0.008274792964842386,0.01733486106840117,0.006422708489015692,-0.021602044153257813,0.06876481766630442,0.23349185771641862,-0.39583960216594,0.3619951654342797,-0.6221861363906412,0.3252209697286228,-0.20135497998085744,0.5331186610296987,0.3348568554646556,-0.35214690855239916,0.1836511052221363,-0.23799609405252703,-0.002201383462903425,0.18948264029557144,0.1999691614291937,0.17311097984420978,-0.5772747412985094,0.0700799894371563,0.861761238307756,-0.6446724774921497,-0.0756689593496343,0.41455523436048547,0.5262958466015344,-0.869368746187735,1.202855940904878,0.5862912663799783,-0.30405008496883557,0.8002175933849144,0.8322058250085401,-1.3202633401975203,-0.290392673589723,-0.11752830597162124,-0.3588952057176748,0.45733513915530405,-0.220164269200483,0.11186015779050293,-0.19615968251044072,0.6930314087796666,0.47024263904395536,0.15767048053449667,0.390806646028
97.8862533569336,0.9587936401367188,-0.5273733021763901,0.22971043051651832,-0.2801131401214991,0.09344801988920351,1.6871641087902622,0.19855405444012128,0.48834578828806596,0.9239093625139284,-1.251403044779686,-0.44151405461362997,-0.0983318624651089,0.16936397404889442,-0.003121374010642247,-0.4186041070102017,-0.3796421151635582,-0.05918975384959613,-0.037010421402672695,-0.017471925934355263,-0.010578416639693533,0.005255842150648054,0.08121197131793263,0.003982220881463754,0.1117238399616087,0.029861480134858284,0.15724259367529264,0.10394411831071831,-0.008875360660777687,0.0069212661869102535,-0.1478676932090204,0.05637806427718238,0.5541355533721894,-0.20162723504083835,0.2002684788995553,0.2834380735460874,-0.040280211799068266,0.17629573239907884,-0.08442915848098179,-0.037162708114164014,0.07214781189681843,-0.43883179888741375,0.22692981120588385,0.5480872577621856,0.0806430598755404,-0.11833270107296338,-0.227328915242275,0.15275535979151217,0.439868187115085,0.0701274857005888,-0.20834930695115286,0.4836701778522039,-0.006685788656761407,-0.08928622419857829,0.06263883302575453,-0.06960582535583422,0.005006275646795936,0.02301728431327071,-0.07518558809717794,0.10206499239974243,-0.024875956714373093,-0.008829533490725735,-0.12895694593631285,0.04216740189298046,-0.02250330538977474,-1.014357557944929,-0.13584818098454365,-0.46485585147816977,1.1722641359434005,-0.6091710824594478,-0.1828811115982881,0.8539958705717546,-0.9807292252691465,0.20371592000457972,0.1570220148078505,0.06202100446117737,0.25018807876899013,-0.4160309862717035,0.07453461722051641,-0.27338279781885927,-0.023931116921856514,0.7668988645218411,0.38378710671310634,-0.7145152124259307,-0.240321733313139,0.7900523668204875,-0.20979734478418144,-0.05425023155642525,-0.13215611842510427,-0.1273985451783196,-0.5364247802830935,1.4915644947279283,-0.7743240918896732,-1.1275796779700786,1.4838047243710535,0.44890060195180637,-0.23451999217420252,-0.18219278555803436,0.5958430766467262,-1.173736669030053,-0.2735339596023213,0.9361335678233357
98.84504699707031,0.9682998657226562,0.7892887399738704,-0.2259601323374915,1.1315400265737479,0.13683902902439765,-0.832688558551098,0.6923713888425085,-1.5112788785624707,1.3692886978897194,-0.26386994421590954,-0.28063728796181653,-0.23039809574088113,0.06504814684373375,0.06799982078971029,-0.01912634228977528,0.047531634560116894,0.0793704213804385,-0.0556712384976944,-0.06426803220671826,-0.019832425564322728,-0.15231824114084416,-0.1958716492004779,-0.012907618690556108,-0.010100298697653243,0.01669406506575459,0.4853083558605797,0.22380530024156026,-0.049352986887940126,-0.060423153631739585,-0.11306236459523321,0.01307985630676156,-0.2030943353360748,-0.41159499169098246,-0.08165076569360923,-0.085119866135062,-0.039715209039510965,0.024144258798427982,-0.2925100501752186,-0.5712497315890461,0.1522739569076999,-0.7005883975681481,-0.46341796777899597,0.2493145967865908,0.055265473344799976,-0.1692063210199667,-0.558391899960483,0.12121448528494448,-0.018085664676284505,0.045238007154058346,-0.21834555691843477,-0.18363803445325214,-0.21219704995473626,0.04724543532563535,0.07032933401240656,0.1741286407330289,0.10345227716436296,-0.028912288531696435,0.053540518585563884,-0.01980935212526542,0.07488603980567576,-0.3185884635294881,0.14672762761060892,0.9168576286170692,-0.22263433741165828,0.2548671880708784,-0.019714458730629075,-0.01776130446123074,-0.017437576308018607,0.45412456478980356,-0.5384795099427008,-0.037081678339955466,-0.2683688046046806,0.4194181337785294,0.06390374795472688,-0.454217960716009,-0.2947282917945867,0.5966578656588468,-0.06006894628516008,-0.027940079804215014,0.04926025166574724,0.3802710339240689,0.6520391242184228,-0.41541571152014733,0.08170013061193507,-0.5650696420936546,-0.6903037659934512,1.4653941860218298,-0.41768982382062675,0.2613523961950488,0.5390445297425615,-0.3668270603636485,-0.11469451308488024,0.8255752915961825,0.36399301671766116,-0.283137467308744,-0.19960344342538014,0.2723631374750931,-0.5024420489952003,-0.10388032901285467,0.5893839154401657,-0.6067567671725771
99.81334686279297,0.9692001342773438,-0.5335731084017459,0.39359470467518476,2.518753332374747,-1.2061040433179904,1.1306311234713249,0.49629230630588145,-0.2741067443257526,0.36658268853951015,-0.3249570149222557,0.10452868047783984,0.04471001876167345,-0.0675247778216749,0.05609414420938781,-0.10956291726833425,-0.249291620947606,0.25410282503080445,-0.022110749354182266,-0.07077469934853438,-0.1385166817976449,-0.11891232749220199,0.02250794827606293,0.0766246232506313,0.07387632203966801,-0.016412103454892118,0.023362265206285773,-0.00023570176781137833,-0.05109517588916267,-0.004336687502156153,-0.036233503623306795,-0.019703242034518675,-0.19420128467294578,0.0013108989730215858,0.0437280071803922,-0.10875225824337922,-0.10500074574045715,0.04137066670391767,0.21218074758854547,0.4984941150718486,0.1351045456178323,-0.15244324786794336,-0.18548438835411582,0.1956895996611791,0.27212577831106005,0.6892861196399673,-0.29337002482934965,0.26806566799232406,-0.24871994938413103,-0.020602029070593227,0.0057243732345472476,-0.3417324683974159,0.12688217243654498,0.2538311955646892,-0.027115287209742513,0.006735751429891532,0.09835744034144066,0.010930489197684728,0.014021442987757335,0.018254557305254087,-0.0719619642277591,0.07630998004418613,-0.7102482307246955,0.8045962527802665,-0.29915493227078926,0.2998666803335444,0.09125711543584801,0.013965473933078013,-0.2795193086483917,0.5921090529222297,-0.12658175052509713,0.08083970758756578,0.5887915594339338,-0.44088712715456546,0.544526691458969,0.4828171978131463,-0.5031455964078084,0.19898765885632308,-0.30525304588321944,-0.3169315091281021,0.1341355083775987,-0.49396481180707036,-0.06292483624932568,0.3363930007048466,0.30066273363138996,-0.2310256774991489,-0.1525044547589118,0.4077899638472575,-0.10797733085894543,0.34400545390012255,0.08111330589141538,0.12117614404127693,-0.18052227607913346,-0.5128129926163667,0.18822483207973909,0.33702786312364985,0.2783375248148967,1.5253074379159812,0.8704303883420481,-0.8726757843387798,0.9310406165713483,-1.4291935797389266
100.78254699707031,1.0188064575195312,-0.8222902476660353,0.8541619259679119,-0.4100228613900011,-1.2030248058970807,0.4528671601666603,-0.210485203669168,0.3586639920655995,-0.6475573291546834,-0.7280400002771865,0.8146387900307981,-0.013929730318715148,0.04604392268141686,-0.029724476143127575,-0.14757956751656215,-0.20220667641051054,-0.07610627359873552,-0.1353533678192463,0.04502008596425922,-0.046972895972002486,-0.06712765774109843,-0.05009068313761771,-0.21020608620023076,-0.04551604508646478,-0.002682152504332962,0.035540988179696135,0.0879856971097473,0.03237299142715239,-0.010040479138732007,0.03724569153487969,0.0947858687004193,-0.03808040104629481,0.07631045223069247,0.15219914296952244,-0.0024469861341869376,0.11946442851102715,-0.008323148374133912,-0.06305503566686578,-0.1632680996793924,0.11715868076281434,0.09940403510218083,0.17293473310801724,0.12817407651177792,0.11079212392912383,0.16316888901020815,-0.08964052868897304,-0.12478720113297216,0.18851869548706976,-0.12091212102923668,0.08061991476100555,-0.023879665708235503,0.11194645878601905,0.2156632267910392,0.06552981113780579,0.07448708267968235,-0.03245909666764192,-0.11219790951633572,-0.018107790005296425,-0.01850754083006822,0.17930147736049912,-0.1304734141963137,-0.07892529457308106,0.6843576670513731,-0.5361694310808884,0.16413392087978362,0.7703781848540869,-0.6069366720395157,0.35566915751451955,-0.4606464837497367,0.24437338745064902,0.3379155231894326,0.2151670276536111,-0.19372660807465986,-0.2266251478232365,-0.052931616773820814,-0.6771095746674559,1.1893341870426806,-0.7834564376524612,0.5895150544528784,-0.24172810974002698,0.5086663138668268,-0.09118740401490683,0.057569712344030424,0.03321513634764097,0.005692575770477493,0.3144483405741851,-0.38253537163099505,0.1824075702498752,0.16757084025544403,0.8385398302023751,-0.22284417539285886,0.3394222550330743,-0.276971431734488,-0.01980644737618366,0.056109865590034065,-0.1288368532280342,-0.5350576160125873,-0.6107784988664986,-0.2222204423095437,-0.29783726157153895,1.8007145502008397
101.80135345458984,1.1285934448242188,1.939309132463786,-1.1069161230344255,-0.9879746346208421,-0.41153448222210615,-0.45477785588600567,-0.36758185791186987,0.14588256068757544,0.9059674600054789,0.029141213868366427,0.4184984310731237,0.10439893335279962,0.7270541286826233,-0.2596308657335722,0.15549856211764018,-0.07796879817272176,0.02375486832608742,0.019277177977683482,-0.031937079301045466,0.04380033130828756,0.014157657343896273,-0.020959910918752874,0.008149501197479876,-0.18580301629956805,-0.00917280518829064,0.005396887388995574,-0.0006233187185143617,-0.005872395926224737,0.013654953952980567,-0.033433306225426514,0.1643881926172443,0.027436887599442485,-0.1159150842203513,-0.1825307540211432,0.021710439229063808,-0.04745444257977041,0.0026130267454543468,0.09500962794148059,-0.0028222472485860215,-0.1694881341566672,0.14538131447426267,0.07520139610108288,-0.08799583665219689,0.2970828329158081,-0.04740212901242556,-0.013172978029845196,0.11136274984041372,0.01268244180567997,-0.21007241592862183,0.04888875482326499,0.1278819019000098,-0.10443591970895373,0.11711191742128449,0.09051091997790188,0.03478564370524611,0.019676275752354238,-0.043462973610711976,-0.02842997100570814,0.009426616501057479,-0.013196625067806132,0.018122814589716332,0.17434096068248667,-0.026827969322455486,-0.35444208870932203,-0.37538986032944954,-0.7804498641998754,0.08172929976418145,-0.011213204734583523,-0.25561268336887666,-0.2686668320805318,0.13372953592748543,0.17687677884450417,0.05782188011373769,0.03689938613370928,-0.2857063152596892,0.25441557474338033,0.038049951342654,-0.45926429653758155,-0.08150869063735496,0.3509352194090749,0.14038198759562534,-0.13754591799400956,-0.30508208273411436,-0.21134553852575333,0.07731899091804353,0.28276076670762507,-0.22181080641684403,-0.020081918209904133,0.10491877632365211,-0.27860218068999726,-0.3747170054651584,1.6187573792004,0.13893205345640636,-0.1836025860770904,0.4440485746916695,-0.10653246981371378,0.04702652729618087,0.06577129657844968,0.15675318985100628,-0.5891450387068142,0.26592429390797034
106.03634643554688,0.9592056274414062,-0.34558805046009977,0.41735321411363346,-0.5616921159011092,1.5376162750468694,0.6601961796406457,0.7139091633217923,-0.5237129069662505,0.6205037175708127,0.22383139801487456,0.023870866935137597,0.10756350680744912,-0.03851108834415453,0.017882390980328414,-0.10214451326612702,-0.3021878110853517,-0.10446037964262013,-0.0741310418068349,-0.12210634349444136,0.0101786187447577,-0.059786254422648163,0.02726737292577565,0.09290354392276651,-0.12737588567712485,0.03040548709884625,-0.08562629434398981,0.01721409614999465,0.10010344165067556,-0.015061455837618115,0.11065269201478722,-0.0360810027685739,-0.07298410987314402,0.1304484516600425,-0.07805968191747711,0.05080696898683194,-0.0028491261949819104,0.2051500862648295,0.03902552244668922,0.18723360103801417,0.2434476706696667,0.025620860878482813,-0.06406785855292657,0.17980834565709522,-0.37949384973318784,-0.19442744253545496,-0.20236238283066593,0.021146447692366427,0.1397862435010055,0.08228769970910896,0.18291171348715066,-0.40567909157678034,-0.04807804953188399,-0.10289703340183823,-0.0761285582539023,0.041496695370043316,0.06623558197014702,0.056318571922255284,0.13673963571277573,0.11694471559791966,-0.018561074732335328,-0.04123522343978152,0.1110230010643497,-0.28022392294082143,-0.06257477980839675,0.6514298173896568,-0.21581160742256492,-0.35005699829517156,-0.020036560951592314,-0.29059859980397995,0.3012654994224609,0.2247312597054938,-0.23830609487303442,-0.5702312976178198,0.2666498045871663,0.29764125293263216,0.15586391575044883,-0.6258497056324749,-0.03800136311552374,0.5944989043127662,-0.13489972573855108,-0.2828115111724086,-0.06202252605229479,-0.163849611616589,0.25208296064139446,0.08711270242896585,0.20728061815212398,-0.23755965655014005,0.3122900380559566,0.11643367477907421,-0.3399301637901097,0.5209767762574442,0.3894078772957124,-0.8629889513946613,-0.04725666085048526,-0.25768804961682695,-0.20741693411724674,0.18283354331057514,0.24070081850263314,0.16525967906719108,-0.7659350454814536,0.2936193703614436
106.99555206298828,0.9682998657226562,-0.17727874096114282,0.17826995591150724,0.17066935984765613,1.988884759179019,-0.6340650718188245,1.3110286706872454,-0.8276871884982736,-0.44411656119143966,-0.20120341986242768,-0.13387718918495117,0.08740827569037943,0.03721692531208867,-0.014578686647936996,-0.1111857313957494,-0.5075168538743613,0.21189093959941133,-0.31347311067701933,0.11568012827539663,0.039316651622138786,-0.04530012508168855,0.02635003629121639,0.08230858503183755,-0.07149841992917663,0.4564038064057811,0.8941975198039345,-0.4172093800793505,0.17453282872556025,-0.04862722358443815,-0.043805605420954755,-0.04554030367044837,-0.00787906941900747,-0.015292988163052884,-0.10028933766322244,-0.022710941687073268,-0.016456204288134407,0.130636792802483,0.21441056768263764,-0.2052034123282086,-0.10043074746834971,-0.11221641297700567,-0.006685533315258207,-0.5776257292118716,0.016088241058191347,0.12149648099040303,0.09538474994010876,0.41982576884775846,-0.49584494530455214,-0.05229615359284806,-0.09648607133700808,0.09169844052802105,-0.12816904666108525,-0.03993398000337176,0.21286745531043605,-0.022314289877085353,-0.001951454105963504,0.004071501413421441,-0.04667855716404633,-0.08345758258897228,-0.04176140101906801,-0.011705019680074112,-0.3375312211742619,0.3399462525574913,-0.5663126871223065,-0.09112427095966397,-0.192485201728677,-0.03242323395125729,0.5518832351021185,-0.2982170579237673,0.24812752718284722,-0.039910320800091374,-0.0815861526830105,0.8947210415137078,-0.3597037803215619,0.5256687038509364,-0.03726083355607161,-0.9246607601231718,0.849202489018431,-0.6423844249229173,-1.100330571828953,0.6006703262903423,-0.24562657431204232,-0.18199214418666051,0.5552217313673683,-0.0746081032712958,-0.09958151629057058,-0.14667942183738636,-0.03340376694544831,1.0556146161988302,-0.40568699809394776,0.22155873571071483,0.8141496385983887,-0.018782262576115413,-1.4884562490350417,1.0015110849112587,0.12541366264588347,0.47042788920684386,0.35997792500990644,0.5022375894614202,-0.5188533252612025,0.22688318210761604
107.96385192871094,0.9693984985351562,0.45046923571154296,-1.084206169391164,3.314243813485047,-1.3691668997882502,-0.9729560533234523,0.04693128128005898,0.4374699374593037,-0.031128272121712847,-0.7765386734686772,0.2924512775855245,0.5927633155670204,0.03811645806673497,0.13011357490348505,0.03199318191870652,0.05645572942352202,-0.03616476411339949,-0.3804244221982556,0.04365883698450192,0.06131528817795382,-0.016562733579940404,-0.025192102003506064,-0.0675968161693471,0.017403809731948654,-0.007978235824625802,0.0746234217975414,-0.5222783196259003,0.18368382645514053,-0.11489973808526073,-0.11834149418126848,-0.19918834227461868,0.17606999885214264,-0.04136751999726077,0.006610995668422576,0.16649378515438398,0.21256594052326463,0.11139641324812666,0.34417291502234526,0.6205294261330808,-0.3200596875873186,0.22826239155729192,-0.11979908481562816,0.11318927898037945,0.6339366489333866,0.9339911424773046,-0.2866307548614163,0.07896929982006556,0.0781539107620181,-0.3092807363400991,0.23408763606132088,0.255196492891657,-0.14746246423612813,0.07473840873076655,-0.07382155703145798,-0.06935105286508719,-0.0434329109165365,0.012523873629051071,0.08294859511342012,-0.02986591167837374,-0.006309038996407581,0.1883298798802339,-0.4330905994441119,0.329880989156949,0.07352206032019676,-0.020875359853815646,-0.29483803208426573,-0.5824692975260567,0.15166737280994097,0.00845696288008618,0.19260843020955704,-0.02588688909644463,0.3824169420224888,0.13480092688576123,-0.7932651301267865,0.10658955158784084,0.14886859871044317,-0.325969163556422,0.3976114674528506,0.3188075702560349,-0.17262044362477308,-0.6884510519121901,0.17509464157378823,0.2680095039057346,-0.06496875715756231,0.02516722276485375,0.2875462373743948,-0.08806098916459026,-0.30109538920319484,0.08633619197923223,0.04471859854592853,-0.17532987049755938,0.5373522473329116,0.4572725278996692,-0.2704638213600041,0.33411769243702927,-0.0875098329312429,0.17800811254666307,-0.6402624431065237,0.03188978769829254,-0.3434289016157149,-0.4005999547383345
108.9332504272461,1.0188980102539062,-0.9951443768401343,1.0229005330315135,0.3590872442898658,-2.0945619848862473,-0.0339697418340991,0.2051108673769378,-0.037350463206565085,-0.12722761355353784,0.41458924127482444,-0.07060677316855904,-0.33867445237656174,0.05504621355635728,0.02711329260375217,0.06800929921807895,0.08866297393449415,0.13564171063250255,-0.008951678967164794,0.08557861470823938,-0.3005633930003677,-0.03681168170317973,-0.022783236475652693,0.09380610063932342,-0.016956321812458545,0.10364313346604068,-0.09130399908381483,-0.5133298709318396,0.26391253680291243,-0.17299221183949426,0.06480318019392976,0.026941990397206458,0.22406213887280277,-0.13481066444817652,-0.13170509068657651,0.030757900116528125,-0.1603970048417476,0.12696885598145535,0.41654694433075046,-0.336235617101334,0.040091792130388784,0.34358781627840845,-0.08145917389008972,-0.2889822414423336,-0.29769957935453606,0.29617453141205013,0.4587953694009397,0.04790885607633855,-0.26004586768368,0.03187169301016474,0.013907069040715689,-0.025869273591039264,-0.10491803214767727,0.03544136245403207,0.10075409066727233,0.06570495184039854,-0.05020955577124594,-0.08176497899957832,-0.028300818546729795,0.05202554171746045,-0.11000405198629622,-0.06984329169359428,-0.0870601211131088,-0.5528781186690946,1.2376347234688132,-0.0840444889985451,-0.10188405902501332,-0.23041395911706203,-0.0517045629019498,0.09162867240917486,-0.2603654190397105,0.20477696468042744,0.6699987328973371,-0.31440408921582846,-0.19413517055507276,-0.07828955490332556,-0.018621684520451067,0.09084717009755595,0.5834924914334864,0.0008256416524642235,0.09470019084731529,-0.30032180868975633,-0.02046464308559753,-0.10610884495213874,0.07616696003764022,0.7135868330775407,-0.4515540716942871,-0.3244628568975055,0.5872171299733985,-0.35707397472895896,-0.02700061073672785,-0.4429720014427739,0.6697399136435818,-0.19314142843697432,-0.7024770967557789,0.4541438210917853,-0.06430451135195593,0.17851239128962426,-1.0770586488042622,0.6221363420168005,0.10296593356129105,0.6644215964515807
113.42765045166016,0.9692001342773438,0.6891296090914428,0.8971551099953221,-0.6742918925641431,0.6156659042210265,-1.5303583271908123,-0.3261019684245818,-1.7271639443283868,-0.47084209202859584,1.4612784092709117,0.06462922084038739,0.008065462782679457,0.11736421099506858,0.09413399985455657,0.07301625654474828,-0.014545751212489355,0.0011366103638531105,0.056864546745733234,0.01971916530371763,0.1288961332578223,-0.04740090307223093,0.02676395347642623,0.41537996467938343,0.09742847908390619,0.10372879149890986,0.06144633618937776,-0.002432743361287192,-0.010970836169910687,0.04785534449489561,0.11554316448531095,-0.04520334644157997,0.0844141768213693,0.03544497483974098,-0.14928129466258871,-0.040019469175611305,0.024975967301988658,0.35880280929579705,0.15613869535991398,-0.10855291711116548,0.18578166372158317,0.16793982888975603,0.2990770781341979,-0.009938332433162425,0.6254917995098048,-0.7349381268821302,-0.07240958684993246,-0.42774407976795037,0.11400619523030185,-0.2208208455309477,0.18250610913248583,-0.05934666960626722,-0.09815983244982754,-0.13124038041001285,0.0039056456822946445,0.028863289588493,-0.0070716291557534105,0.06145186646306196,0.03428123226194231,-1.4248222575243084e-05,0.12120022610008077,-0.003049806675348079,0.22197799581156646,-0.19576012233842494,0.11944264676899691,-0.5105717455338066,-0.07412610138029488,0.17695316312393813,-0.40396043222975464,-0.7309674172412488,0.22625442171936577,-0.5232652352742688,0.10375160990253154,-0.5558489398509088,0.07625097916834209,0.41701320654509155,-0.007350068713522645,-0.36435460453812757,-0.20402031717483077,0.05823641138921518,-0.15316483003185302,-0.29557652688511027,0.26136406995583794,-0.13981150174014503,0.48348059286765416,-0.007146058931930967,0.07893995032182397,-0.1573189017555283,-0.1333044266161896,0.5506486706178337,-0.40976153265284915,0.0028599861923230274,0.3678786834394976,-0.5773120842819071,0.3618609022440642,0.04441979921297948,0.028054500493120554,-0.06157250684050492,0.07090760369532083,-0.03246160403398085,0.7360644288748505,-0.45078008631690414
114.3968505859375,0.95880126953125,-0.5564559658207446,-0.2863228799640982,1.612735038470638,-1.2643401560089402,1.0307554791657632,-0.7808217996412891,-0.6947024319312218,1.357054122302142,-0.4302480961345496,-0.2076538717598519,-0.4349300194151168,0.25010688542122655,-0.2318954748704043,0.5180988992354568,0.5099185871180132,-0.27090852101773016,0.15137640639424177,-0.04211109510307291,0.0156577557164994,-0.04634964741311531,0.031431776695713454,0.08515837003697965,-0.1136003786467743,-0.35632997091300933,-0.1640650753658974,0.5137886905186552,-0.14147810531319382,-0.15553310948407506,0.09195199388940287,-0.15688845634577606,-0.13074117712774552,0.06917329598184573,-0.05136691428431772,-0.13012231670222474,0.0332104980255739,-0.11570818924231309,0.0646516325953288,0.24917915854155398,-0.03385676540254856,0.008590565503853285,-0.00801932318626771,0.14183791289764125,0.019094043555611534,0.4849382225957123,-0.031202202687783398,0.16289275253340182,-0.03267528414395151,-0.1003643838630604,-0.0011672806141267977,0.2553019578232546,-0.018749442459731522,-0.06798574821689056,0.014168541979865923,0.27219863754870544,-0.08736462234854182,-0.0051436716993627915,-0.0014419716144511532,0.08707572129902706,0.06327635209325685,-0.024000861421250172,-0.022644771043745848,0.050925508450629244,0.15775052717978208,0.017607423978284187,-0.0753823737658159,0.1724242064976695,-0.2746477532319229,-1.0102709624691626,0.8542936764720211,-0.18979727174843153,-0.35154285383294226,0.16231526743280406,-0.20203595018310055,0.36719307121176925,-0.43930197713942504,-0.34659069575146056,0.25353552395605466,0.1827911747713498,-0.4917077186129214,0.0027459399255264864,0.2576672510875067,-0.1842778820678364,-0.263241539693269,0.3685287220396485,-0.3139787853937263,-0.033699061764282584,0.6968096634114651,-0.41057475927868614,-0.5815372306059279,0.08238972224597042,-0.9254459271476115,-0.15115794510746267,-0.057537597652195516,-0.22646859333219593,0.7936017145117437,-0.23104904516416444,-0.24844009588599314,-0.35700966961720043,0.6709906027397552,-0.53122257576434
115.35565185546875,0.9691009521484375,-0.800790363789497,-0.9237193981637476,-0.4300380060659488,-0.014752678931173324,-0.016577899924465622,-0.28771453221620336,-0.8893986678189326,0.8012702021662341,-0.5662070795351429,-0.04328434596886441,-0.08415463483159227,0.08100055112001267,-0.010714056755674401,-0.07756898599549523,-0.10442158879296279,-0.006753245129175428,0.005351633587115363,0.04855237274946489,-0.058184772144665206,-0.18152014849001677,0.12554766482240803,-0.14157248191553115,0.12077309760702501,-0.03272857349435063,0.013098205989673466,0.09534074805056358,-0.10824521613689762,-0.09117814701253373,0.03631214752244965,0.10112960963321695,-0.12356916735547255,-0.03728003431221446,-0.0714091787431599,0.09097704743585963,-0.08415613679701439,0.027412884047739127,-0.24430662459894542,-0.24080601363231566,0.10050006900503385,-0.09056797854280983,-0.06590972103270272,0.01953401068085537,-0.1212036773727448,-0.15676203050371704,-0.21738132745875158,0.016067532713288285,0.32790967953372524,-0.012468897007276896,-0.25196486948934493,0.014619565125979995,0.009151175926032689,0.07771629888568136,0.11081678486109822,-0.07240357760044662,0.1078916428272392,0.009267243840538258,0.0007557434678488704,0.04522678866464522,0.017911255729118718,-0.004444351820749953,-0.03765694470344562,0.5833345432419436,-0.5064026349256944,-0.07006567971939198,-0.23134258233103064,-0.5847254771513725,0.7590220712962733,-0.3415671107719724,0.2784554590357528,-0.6011572009645462,0.10190454319897285,0.020195968835746647,0.5359600911841562,0.044565833931606555,-0.42099885322103636,0.5997663963982212,0.3269572594215953,-0.3211442307406057,0.11737884698246129,0.21484162096105835,-0.8823512180979197,0.2068143209018091,0.06300940631742528,-0.22864481236431988,-0.03404554944401523,0.5157773521708591,-0.11578133954477823,-0.17390661903146176,-0.3299576177680456,0.17307501063396935,0.4656789832596379,-0.1366727672142332,-0.4171561896966345,0.16877123732409055,-0.07445100495640161,-0.11946373989236381,-0.01588757300697087,0.3988635355818578,0.3315475770977914,-0.13457479698690628
116.32475280761719,0.99859619140625,-0.051813912912260035,-1.0375773333101859,-0.11064378123088696,1.253780318186912,0.37288662627184443,-0.3315490591406768,0.17357771826798313,-0.5842298981499696,0.05246316505298193,-0.15801628895683476,0.3574857396974564,-0.027229598712867648,0.09512264101184296,-0.13580022329575653,-0.1975929081910702,-0.032584585732711877,-0.12034456639040465,-0.015476235855872546,0.003571894226865019,0.10566945779996932,-0.04404094663504437,-0.11082943040424531,-0.2649590399335965,-0.003357335795131323,0.0031563677109160467,0.04126748818327416,0.012689207341342521,-0.025688438872935464,-0.047315382559260315,-0.042574427381451854,-0.13436429882335607,0.00447557474604333,0.014279921589669559,-0.057014023767958985,0.03365623789468521,-0.06046620421886163,-0.3359293869382053,0.0435113952968571,0.029424384803557357,-0.051661892403254965,-0.11542380345158934,0.1934697710867861,-0.14827323558401018,-0.0660383441939357,0.1268171367758478,-0.33269640747821216,0.18337341200563084,0.02154689725797715,-0.08108836316031322,0.14770674225116456,0.03270685017195603,-0.008010979779918298,-0.12436634125322439,-0.019446685538033366,0.28980378923717354,-0.005749887428189558,0.05197291038657596,0.06162999812177299,0.011977371882009785,0.09413991025556762,0.030360667726843135,-0.23247419968723754,0.3556096155439922,0.2196699682624535,0.26729887383985595,0.11416475725102278,0.3384032539014125,-0.0547024158271599,-0.11125725235380989,-0.008843823109748489,-0.060281918741821705,0.17090928091398425,0.5566969699770626,0.295163265412956,-0.06224863142884306,0.04849387420548404,0.35402107886937045,-0.08015505707620746,0.03926209737399172,-0.1589180310863328,0.1911776358558483,0.33328120262952915,-0.26417566206035487,-0.024642909269730534,-0.08455940110818383,0.47289290931325123,0.06584561196761318,-0.06198613726654048,0.16417312741055762,-0.19552351990010314,-0.2963204243899975,-0.5008227845998133,0.37313087884808255,-0.09419415994057753,-0.48098943701786356,0.37266011138349375,-0.042921320511892284,-0.027085798289791296,-0.4276583164281299,0.4176365465855039
117.32334899902344,1.118804931640625,0.2936240852300568,0.5409906922487545,0.381566905051201,-0.16734627715715922,-0.5453753342559469,-0.20372725465012115,1.0877406421181712,-1.44300914664622,0.5334916562600779,0.743552173617516,-0.212553058490966,0.48070799034948486,-0.004193417738002251,0.09349807918721838,0.06406335787280446,-0.04486900565540118,-0.15149215437396407,0.044842336802712976,0.03984368478117528,0.008061247207178955,-0.017789632716820252,-0.44218624472452456,0.06594702364706109,0.041733083082628165,-0.1586099619567643,-0.010503198929929,-0.026736818395477834,0.03491287484684892,0.03939283955710722,0.00433171280516606,0.04822311004354134,-0.037466993447578964,0.0667320079492083,-0.081200652399731,-0.071931204758189,0.08647087845444754,-0.24298342285270277,-0.20745854012243026,-0.038074871513227596,-0.13902505816694022,0.01954732645801245,-0.0042610283486329975,-0.0883589696817369,-0.43723933155164907,0.08069779180105477,0.00010208632399225093,-0.25577971294428503,0.21493101600045716,-0.24360210002615307,0.15526997510466117,0.048692753416651365,0.19624096330802654,0.0907494195734253,-0.08386511175790623,-0.031134159241115074,-0.12361969495222404,-0.07870980656402277,0.04009231381036655,-0.047787866678616495,0.10587849956644221,-0.30078007740363216,0.6964308685329914,-0.23937995015116809,-0.2212520736913299,0.19481622019365893,-0.06019121278598305,-0.15101914285481524,-0.044280846971135185,-0.023439847844943237,-0.2677111009049824,-0.31209412898972944,-0.11484113821462502,0.300456185830978,0.6706138077449616,-0.6731242311451564,0.019182987060299944,0.12668125528206764,0.379837704590913,0.03714857602246016,0.13221271760098868,0.15647402614673273,-0.07484394074362305,-0.7238938495048893,0.4666521484197991,0.2437719254651023,0.2843420453543206,-0.19283673441622254,1.0532095295755242,-0.5796787692503136,0.9294167315691408,0.7749955785671812,-0.0677096924074726,-0.6008154978570422,0.3597513484156025,-0.051287453135423405,0.38788158998779165,0.02233263888758771,0.2083508785988849,0.019593558373455264,0.1573592940614359
121.50855255126953,0.9688949584960938,0.3215062859336919,-0.47965863210417053,-1.0597543799672309,-0.358730916650472,0.12578284996153194,-0.12134341668237747,0.7035925446236709,-0.16858505518199704,0.4579363881775763,-0.3935859470847477,0.17044423677399684,-0.1268184914981161,0.16943851475322377,-0.12861833745947357,-0.13744428462402614,-0.21629993485613136,0.027508420592312458,-0.04919494440590891,0.018305992658941443,-0.07121922311525415,0.004754489612531342,-0.035562315805230435,-0.10628006875407042,-0.018714260946143042,-0.061731472968364176,-0.04353568661817674,0.040682445704410326,-0.030624208815098534,0.00505960782683054,0.0049439301075128485,-0.006443995757062546,0.022626299495643702,-0.12271459442251226,-0.2668893905112752,0.21143957405177743,-0.25520451755602475,0.11325714687513355,-0.03540058696294334,0.06772785307594109,-0.030367132716916767,-0.020484883965421304,0.08366157754687464,-0.34308162850388235,0.05004673786945119,0.32102853443617474,0.29522322243034393,-0.35185207326430934,-0.5245062728471211,0.18752787815355915,-0.02886506116486602,-0.07905892677086922,0.03299270674155162,-0.0036020423225915613,0.1647058715343361,0.05626224743408916,-0.11273214494009728,-0.046956537032753605,0.1402090261746843,-0.10556674281349715,0.24253162829005426,-0.2701959709847478,0.7152433114464458,-0.08225790893003795,-0.3322109306758068,-0.20215015123928348,-0.06643117405918116,0.5367141330277803,0.2391620440372712,-0.063662583142687,-0.1513737523176583,-0.14897591780044922,0.2217229106303858,0.03223701848770036,-0.3630694232024839,0.3072284318652058,-0.06452821702817804,-0.7406404057827296,1.2101022015402247,-0.07031067986643807,0.4476916060423033,-0.4571027095124624,0.03531838623682968,0.6493664552788055,-0.2660173032368738,-0.09067780456923893,-0.21111550499363052,0.1878382077500287,-0.0928324183212531,0.15468362164691557,-0.06360865154553727,0.14450675699223983,0.5860905148133854,-0.08582855107006562,-0.12117463062848222,0.4207842369965991,-0.23209180629676862,-0.1494824549350246,-0.09747988621698411,-0.836532491907937,0.7849579519612305
122.47744750976562,0.968902587890625,0.5424644697153805,0.8985512230133024,-0.8961944033934224,-0.33887536062403223,0.19521911023713706,0.7178330282943215,0.23149372262830806,1.1363680004723895,-1.2309763548360877,-0.417615091009965,0.09355328266763402,-0.0209844945265711,0.05598017488008806,-0.013429832342951361,0.049686705041536314,0.03368905529439458,-0.15244577655760155,-0.04045552135709866,0.10112773000501038,-0.08175050093954109,0.18960710025614838,0.11216392008695861,-0.015204228175010775,-0.041996617737673894,0.13177154411463318,0.0031970666087544146,0.040195806811886545,-0.03425847958846803,-0.04162711315711592,-0.040600012678382764,-0.001413858971589642,0.019974201788409942,0.08157701285558025,-0.13559968743120834,0.014610740105834828,-0.10947307228909606,0.06051583878539227,0.01861682935568035,-0.03370157037546105,-0.36497138274985674,0.010990231476455496,-0.5815892024231915,0.0550213584143786,-0.06741035233655508,0.07686315679601449,-0.4359761902141345,-0.12765870378633207,-0.22284612434477205,-0.19027890468624367,0.003280454627117046,-0.03066613628463647,0.13547581873634215,0.017050668502312967,-0.032467616793214325,0.0009386903145259524,0.025880390301034728,-0.09697640578610281,0.027795772784461756,-0.1042333282786133,0.559994601993992,-0.526262638605008,0.5938233865798636,-0.44507389986178014,-1.0974849882551632,0.6349498271521593,-0.3244405694838797,-0.44682279082375514,0.02373696055853969,0.10606648445252832,-0.26821408677779546,-0.2918292941897395,0.018682921691725238,0.006655818866879132,-0.009815666057995484,0.49585006197363174,0.03423902145408647,-0.3036541462422387,0.6843107830320153,-0.3659494413849068,0.06522260851636384,0.19252246248873423,-0.12502790713062012,0.125832553799745,-0.24444795250769058,-0.05676775694000802,0.2931807826317536,-0.10106282580295561,0.0769212536879106,-0.23531230561350336,-0.07585163661464295,-0.3718811890142717,-0.6289433318070294,0.42048470963674467,0.3970926499950014,-0.0663733189846476,-0.11811619729837536,-0.3304173272639834,0.640788908422418,-0.2313069957160072,-0.46299397101693385
123.44635009765625,0.988800048828125,-0.38214159509305456,-0.8518860836472141,-0.3492134269001964,-0.9943758928947836,0.9173964217271777,0.09900162189888563,0.17603890295073962,-0.2527765647193289,-0.4822881764535786,-0.5086883126301018,0.15025002195043627,-0.035710773457568915,0.07769384317962887,-0.053396671968879636,0.080959982075897,0.04040634189460825,-0.11451350416538879,-0.03293951551422377,0.007574314023846762,0.029686935363424094,0.03480007313102066,-0.07819104067636139,-0.1684459717993358,-0.0005359910851472098,-0.17308170854263175,0.02625160585946888,-0.1941541245102792,-0.02166046034738675,0.07781995092685426,-0.0388970797408254,-0.13357071248404642,-0.08259232770547298,-0.011047858784766761,-0.04385939288188306,0.021616567242832813,0.054250992766474986,-0.21824821450715978,-0.10131173462579027,-0.09705784010530262,-0.17896526214681968,-0.083270667569979,0.08718161226905971,-0.011513377471306735,-0.5692069791552102,0.25235813795306045,-0.3117113665678605,-0.15794757450845853,0.10307953293879793,-0.09451378938701796,-0.17126420015968863,-0.008897252400877496,0.008697909951459776,-0.026838112541394572,0.024869503150297817,0.0005747255751103332,0.003966844153206268,0.00701328526653305,-0.01492116088471342,0.015935596615691074,-0.06968063959833833,0.2940616218919058,-0.25862064430180765,0.3408376897520899,-0.10149206067418454,0.045791058929752326,0.3794789774362782,-0.2397150111436845,0.79479187066503,-0.6410842614633581,-0.07526039847058019,0.09923992120520972,-0.6499511527003046,0.8010772185479201,-0.34386447238444795,-0.07170772907873263,-0.07680068453114226,-0.07079867053169035,-0.18471308577018275,0.018776186975711727,0.2693717667570483,-0.2331654650411751,-0.5259826060643602,0.27618065521991175,0.412984646752536,-0.017081540566447135,-0.021239127641783623,-0.06802172441125595,-0.17599849078764257,1.02264648677825,-0.22498318411868545,0.35860531341291474,-0.1837548729639395,0.27885376999668254,-0.19335231927026839,-0.24228380220548798,0.21883900687282234,-0.07895541686424164,-0.5293652085231384,-0.5710735228141481,0.9154040816315167
124.43515014648438,1.0186996459960938,0.6323688092895275,0.0494877215582431,-1.2338761899152442,0.7949176840309222,-1.100204210276326,-0.10737415650492539,-0.13132368051576881,-0.010409326653483306,-1.3473319527189624,1.2162283876760538,-0.26544988837617345,0.19934998594612693,-0.21069088064987768,0.00624506997615998,-0.13436834411484944,-0.03588037764397054,-0.08826941108297788,-0.017823321088073225,0.05480576185040547,-0.041978866299318046,-0.030460950366059572,-0.19303840759851734,0.00463609609795399,0.1622868549216746,-0.00856703210926223,0.08317351236669157,-0.02862863854976684,0.05881254459659596,0.08805018924151342,0.1686285848483633,-0.034962880339636536,0.11779156757581352,0.03977023318817149,-0.04178521295832926,0.022556600142419447,0.02806665404668332,-0.11387035984099766,0.18592128936029062,-0.09129837241689971,-0.2803114846228018,-0.295264917947271,0.6548631390925268,0.0006660021044929618,-0.10631699587650435,-0.08921671557192747,0.055826615897293236,-0.0832770260654094,-0.12959234267280306,0.1638838494752771,-0.06164332899065954,0.030014754922923575,0.04513940050375359,-0.13517185947143093,-0.1421385085854658,-0.0635614643578227,0.016888147834383246,0.0055984018445762035,-0.041227870953566434,0.07294408984481046,-0.25684497093083464,0.8464076418345368,-0.7089000380914757,-0.4080621116024896,0.5996369370663495,-0.5351338362816542,0.6826315596613507,0.30128254161707485,0.3240704452116897,-0.4343901040476483,0.42537355106026575,0.08349124062464977,-0.37011028229705617,-0.3223202811125678,-0.11179114454216901,-0.16520599660283133,0.08703937300722529,0.7884748304009116,-0.17565475406681516,-0.01882729447242422,-0.15234002378411254,0.5318816854466174,-0.5584031739958989,0.8150076924883546,-0.2873542666528334,-0.42404416809913,-0.0077481621268395955,0.37389587617775183,0.08239457351504781,-1.337121099807348,0.20463359173492618,0.6001528437397488,-0.12046649656345094,0.5293630737761631,-0.5066836746220422,0.5272078632809996,-0.2662768282091371,-0.22980897740241124,0.2357646752789367,-0.19478843721699834,0.9057416326379768
128.84005737304688,0.96868896484375,0.4138491244791199,-0.7152896981526433,-0.5778928608532825,0.46701147798979686,0.3129599739102753,0.22555638346075924,-1.6510405992781092,0.4491873458125797,0.9225990531989842,-0.6164507318268213,0.15907189594704566,-0.05297304357297215,-0.05986150744732381,-0.07172946405909525,0.0576414640522319,0.0015260863632583386,0.06472082486791425,0.044726022703372864,-0.08620319201513472,-0.009146228994840798,-0.06715634668706272,0.06362859438900567,-0.08487008857216008,0.04057488504624821,-0.06171460912021505,-0.021119047355350196,-0.08096370308979071,-0.09174956232581934,0.043409544432558136,-0.06614896944923038,-0.08707158542495891,0.09252794600424269,0.06383394838185535,-0.11325827643308987,-0.010558519590195376,-0.11669093806289182,-0.3397991672613967,0.1201503481675199,0.3430830560096024,-0.17266612403438886,-0.07397274502643109,0.08947291339234337,0.34946131125093527,-0.33214400002852573,-0.27073537994898894,-0.08366315267126093,0.266713023310197,0.10801815433620432,0.2725044873887951,-0.04390142779603566,0.035779421390378624,-0.03545036179313339,0.0961891265654703,-0.1591008658091128,0.04118940186720547,-0.0031584847585671705,0.05617339057492644,0.02114271615428183,-0.022697407982949565,-0.02801985268081872,-0.08218034192343712,0.2192917519273332,0.04101031817553755,0.30989442834968933,0.1378375908612451,0.05780705090907151,-0.2724353645048902,0.07848170135707129,0.33506370957071646,-0.20322377135322117,-0.24114613387625158,0.2537489201415379,0.046099070987648094,-0.5137180845398154,-0.31043177655377946,0.8755879469540383,0.6896977057554453,-0.07292407794464942,0.017932468862859107,0.44350392795812,-0.09736028231349428,0.35383709845489,0.23971296629044278,-0.5724408451014263,-0.2582971632706743,0.02543430457364592,0.3079471747156269,-0.16532932557097976,-1.0991608212504622,0.15032990046727232,0.581923167359592,0.9611290639136798,-0.7441610026336264,-0.31071821011931816,0.28940001179732233,0.0373940042529617,0.24904296149864755,-0.026757981174546613,1.1199987917282734,-0.3874929814813431
129.80874633789062,0.9589080810546875,-0.4275393810654038,0.4324452541852525,0.37052982370095777,0.37537646733623425,-0.5138466253660354,-0.27167395567221625,1.2903902283507453,-0.012700304399859537,-0.8405442357704841,-0.1412940338570509,0.5518243235106862,0.05380627155386829,0.027038409126486192,0.006730027072862193,-0.02780874871583044,0.017962588626747582,0.0416271835113234,-0.015290466643890421,0.00447669905181583,-0.16450496302675485,-0.13619589813646313,-0.2558259387373383,-0.11361525841990623,0.18342124899287737,0.1354051171239783,0.036034750424825304,-0.027712713574119942,-0.021189527988808382,0.14372392687239446,0.05182978815414214,-0.35006578639449715,0.1013059369846419,-0.005582444948960064,0.1249483836839884,-0.22718724977157886,-0.07578784224221057,0.12603992058861882,0.020460470876750174,-0.044048990084988346,-0.22899490609046852,0.10525252930183958,-0.12802185007593403,0.200171090238492,0.38297611614488924,-0.4511654300986126,-0.18368929576891577,0.09442113488350609,0.11550462910434917,-0.09611116188631133,-0.0832744341924592,-0.02835773626748269,0.07343991768722256,-0.03658072501348173,-0.05740788438182648,-0.10210342388447076,0.09124648542331948,0.07294205610084717,0.34360798302781326,0.08338882587055171,-0.04319608684204739,0.08937214044594344,0.23586021065323115,0.10043671148311359,-0.4818588226235299,0.34852536372370796,0.250536613433948,0.056886798137279745,-0.8247357411417531,0.3133861052575449,-0.23280027585107804,-0.23666745321897859,0.11517873298907463,0.9007652499835067,-1.0221364819855394,0.9445478771234853,-0.23947522729564125,0.058592397676504246,-0.13119235138553603,-0.08488869460280334,-0.29528282728017186,0.3419453885934773,0.0051410637333431305,-0.18862880375185,-0.012902069756052514,-0.038835386562584506,0.14747273077869558,-0.14568240198540836,0.8930615540576512,-0.24986221755982263,-0.2394238130081331,0.32275268284855557,-0.7569316841311617,0.6844347314164981,-0.33503509277628424,0.2685613443712143,-0.33389178697453437,-0.10974953667415555,-0.38521016443780687,-0.18756041577064073,-0.9849709319810346
130.7676544189453,0.9889984130859375,-0.9220920340368262,0.17434308829220901,1.0357086169831067,-0.2592606011787807,0.36120369966148447,-0.0691850118523978,0.06433067358131875,-0.9271236856636557,0.0774697333034707,1.6651737648635923,-0.2920845454444063,0.06795472045193159,-0.011106529705548502,-0.07078385056645435,-0.2040545823022642,-0.008102878196804997,0.003805308080628702,-0.012318492214216811,0.127986240280326,0.05186881104267252,-0.018482446082119793,-0.034861848593092395,0.05012756969244881,-0.03656062381851265,0.04392776625485899,0.010882431660342829,-0.0970825746922181,0.027943521444539675,0.008918525490481458,0.06122215316037826,0.0009096564904586438,0.11270403535357502,-0.009990650835648568,0.021510802114233535,0.01797552381736348,0.026234686997204625,-0.004093962687168603,0.21240586541831744,-0.19828019362271046,0.1314338712340251,-0.10877728998128486,-0.2581838815459616,-0.27673296495887056,0.5459617026079394,0.474607108280787,0.37461703717624967,-0.3141001774131978,0.06594939612727355,0.13882561360170162,-0.04946384373181112,0.057980583968756993,-0.06272789147946763,-0.0721943460664374,-0.11353221893850222,-0.06342412787323645,0.04564712594549107,0.0050265029876403865,0.030288619950187397,-0.02307255407626083,0.02024008203993785,-0.10946718055761451,-0.36094269270171275,-0.2868214477326614,0.044270282406257945,-0.19396921965594283,0.389564325403264,-0.26317679562546986,-0.07698452987442687,-0.6075085236569524,0.1531952377441356,-0.398208786407154,0.3329488031276162,0.22889112853916116,-0.9126177971872134,0.9267578045277339,-0.470439800556215,0.14016687397674985,-0.1388882005940083,-0.11921358320946854,-0.07336363082861115,0.05496853751413545,-0.03165011890610825,0.1922037701589629,0.8384559227390704,-0.4675748832495814,0.43013384353635353,-0.2779559905085801,0.03923265206150699,0.024118579896083014,-0.2851663022493768,0.1449658589899947,-0.3977295983668177,0.17569045513012926,-0.4662557159217961,-0.46297001839014096,0.21983883329696025,-0.015260573938983168,-0.2717527753836214,-0.6489337936581656,-0.6225681898604655
131.75665283203125,0.9987030029296875,-0.6141239803142947,-0.6528628816615407,0.5048411199896895,1.0810242954683575,0.22039623859939475,-0.46458139729121106,-0.19012143194753467,-1.2854126797854082,0.5859988282787058,1.0880747857384043,-0.32140914110037366,0.20137692597008933,-0.06970851556164538,-0.0038523863139787035,-0.09458153976901584,-0.11713500236154949,-0.03364631791427307,-0.08183259140163571,-0.035559258798821276,0.0077563377682280665,0.026548026654392154,-0.008115736340641045,-0.04230705250974625,0.07499464253084823,0.045759544314251645,0.019182875520448416,0.04329952030496742,0.007794431990362668,0.06203991097167641,-0.09457868638955357,0.11665784127069666,0.018730876363258587,-0.02090214375162658,-0.03937212909961773,-0.19132871564256793,-0.16490077659551586,0.02194117016569389,0.14362673871406714,0.2896188539552598,0.11439634260876404,0.330009407916297,0.234855867512352,0.07421592425595377,0.17461412712079688,-0.1302817710312505,-0.0985640354912605,0.33518646645369554,-0.12748266454807478,-0.031605352625653046,-0.03851776863414038,-0.07058553639758174,0.08235638961393754,0.03350587906619826,0.02145558836272226,-0.04817506473379739,0.06241060964001976,-0.01085991205016253,0.04019278496441095,-0.03395975937183835,0.31147272561246486,-0.06958616684069374,-0.8136497495464515,0.4512531899654461,-0.46204041642517946,0.5168034445474702,-0.5927229796249398,0.40868092331306966,-0.2870433555961685,0.35543429796474885,0.1343671309259197,-0.11309050968005216,-0.4758540325804545,-0.291552685697195,0.5289389503313225,0.4497240479964666,-0.28345581956010496,0.2916844919897731,0.053555539728383984,-0.19962359350258374,-0.028240136263282936,0.26675037785311595,0.5272791598470232,-0.16441484054840141,0.00878808934129878,-0.17211802209059326,0.6323755459295922,0.24452715783233564,-0.3973884269235353,0.13097100022800306,0.8242044021140944,-1.5780863166102215,0.7765164876900894,-0.11945403311674975,0.15324309190004415,-1.2275034291586338,-0.2667889281571592,0.47805657072309204,0.17537585129247188,-1.402484461943085,-1.0684257151844352
132.75535583496094,1.0287017822265625,-1.6747608472179827,0.050341495786726115,-0.02111427500095224,-0.3879694872176433,0.7638453875939628,-0.35070379125182,0.3399614409247264,-0.6300698305134999,0.17887424682424008,0.6794406054590184,-0.10934856312263537,0.05001685292064031,-0.027471035858655977,-0.0009126617256595207,0.030528057677834782,-0.08344097808990994,0.03576799377374816,-0.05595088047917496,0.038873017831171336,0.09440899348258534,-0.10421979550060331,-0.023642229884056547,0.12405641489994335,0.02874402928206804,0.04101237515038556,0.040175939429984764,-0.008492119888713512,0.034057522687588195,0.1180986428734328,-0.03797134045874484,-0.07957316904037384,-0.14962221361635494,0.018383400527939818,-0.14344760098522655,0.1078730740820438,-0.037409664139011804,-0.025038006086842052,0.03317301765420029,-0.15371898394717573,-0.056013990965225864,0.24150009209265527,0.2705562478298508,0.10336166248103205,0.1826564558497753,0.022241220849857923,-0.03980929164641932,0.22687047699734725,-0.0339188913552745,0.05818015618059459,0.04152383305116338,0.1329407163385085,-0.0036991381264902916,-0.13953820548720322,0.2538405763342951,0.10870535873255435,-0.0346435707786225,0.09966667515418931,-0.05191943268325462,-0.05351764889609463,-0.06276211787539009,-0.08333427772666616,0.9607982808895942,-1.0830546507881367,-0.46400030267132575,1.0289202677120275,-0.24913088855088375,-0.0422148306915939,0.14781894261106798,-0.049623676202911554,-0.44607662396052655,-0.3706176884386183,0.057795282841248435,-0.6046955301166759,-0.1002343140117412,0.5586389099743244,0.17060308753839976,0.021211732534273494,0.03957820593500151,0.22557720171965207,-0.4174817389184619,-0.18321565765695605,-0.12704477066559464,0.2512159970682942,0.15803507754977447,-0.049894964774341716,0.023293673602289545,-0.23100203798535562,0.15348186794400095,0.6578193750313832,-0.45812065351544384,-0.6624068409873592,0.4814441201289445,-0.22498260490781224,-0.31982838165498734,-0.21711161458946085,0.20450377924855723,-0.09514793465917602,0.5510155101919185,0.09802205089740944,-0.6892145085023671
136.90054321289062,0.9691009521484375,0.9065694690076638,0.6695590950036464,-0.24385223653903315,-0.4315431116264167,-0.24124499142592795,-0.21565565559107408,-0.3121506554160244,-0.6583481688247501,-0.20956436614332624,-0.013289286785577748,0.025036130677204862,-0.023613844509071336,-0.09673301053447521,-0.17482289329392406,0.13289709959909146,-0.011162856772726711,0.07984760444792169,0.032597047046750476,-0.037627749286389,0.031228470943253886,-0.040412915101950476,0.0821580088448164,0.16530003942756086,-0.2978354134190378,-0.025630478775270124,-0.04364454969162948,0.009775993840591912,0.004690594746569167,-0.14215274839539457,0.041833911568061904,-0.03993414353270781,-0.021198369653353887,-0.24175738476711722,-0.02833223699052409,-0.0186544421991454,-0.07446789987059482,0.29484829457008904,0.03559152804408948,-0.20018279149903376,0.15876114777494904,0.5231950516430632,-0.11036211726096233,-0.06200117488115336,-0.3300624012698971,0.40958934070983566,-0.11054512115816724,0.10125235357794975,0.32664639409399954,0.18568037796086498,-0.27391856547755367,0.06346210532547117,0.08315061141966722,-0.025034822995966096,0.0756578472537532,-0.14940161620808456,-0.003568118812653509,-0.017828711741230775,-0.0407219749010187,-0.03050975248323245,0.09168192568199113,-0.12166608606121622,-0.13870751695055192,-0.21147662002207088,-0.24707270505975765,0.7997856056887785,-0.11736842197201561,-0.04286653026733937,-0.20792807592898355,0.11064490801747999,-0.30900313596026646,0.03773194224857644,-0.15133295518489687,0.14877748316083522,0.015459591547957618,-0.20264856155218303,0.5256307412651051,0.4374893692934495,-0.640268110662751,0.07389715726935867,-0.026114002110489355,-0.5316537548736521,0.069676857643995,-0.0702966040757617,0.010988856325413464,-0.07491257098325231,-0.10962104779049008,-0.557326372288915,0.5280049066430799,-0.2606735499386662,0.38434436638591424,-0.37389562944763166,-0.18631791704548892,1.4313084925208366,-0.3731922884582101,0.09544862624074864,0.33353215523346397,-0.33574803684184035,-0.15201010268661086,-0.7987120485255466,2.268700394637251
137.86964416503906,0.968505859375,1.7371767717616466,0.8520216604752106,-0.6031393895018033,0.8355291483763141,0.5412921221439312,-0.045987241564725986,-0.45874030263706833,0.9093571546291697,-0.8107245475644851,0.4734682804993916,-0.29399543190165184,0.0036885839810106144,0.09686834600749533,0.060395373430968166,0.1682288329390777,0.19857959935909522,0.050702544718629255,-0.04846966387600218,-0.12362286638918321,-0.003989723396734338,-0.022560809851545252,-0.07972914991583527,0.11437485222654899,-0.01564866410445276,0.007745162849848709,0.1263786160965987,0.013738122226589797,0.036631972879979074,0.08774421657929733,0.0245427983705081,-0.08561296479234627,-0.08139689335593889,0.05344245544450945,-0.04492329734374939,0.21099288493850066,0.022431230664198974,0.08060535513910279,-0.12162072810096558,0.1408396755156886,-0.28665503930741276,0.17442639685291608,-0.3712913247121198,-0.008045729597721952,-0.04538135208343195,0.25896854195893215,-0.02123077408349254,0.13004620474936127,0.03299205675185655,0.18862560893689004,-0.063818960025231,-0.09991017279331685,-0.06232291703553128,-0.07324538903731563,0.019613271887376306,0.08385907036711132,-0.04206998243732721,-0.12145236926297424,0.04639256227450177,-0.1677320611891622,0.29723616426739896,0.15644758948288245,-0.05883069037383806,-0.25324423014312136,0.1895935259363815,-0.474685006912673,0.5526964718756688,-0.5554678544096021,0.2554517855850144,-0.22529903391256872,0.47402286700588625,0.3472372885498309,-0.2706231913427787,0.015308788063134675,0.2418426881312384,-0.18046503018427473,-0.7426696541827915,1.4429096986888723,-0.3679605002181072,0.09719375104972565,0.3109894135611789,-0.1340459718488935,0.2140732969498813,-0.3376757942854716,0.07593549078833668,-0.062400825192255614,0.27977689721861343,0.175568585701112,0.004506318337012583,-0.2041514692289118,-0.10591458453963287,0.24773297347060425,0.11198474872810114,-0.19432875118950044,-0.1655016218250804,0.04913754131166914,0.010065489092825959,0.2481655826165399,0.11014714461192374,-0.644481874894899,1.0204914865524388
138.83815002441406,0.9889984130859375,0.935497751461766,-0.3282129549982214,0.7537571514397786,-1.2155075620978997,0.09807015480535669,-0.10082730719691455,-0.30950018357665676,0.8674077332514118,-1.3127357356201197,0.5919787507741411,-0.1365225943354562,0.04361937945289982,-0.07779133086061465,0.2735051280024351,-0.0929988085298387,-0.013458112145150119,0.3297349623316431,0.18643616336393565,0.001629558589379826,0.08132177612195911,0.09112164693404257,-0.05045637786653627,0.08161272937563592,0.08703995752105377,-0.03527004752981176,-0.04443546673664482,0.028509761944505607,0.013070824882688618,-0.06119759777672118,0.14939671364964513,0.126019605984911,-0.10070891331291269,-0.07666870804363261,0.09661190160273955,0.014912866879681791,0.10008031400056348,0.0011912219072764095,0.10149846360612197,0.13957680096868333,-0.1534399673639716,0.0885713859191515,-0.17400769666893434,-0.29822999772214903,0.23143013637038085,0.14239924736350848,0.0744444832481646,-0.14722058043880362,-0.11357005446644573,0.08014336161295653,0.2095150313281869,-0.35372940768449407,-0.026528048894254475,-0.015076296296612775,0.0600735363006612,0.034801009253071835,-0.042541354832178975,-0.0752560462688127,0.011784580155437433,-0.059640146173527114,0.11566870564583578,-0.5419348938937976,0.3660040557142262,0.27620148095065006,-0.3079900561994937,0.33189414389469596,-0.4480539240921887,0.10299463936515056,-0.09928434950394696,0.1500002459450233,0.3786900818551065,-0.15482938658276268,0.08551718561075702,0.39904429376889233,-0.055874657257115504,0.1119603222271674,0.3282121191123772,-0.403686941615456,-0.3583370202335533,0.4637887473810692,-0.5520812183925204,0.7779177699695907,0.018775614453499293,-0.49350748626048513,0.585036375583904,-0.17419801518877914,-0.2205539637848896,-0.3045898217640076,0.15930333543766942,-0.002769046017550035,-0.6982611805529196,0.6400330094351385,-0.5113291188120834,0.4520539114305901,-0.09969613139746908,0.26160998248150785,-0.09544817462389901,-0.5180511998690807,0.37592918372699324,0.7980254703113474,-0.640837280188173
