start,duration,0,1,2,3,4,5,6,7,8,9,10,11,12,13,14,15,16,17,18,19,20,21,22,23,24,25,26,27,28,29,30,31,32,33,34,35,36,37,38,39,40,41,42,43,44,45,46,47,48,49,50,51,52,53,54,55,56,57,58,59,60,61,62,63,64,65,66,67,68,69,70,71,72,73,74,75,76,77,78,79,80,81,82,83,84,85,86,87,88,89,90,91,92,93,94,95,96,97,98,99
8.624099731445312,0.8892002105712891,0.01891434634891484,0.47627355072106303,-0.4485076540442925,-0.11542509033497968,0.7617041043829124,-1.2033384800124192,-0.6146544900850396,0.14627650954152824,-0.23845172263704817,0.11031774934331606,-0.30545441618127367,0.4986045388767995,-0.7545919051284519,0.10272392235480002,-0.34552824958624245,0.06271423504039614,0.039323150098617365,0.070303702781232,-0.04641702814411694,-0.027659722529990917,0.047096204490188406,-0.08279800552920195,0.0032295398581579926,-0.05743001976055765,0.0061428074771343304,0.0436893521316007,-0.03328056025895221,-0.003965976551190908,0.04672732616034166,0.0623389375216451,0.06918790791593697,0.005274813376199075,0.12279177147818161,-0.011267732134609285,0.08754186228897655,-0.036791264810277675,-0.005048311056238919,0.09481131361106197,0.05968413989996549,-0.02137176268709163,-0.01450748572169363,-0.03212988548587029,-0.09289418133300066,0.05127775465861648,0.07926646032045084,0.03434220932787553,-0.059909729382808696,0.055634454129289704,0.00418297339020206,0.02756274970349396,0.02027738936977924,0.052009367669619194,0.009463960364615616,-0.06082190921049315,0.016975773665140366,-0.02325197498234579,-0.01620592899736554,-0.035671228754109434,0.08386332248800141,-0.0992494802845533,-0.08584711045651543,-0.020000748211583715,0.060140432531382515,0.013352799211411151,-0.039327542298428476,0.01391122957236633,0.05401893173851923,-0.012055230411356057,-0.006318271968517879,-0.027216544140063196,-0.02314274545492507,0.08884641186668638,-0.0015172882603966412,0.0069649899275496365,9.984285630804056e-05,-0.007969662428364527,-0.00932254504221108,-0.044519749977922546,-0.06458706242743871,-0.0076599142509986475,0.006647267446794344,-0.02340173823056015,0.09547873103524152,-0.013921978607630503,0.014560017019627506,-0.002717522243081638,-0.019937584864170223,0.08389926675213513,0.07507923390069834,-0.01444842893407378,-0.20861751922877864,0.01289151592320241,0.03395598100190185,-0.16617134778999884,0.07995180166718302,-0.06775940147642015,-0.1669937057317532,-0.2818872962501556,-0.025550539823076507,0.06663534773094927
9.513299942016602,0.9090995788574219,-0.06672154649550277,-0.030902839108689375,-0.36134923850191936,-0.21978470462849264,0.4317651233982517,0.3581616012057871,-0.08626549078938686,0.7940410576783331,1.7282749395083985,-0.607886800991127,0.24707562155793944,0.7952611742108177,0.16081643943196916,-0.3395724952536908,0.5029928178534036,0.31120378566238766,0.0009223920136692933,-0.05925960230469125,0.05128469699522474,0.0025504894588290975,0.001313829038584125,-0.016022876247473897,-0.0006283151024424683,0.0004199757334356968,0.01953453365754514,-0.0726355965687676,0.055542205726899316,-0.22037309682866926,0.19527393178424854,0.07858428272324128,0.01001095162466313,-0.07823332654272426,0.08597587997390058,-0.04931421499858271,0.1202918234838199,-0.014272907804994704,0.021987771627383162,0.046839076337607394,-0.0012924856813277454,0.05922070617948628,0.01669049639206585,0.009749167008265376,0.025543412673048573,-0.10214710620395541,-0.048994755275740764,-0.07293475583753638,0.2802071012644003,-0.21411288343098517,0.1356448232435755,-0.039240625224755896,0.016427929455947107,0.050210702452322946,-0.04558623561743711,-0.0012043518317416879,-0.027445979596591175,0.06255593924028077,-0.04760827640879305,-0.08665377725077544,-0.05663478045078005,0.07210886975879773,-0.12092041210293293,-0.0009033790750259682,0.024620037327368286,0.10905678985992896,0.011703714875057131,0.025080461018431532,0.007365118975952797,0.030076021094504288,0.041250406260894816,0.07836550232755805,-0.045110209934639114,0.011657814706932225,-0.004467620461625708,-0.037475570520951434,-0.05164464161695192,-0.07285714444196742,0.055833889845283056,0.0035970468250783056,-0.0004876065472126218,0.04276535745328366,0.13436626781427904,-0.02514619776792316,-0.009582669631071204,0.0344909275178251,0.007711698196498693,-0.07179959566403056,0.07211447423063817,0.05031837262259576,0.053776928288587274,-0.05082998053056641,-0.03324264035078324,-0.0024093714165027928,0.12814368376263818,0.1915536238022531,-0.4557495787624268,0.01855859453314588,-0.016879841822436143,0.2222726256796916,-0.331627611049573,-0.11791766095123729
10.422399520874023,1.8278007507324219,-0.2639885799088509,-0.18860411798167226,-0.027856130854784028,-0.04114994253318423,0.14283345584291546,-0.17117790874352803,-0.11526372168253174,-0.840822208065768,0.2738592181488916,-0.06271585849020991,0.38661860822176664,-0.2632931673101113,-0.26053687020613175,0.24719688464650721,-0.11930675936126679,0.028548722586176425,-0.0486840479555558,-0.028417946962069833,-0.02706204214973327,-0.007640743976973687,0.1876282240737825,-0.023188390907784878,-0.011418789065635445,-0.021616300538220244,0.018791763204470357,-0.004575423396977026,0.12592006772485703,0.03199677391495599,0.10854657445097228,-0.22112471381184368,-0.08370784068197099,-0.0459850687656348,0.01197612552893192,0.030610502809395923,0.058542733865774875,0.019223544215533572,-0.014278720420186686,-0.058464549109604136,0.020321599981941,-0.04951199383611137,0.027890614613328455,-0.10178127014667257,-0.05391030772770275,0.08591531433010356,-0.04489509536032156,-0.029412266997642905,0.058573432073010814,-0.001833835058219333,0.0630981894567785,-0.11798783917477562,-0.007148479475171302,-0.04838003725001212,-0.08566260031872673,-0.024139070848595012,-0.07080484267754736,-0.006045911027800575,0.009596715562582417,-0.07778898354713706,0.08075791979416876,0.029246949006336363,-0.07552337477927505,0.0781857417210442,-0.15551386432778277,-0.14487486655070334,-6.762007968802702e-05,0.025722449191616956,-0.01921556996236226,-0.028181261777882136,0.0017012763592628981,0.07455471011996045,-0.04575708894117707,-0.04575874918350124,0.011747710218383556,-0.06345382691644923,-0.05954621424239452,0.0008462369695896995,0.002353230558736069,-0.056091941982405635,-0.0014220668661829585,0.009947417256054735,0.05580763058310629,-0.009357270055527618,0.0046365486294677755,-0.06395730422865567,0.004553702202459818,0.02810535687468407,-0.025376778305717516,-0.029404844828037617,0.016237322751082278,-0.014803600189180668,0.315160871327968,-0.1642311195838393,0.10056630124567348,-0.22787668453199372,0.345579407828526,-0.13387702179668964,0.22794674765185197,-0.2383942590666189,-0.28736839792042346,0.08858430205303314
14.946599960327148,0.9089994430541992,0.2799660813230236,-0.012643724254092534,0.053463357897366115,0.661026897139867,0.09947254898271338,-0.013598753973091756,0.15707076838055345,-0.2440232592091618,-0.1238910243498012,0.8702506398397543,-0.6253056667223179,0.19434272134894073,0.062278658841035776,0.11733172188665261,-0.12689489767326453,0.0485748337941291,0.04075593540870184,0.004879019753307526,0.024647011871307887,0.05831785354672287,0.012465946444462698,0.030518177958996195,0.04515627785625658,0.023258292606720597,-0.0002326967181345914,0.03867335602462837,0.025775115933084843,-0.0016460451836397218,0.014499280452201405,-0.0043571231109576355,-0.0020411843081789673,-0.07917343628481902,-0.027212937066087267,-0.03484489981696866,-0.060228792828507446,-0.09545420527301791,-0.00853362466148871,0.006655833381048194,0.022034997551207598,-0.07374503588448794,0.007362507482924996,-0.0020652322261336033,0.014690399219747217,0.031664917812180504,-0.006731434452157975,-0.008020606418092794,0.05984629999065545,-0.007400227421248418,-0.041739490119154274,-0.06691568934734225,-0.0673354176419633,-0.007729998018540702,-0.010441478678671453,-0.057355263280829655,-0.019092851794059125,-0.01983907623665071,0.02091677277650721,-0.058614815289735764,0.007252867975650498,-0.0299574788312795,0.020429384303345205,-0.030729268621445215,0.01645411542493433,-0.01431472243160778,0.12505807423028575,-0.07991600369125594,-0.10214224693002111,0.10554362078809149,-0.04789916022801041,-0.026604903720652544,0.0058513951709920735,0.00319060576523789,0.022098443929644683,-0.0010883066983846403,0.006564854249749798,-0.018226139123739403,0.04633000181326058,-0.09960248978127552,0.06482315002102858,-0.024230154724635786,-0.09825254030189633,-0.047146773331947014,0.002561997161578459,0.06583717250075767,0.00777019222645591,-0.03409263512517836,0.15441552991258434,-0.13812048138428804,0.1036272320166356,-0.051422300457826836,-0.01239196086247064,-0.0739323047836574,0.17450362115290385,-0.04532843696809438,0.04010915662308803,0.09370143904225423,-0.46141281429266146,0.35135163410155196,-0.40097528045258307,0.020309496390515942
15.855599403381348,0.9191007614135742,0.18770848968491388,0.11588929196338266,-0.150994025086051,0.34636281717042455,0.37033186062533746,-0.35271301602118404,-0.11931472470983624,0.1148625393346591,-0.036965044506764744,-0.8343895822633942,-0.731874550994598,-0.5978769178560096,-0.4199807036296691,-0.054798411931051755,0.2501195290617729,-0.08910413171779565,0.03283794425440946,0.037871895708457996,0.0331365292625996,0.008962095108272044,-0.010173562050555491,0.0017659594497811194,-0.033665302908208426,0.02810815067905647,-0.01992165025629144,-0.11118807330187858,0.02321662143673753,0.0008461384370116776,0.03479584153833036,0.017060758132404454,0.012081951440964352,0.0006147695448016771,0.061713558920400535,0.0806007471985937,-0.1428334032324251,0.009406223696701462,-0.007365977275266595,0.01854861878203659,0.011835554403971939,-0.05055380585588784,-0.024609009285953817,-0.02566722987009094,0.054367219683774046,-0.12943733837528132,-0.0017570171241241199,0.05330867551964658,0.07129932858401622,0.0449276982409103,0.006820100449118718,-0.06500633042814147,-0.08133938863559834,-0.023106458101002238,-0.022960665657879183,-0.027481712152745485,0.04591800445027082,-0.04834791742010382,0.010251448966965376,0.046643899957879535,-0.010645601504157748,-0.1544005198830963,-0.20989004393252172,-0.032987289973853855,-0.06910321173236586,-0.07921298646948484,-0.0857984130525653,-0.0650387652560114,0.018242735607926813,-0.028090867551661795,0.040197422357113446,-0.018726110672138235,-0.08436978952393755,-0.013833558905251227,0.05660648341676751,0.041366135449847484,0.016678981658861752,0.00404990255391263,-0.00826559735980337,0.04048817961843007,-0.018310273369661074,0.05554504121229914,0.047678490543211105,0.02365738161277821,0.04689711413159458,-0.023187782840274413,0.043108241639066534,-0.002413182395885641,0.0009416472001475484,-0.09944674852687234,0.041751655826277476,0.07439882822769073,0.028555888936745835,-0.07364474828413273,0.020712131492650714,0.03612645247107083,-0.08586872418178855,-0.12086213447810636,0.10092263454148946,-0.07169693081781853,0.26827228253634533,0.27799954224245804
20.480600357055664,0.9188003540039062,0.14423211251810858,-0.4151730056103702,-0.6509020900968195,-0.055017392784232254,0.8068541044874811,0.14645613371716817,0.12466180508807927,1.036594994964517,0.3207718702254292,-0.36974812754141895,0.05587442199419978,0.15214077220039396,-0.3298084286842088,-0.03498778373267774,-0.12725812244185017,-0.03039678562159604,0.0357835413468269,0.058434065484512104,-0.031271752262186855,-0.04434606684646635,0.013862958610516396,-0.04666229503499425,0.05338760743314332,0.056012172244644554,0.05491098755565197,-0.006962373524889737,0.04219665738987879,0.03811741449534636,0.04695480629223611,0.07085162393859457,0.04816407278556036,0.03684644354136188,0.023060515070554344,-0.059605854270125075,-0.02982621073156512,0.0516550741652854,-0.019955043167732407,-0.0038128199307075187,-0.003474501237680079,-0.06836811623664198,-0.01716122690498434,8.081882799390345e-06,-0.007292109777554963,-0.013644995603562943,-0.070760651287429,-0.007055514289948013,0.007357038565957475,0.10503041151213771,-0.05649356381360743,-0.03723513122062481,0.034435704916006366,0.013717581023355541,-0.049746420648271755,0.0492912878237483,0.07224291630174548,-0.007379758401270233,0.013145982065081545,-0.0118949838326232,-0.18735681619088343,0.013096020892613053,0.103090241401955,-0.03201352577374684,0.07080792146407748,-0.03450634579718792,-0.03222907429528913,-0.01875302941877309,0.0048888797163244065,0.010569593591767745,0.00511146218325973,0.009262002268455888,0.012097671789615861,0.010890562160183595,0.015559232320302872,-0.011505983384311467,0.053467961897908596,0.06778555194919159,-0.07202557814683869,0.010117933125598298,0.015403718525176902,-0.0681853348154876,0.01222285610002482,0.09043907380296494,-0.013864639502639109,-0.005670457285618397,0.001454946708641791,0.004192597729400343,0.05345782765265287,-0.0503886996526852,-0.016857467718317476,-0.08875296018392634,0.008615029536062338,-0.03899315073711967,-0.19900059814619583,0.056842828574407735,-0.19538438767516386,0.05606051684814377,-0.09435169847511984,0.2335671486657146,0.07607768589436587,0.32080051021682443
21.39940071105957,0.9190998077392578,0.180910284284935,0.31572728479518813,0.05491621545178052,-0.24014262821609078,0.25684880557017203,0.013194371556423307,0.19091367147290614,-0.6050896890048212,2.013203706589376,-0.14688151806277755,0.2510689161302075,-0.1373335486609853,0.5229112709525153,-0.3381178316993527,-0.33877903959754685,-0.025580721521156344,-0.026678463316473236,0.04972380352340115,0.016275818168019762,0.0002072173967596637,0.05081568152303541,0.009637657943844509,0.01030151971941115,-0.030514204037756884,-0.04838662564667838,-0.004925393400533523,0.07043378787881482,-0.0483429332388018,-0.0007236294008696779,0.045863163037420454,0.0599080781741539,-0.06306840599836788,0.09959760046988983,-0.07208318302249592,0.026422668370242437,0.00047629959330251087,-0.016280139266876437,0.009815699850573302,0.048086019474482655,-0.02156354379145936,0.0770919362635926,0.06431377492410537,0.008336297296664526,0.0002177182265147116,-0.00018860055190530204,0.05072770655199254,0.03133487027568326,0.07966993450924748,-0.04837888815680039,-0.030727860815272928,0.0669521402639563,-0.018275662348320745,-0.07257423957963707,-0.029883685456951067,0.019001615447552682,-0.03644796391517099,-0.011951101063532922,-0.059733888849422295,0.13476051446315418,-0.10762552709160109,0.09110567279768671,-0.025780492055203167,-0.10960202252835038,-0.018283848427167574,0.031055631406306797,-0.007937601472468053,0.007642538734707788,0.0423248950717771,-0.014982550389107709,0.018774658997346684,-0.01592799462303463,0.01043367233918159,-0.0061239306247171665,-0.011720691154396539,-0.04273830421936524,0.02852983390446733,-0.017396786536614677,0.01883611993667412,0.0123660528489097,0.019933012369063943,-0.023061840100561642,-0.0035100126228822925,-0.0015814366515597973,-0.02889825708691841,0.03661291566659382,-0.030361718966399463,-0.0854997041306784,-0.00600500151718371,0.06441610400774159,0.02542506298711771,0.019146579260198304,-0.047627117321369934,0.043589844002438136,-0.00644794802372894,-0.051911775669810256,-0.0207547873486264,-0.2723453791292971,0.0056543116877066976,-0.1109242219974885,0.1714498659262571
22.318500518798828,1.8379993438720703,0.052522740758530445,-0.5446239043626322,-0.1697410872024786,0.7399508486560219,-0.3054703194297169,-0.43240433428642494,0.39884871154991564,0.3643681624596404,0.44614259719139254,0.31024995589534665,-0.18627107211114624,-0.49290068506364476,0.2153652918873538,0.02961354769957133,0.17528581747442537,-0.1207972056714846,0.029707026372504084,-0.05551110957518607,-0.02956410175195473,0.006590996614362219,0.006025955792043004,0.03819527484962605,-0.01277488263649384,0.02950133202343433,-0.031180496684612643,0.06175953993725961,0.11108603065117074,-0.004609192319255936,-0.05560266853693245,-0.030535227702237693,-0.0006648085304712091,-0.013644944716027724,0.06618704980959597,0.017297462548726647,0.08134944725856648,0.005009533948724387,-0.06584271183370909,0.09903840549492879,-0.08294319946794831,-0.03965853631585135,-0.028021335130352387,0.06289626037527417,0.034678365172643236,0.012312439652694964,0.022627687430098214,-0.02416897039987407,-0.02178513817275661,0.009316698995421589,0.020359197416411963,-0.052726856189521464,0.006508163465663071,0.06713741048228067,0.02757213398182438,-0.0029653119480866946,-0.0046644779902403136,0.0537357078201024,0.00471342128140956,-0.03889500803755343,0.07518619463293318,0.023182033591486045,0.03202254353904643,-0.06492623801134559,0.14151425042262078,-0.05843406999963931,0.16310425392036862,-0.0011069229875520226,0.005651525491235675,0.023490222517720424,-0.009421499272464908,-0.04429427701926568,-0.0502967962806543,-0.05053284393141362,0.008919795037084559,0.003349747073525441,-0.05997910320079233,-0.010387088060339477,-0.009778126445410281,-0.01728910807625505,-0.017059793450514612,-8.261981026914695e-05,-0.012797099303374573,-0.04940903263611409,-0.06541559459215378,-0.0006095475048842945,-0.02006730602198813,0.017432388900297968,-0.013076046865035822,0.07781905444449559,-0.11213886248784634,-0.007944368533530463,0.11588755977483925,-0.15567337282865962,0.14600584904842304,-0.09762324475460298,0.09727484469123283,-0.04073184777357197,-0.2554747733177819,-0.1793845818663532,0.23506717225334323,0.11693823331054265
26.05419921875,0.9189014434814453,-0.12817981758198377,0.05480449270176779,-0.24948890620849332,-0.17002089750578553,0.19995580752340855,-0.8013155797939417,0.33800347144693066,-0.7378399112855564,0.019485942793488885,-0.7179779013965546,-0.6167387152797,-0.4502623443647943,-0.16708265236078235,-0.2919981669789174,0.08250959945312648,-0.09691151107921846,0.004691887573794845,0.013054398571961903,0.07405806706025735,0.02718139244073908,0.0014649359138904873,-0.036429913544987085,-0.04865178684528842,-0.004753674910992475,0.08895995250327615,0.0003042973410672776,0.04540016802713161,-0.04687085110517425,0.029851113205217626,0.020843093546266185,-0.030387437350668827,-0.08294675806391064,-0.053442677993841045,-0.026867104794952655,-0.018634036332394906,-0.0018115447188619825,-0.04705858544596446,-0.0933481986186088,0.06554190278850462,-0.021424352693510517,-0.01026158002284511,0.04961224431355487,0.0003833915415293952,-0.053996200969743634,-0.051189084797102484,-0.010708178699222151,-0.07678727874711301,0.07313185114169757,0.08535432157557864,0.09924070523592034,-0.024657051373599033,-0.03443984845435042,0.004318966969985861,-0.015063305180045092,-0.009713667816041296,0.08630048812373849,-0.07585274001829356,-0.019607672004636104,0.03884541596775767,0.06927968929112546,-0.14878839327397986,-0.027270857134221282,-0.024569667505738753,0.058728445865407944,-0.06846165966861045,-0.04755029699714542,0.022121282375462303,0.04470103491148543,-0.056302444201648594,-0.052413787714456254,0.00026323814006529167,0.006613244537326661,-0.011377229750515198,0.02478073265667325,-0.05137181563247641,-0.014690995052869395,0.029783201888118144,-0.04647143733768751,0.004948317779854661,-0.009211176278911656,-0.0052278818140156945,0.04922684878177752,0.007053417995678379,0.027487171758330188,-0.00794372565259003,-0.01955726059867918,-0.044614166592267634,0.050809400495655105,-0.05723532336212838,-0.01273749138743764,0.07006228638582095,0.07043644946516397,0.0001433890131510157,0.08888813383695282,0.1494390783963576,0.20921629787502616,-0.5027974746125267,0.21375510079709104,0.42979480614372295,-0.1731591200332218
26.973100662231445,0.9187984466552734,-0.17657400293635817,-0.24536712078336384,-0.17033542858770206,0.1791236731787244,0.7405149313744958,0.09359209409231946,-0.34159351337107424,0.8965598056219646,-0.33955394183061777,0.7955729776335416,0.29738064440333006,-0.2581840548491585,-0.02161161041366653,-0.0599639412162569,-0.10227676734919157,0.08053726999413888,0.03321489754064968,-0.0023281416483819906,0.052546826444638046,0.017248658778612952,0.06010687242087919,-0.014747726679621162,0.04226117127179008,0.0022234133696908964,-0.0003556456475959478,-0.004254388157755082,0.019940580044849186,0.1266438720257348,-0.04011199794365616,-0.04147104240356391,0.05232451344692025,0.017989380898839606,0.05234270583027794,0.05326803058914462,-0.038665507282047144,-0.035680269975508466,0.029217122514857637,-0.0008998064384746762,0.005452080584536646,-0.0969063668433566,0.01488438797960962,-0.07236488608327757,-0.00881016238571694,-0.07130253781626052,-0.06683772046351398,0.019061024618115333,0.009440870462260909,-0.017170524282739418,0.020955002884218216,-0.028056015831280874,0.05392422932989761,-0.029053604619765958,-0.06173933832725311,0.034271063060637534,-0.07869863956150724,-0.006407151381179316,0.016951521458616066,0.040305810087445784,-0.10337469524809602,-0.09040422962502467,-0.019956088175213722,-0.10775723743387926,0.0632179948338957,-0.03111666144706822,0.004806324353398369,0.02506083287247349,-0.013935819452923992,0.03723221820787277,-0.005483624083399724,-0.027571769174959574,0.04174705457292151,0.0063878071379717535,-0.05632491301318469,-0.01167935936519652,0.041129045431960665,0.02238917709672901,0.0641070582319087,-0.013276661054342484,0.06957779199396141,-0.006923394970776209,0.0580925470109523,-0.021655229581320382,0.018638021369680336,-0.0945447898420573,0.050750509881718676,-0.08355679704002648,-0.026536353305644477,0.03682182518708641,-0.06212476446435848,0.08266306250252614,-0.1449649081220913,0.030239979556589136,0.10132169488075388,0.17444387557568997,-0.2783422119712833,-0.36513907534327283,0.013618982635255562,0.40449535740755654,-0.39695466102674504,-0.21139998407297694
27.89189910888672,0.9392013549804688,-0.05312259923447693,0.09078887844136194,0.883835707730665,-0.011730200615574685,-0.8071246743121282,0.5495262922975909,0.05032669786257951,-0.22481133454564878,0.2485910344179555,-0.2424361044946213,0.30915316683313854,-0.6020914274927631,0.4154779248329238,-0.23467471707876597,0.3822346406306564,-0.09652605691698331,-0.00852787261142084,-0.07283297578602085,0.03394973677779027,-0.013817848495476074,-0.011722756782062726,-0.013091019314936388,0.03254997248257138,-0.0183341837266723,0.038819575061660914,0.054516860880317396,0.12862299310696404,0.0050798643188737155,-0.02342009223200201,-0.01744549308196843,0.04518008107820344,0.030731657985530236,0.03588513383151096,0.023025172064016237,0.13648089471862643,-0.007285999255488009,-0.005024764056559123,0.00766279069489233,0.02224551497545335,0.005301417813477895,-0.0070334690199872416,0.003530443300479455,-0.005221128876719551,0.007389738570948032,0.014136954039334428,0.006600161115317284,-0.034955175077355564,-0.03904969922307491,-0.056665288214677104,0.03161927099801282,-0.016750677895283846,0.02720986205652213,-0.0391634175483716,0.09540595915262881,-0.008505453214413386,0.01803573416657729,-0.0537912511274847,0.10043518826564844,0.10971112763466084,-0.07687688282595255,-0.054193933735804875,-0.007935332205236149,-0.005459026955356533,-0.02566192524505802,0.1940127964311354,-0.008500800964853228,0.04802256914111752,0.0364188870469192,-0.005271086362274934,-0.08124162527457907,0.08270410279645003,-0.02293227574961589,-0.025766822753600482,0.053435641541070625,0.0024012194116032866,-0.04062309180758796,0.00022726196367372099,-0.05099510509434524,0.02371564306454263,-0.008578193224784007,-0.03340638713133006,-0.017119910567241943,0.03195266392700819,-0.0034571261671167437,0.05444221611575536,-0.05261549257759561,0.08828118851580095,-0.08790652458102355,-0.005923627053813296,-0.13108989555823303,-0.00498626799015401,-0.06048851539425972,-0.19376471099186926,-0.03702483942958642,0.020530041406743346,0.49407957343833064,-0.09439959687509034,0.015236719871210542,0.42451363551083876,-0.31922993123988075
32.52640151977539,0.9187965393066406,0.4635948718190791,-0.21942063443655613,-0.8315451067410846,-0.4402546842428312,0.13695810829030203,0.4950462188802491,0.4388273674274273,-0.4809566351979052,0.5179359203389613,0.2628070010079946,-0.427760405783099,0.10663399662349737,-0.36153242589362056,0.07992178850973809,0.5518812071719487,0.023162515519209552,0.004270615427658411,0.002151251706221274,-0.01931738704287414,-0.03559408246372766,0.046042433997893595,-0.09995003521683894,-0.011780715241856341,-0.003702799086576123,-0.07039654578914241,-0.013111406992229154,-0.03046356283504064,0.025270891852557195,0.07818987581034548,-0.0023307598275594233,0.018334949354732163,-0.07433618636164381,-0.12255804641725997,0.014896169740821726,-0.00036286073016407407,-1.6630575016943374e-05,0.006154956522142478,0.00565824801735515,-0.005064773056428034,0.030141571003678924,-0.0032356459901721184,-0.003945743496407224,-0.00517602006950723,-0.003610011334025375,-0.003115662803444219,-0.09295621559838722,-0.02398247944089065,-0.0009741677318900776,-0.03561409747085719,0.015480970224452509,-0.02250696295605597,0.09672679387027028,-0.08664179392678992,-0.10955019897192078,0.013161182571687914,-0.05104101321286795,-0.022119334983515565,0.09833527656824301,-0.06980943478281426,-0.03646480905981484,0.08016679661031482,-0.03709346689321351,0.013321414746914973,-0.01626282059608543,-0.02215662402074876,-0.019883951964268405,0.053624103670815576,-0.06325258424596404,-0.040499251692859034,-0.013196104971300854,0.035860946555170164,-0.035108174975576265,0.013217253132224736,-0.007449523002040773,0.005170565361392793,-0.06163989142277342,0.0023489579273513095,0.0719551258057701,-0.05711389945984345,0.003653668602676368,-0.03724671891370572,0.0032894196294856373,0.05757893038881433,-0.010547507346012067,0.07943894326788717,-0.00929420395541165,-0.07374243056793105,-0.03123693274107137,-0.09252855704235563,0.008962657036062903,-0.06534650571659278,-0.04148277243382426,0.23660661202661734,-0.2014102659112481,-0.1908124719797623,0.09859299041294056,0.0749650086161503,-0.12035381343263597,0.2390933059794708,0.0899108304230774
33.44519805908203,0.9394035339355469,-0.053231110562083746,-0.1949275206049691,0.12826300317577438,-0.2142434469857963,-0.04537775669262935,0.03662470836465117,-0.1710306382419072,-0.3470967340014581,0.015433093715275552,-0.01512931749808359,-0.36418898635501645,-0.7888198349218233,0.2209024620104822,-0.07671325890699107,-0.5289565886815061,-0.12812144825962207,-0.0005933254058544488,-0.03876426902889798,-0.08943426715791516,0.001818061674707652,-0.002768428595696095,0.003039613956361086,0.08822403256806263,0.001087700366587303,-0.04075049948597022,0.004099309990179019,-0.010657930105340776,-0.049001161441323535,0.005753587733456402,0.047759480858065015,0.12546915634925518,-0.11001443776723431,0.07917328187282696,-0.04588867848527096,-0.0483890909099844,-0.022486965793280425,-0.02129004387978231,-0.034714840026132704,0.06138352947617835,-0.046644605851659235,-0.051268115508013364,0.04038893217840367,0.10026779793362811,-0.005176378516134714,-0.02278733429129992,-0.0020298551357002593,-0.045581078358053244,-0.08199044477498485,-0.0501160609949279,0.011474789348673166,-0.10959805082002287,0.003993524699761733,0.03521210154937629,-0.049209415158010035,0.04010184927545497,-0.02142050743836258,0.016406654176318022,-0.053912156831203026,0.08201918681545334,-0.23680939567479511,-0.023218485099357755,0.0186052223239883,0.04962372830277374,-0.027004053476026912,0.04367181524144355,0.008851661190437694,-0.031476149850094406,-0.029920327684024042,-0.003061202873613967,0.01346400700423861,0.04845456740696613,0.08678769157935881,-0.010483550537689429,0.07354226342872489,0.013946099765111464,-0.03020886489201418,-0.03611838883353414,-0.1033682563864953,0.0031696018524254234,0.01159741413694738,-0.05305483872504427,0.0036762445880691662,-0.07273456259559541,0.040940020006868236,-0.01563417518367869,-0.05109668105752748,0.02349555638300257,-0.008318152474641762,0.04158754930006533,-0.05659362310517737,0.03904801145245296,-0.15722797265529562,-0.020965746809862927,0.03603268639397162,-0.1344008778008623,-0.06897306321558179,0.2695274012460293,-0.25331550346397314,0.2411475006043847,-0.1291860180718453
34.38460159301758,1.8077964782714844,-0.2591008243578863,0.3259112585086356,-0.022748939902677238,-0.11836144281450589,-0.4244605842874422,-0.23272813118109692,0.06448270063998326,0.2683994255848725,-0.9634171415105108,-0.19658684832151532,-0.10530062694470692,0.7296459046909145,-0.05500598460183288,0.11025015428012361,0.5308744424931578,0.12596246935389105,-0.007408207120290855,0.0018022598769547554,-0.026683038614679747,-0.0602486261513898,0.020729829237320058,0.052593248081652444,-0.04151708564155256,0.014202955200068871,-0.04020568976191525,0.003666913338001318,0.0057066671733086455,0.0115601544844577,-0.05577351617988272,-0.00033860490197314217,0.03661421521987146,-0.06071601370836367,-0.05001662997865659,0.016987051205024542,0.04079996888539249,-0.14032201679934253,-0.04978024439895713,-0.020871655206664307,-0.0058320920283810584,-0.0899036420855733,0.00929909534434201,0.03854236973276466,-0.04988439860497312,-0.05376404631895143,-0.004156397209397453,-0.06336688572085036,0.03281615894114591,0.017529627464499344,0.0996905036195893,-0.01802134168321644,-0.05947617407146899,-0.035999522145795416,-0.050769788256118206,0.034129047767323784,-0.059223725968575065,0.013325122242714565,-0.03572967284159129,0.024766227075725126,0.12104724697835124,0.23128830587071486,-0.013535149837065762,0.16439024727816334,-0.02075009283808249,0.10766536259149825,-0.04269850363158503,-0.03850421172933895,-0.07666882398082998,0.035033519998035986,0.028537986530811313,0.021641325441300853,-0.08585495710684576,0.006483943961708193,0.06472757902898421,0.02913473433204614,-0.011474371154761643,-0.09367901697422458,-0.04239863569149799,-0.004150008391391396,0.003792650295144891,-0.018587029221682302,0.06588689712371558,0.01599346737933447,-0.0012473153167847164,-0.02801924715687244,-0.06342396982594563,0.13498921869671246,0.07171947709072993,-0.03758357467070228,0.13993112460053075,-0.06715031091655357,-0.2416677058550529,0.14994190633108762,-0.0386352047985446,0.17783790983289627,-0.04627400136112707,-0.03167177785808337,0.2550132666290091,-0.09789553696028383,0.03090330763686608,0.10010903265716656
38.05039978027344,0.9188003540039062,0.24108222817288166,-0.07327842050133004,-0.4539511597549282,0.3374778822193829,0.11425610986276465,-0.0383162078046121,-0.455480732809447,0.2554291926843675,-0.6365300343102116,-0.48073639181309213,0.18656327160466815,-0.5079188596980683,0.04088914376647823,0.0994204413421036,0.4172410491776253,0.009035865774810059,-0.076025791396643,-0.05094092141806241,0.011865457394459718,0.011719242284588744,0.002395646601568418,-0.03637578053004677,0.0793774343390565,-0.07377382726209912,0.048636832154557004,0.06286055220573893,-0.05916111317330673,0.0719311367895813,0.01923762352133858,-0.01583469270308026,0.03065001624041665,-0.0027217299110423865,-0.01450599625391685,0.022768778131672617,0.05571956203276071,0.021481599755602397,0.008130699934034528,0.04627600002674132,-0.11912957510287871,-0.06254359029637417,0.004395618692373514,0.028511836047069042,-0.015557833357510516,0.05285221472050486,0.03901405609758445,0.02923178436960971,0.051250404696485674,0.049702627952534696,-0.004625866709362004,-0.0017579903846051534,0.009168619275766338,-0.01798053783928881,0.018650904176200644,-0.051482479436966724,-0.09506406940708323,0.04205397380728898,0.045401433297693986,-0.027127828545173076,-0.00010326623602370175,0.09477998787779034,0.13627985030240428,0.003061785879705059,-0.04676014712159544,0.08684707152988402,0.00015677906239406042,-0.01672311372510038,-0.00750510314746108,-0.021400227105975327,0.053168692648928824,0.0007559166473106171,-0.022498081018261493,0.03694234056418757,0.04867957426476521,-0.0028946140315301238,0.022409585971870906,-1.1891193078567008e-05,-0.07113340912813584,-0.03222523404702406,0.004749193747471514,0.010182769414823201,-0.018203066310376353,0.012765601669736169,0.034576724652929935,0.06407101948446817,-0.037555857060729905,0.005860782307584302,-0.0323262673311652,-0.09890460317112348,-0.04193637378788234,0.08556702987627436,-0.005696090482130616,0.01484556684777608,0.06983767450316257,-0.14990494076609848,0.13364588752492074,-0.01969329857697215,0.05548652102843365,0.008144577912444814,-0.011831087936927017,-0.20638417255584723
38.969200134277344,0.9184989929199219,-0.07357069377176112,-0.12472723607887698,0.3166542585079637,-0.218641870288544,0.04988426477820622,-0.08321893026525257,-1.0390363654604868,-0.17854110303205806,-1.166242311877253,0.7384067298025857,-1.4653698756313387,0.11152346907701817,0.5622746829472901,-0.17022009721079448,-0.029672465531966674,0.12995949969855988,-0.015998552155945728,-0.01200801424982183,-0.07720997724537089,0.037981278175680935,0.10037551424130363,-0.05009084082893367,0.020293890884525243,0.06344285234807023,0.011989502354888451,-0.0031163474924808996,0.13103066268988162,0.010038589018124863,0.1062997088788041,-0.016420115973470668,0.03992763068855189,0.25025907084772914,0.15690319723144464,-0.06646359699985581,0.05429624796995121,0.052444006877026994,-0.021941833438954398,0.011589763773432224,-0.004486537208495679,0.003281791281615306,-0.0043395476016272385,-0.08871795313351254,-0.01608534970616182,-0.08600455147894856,-0.054728544121357706,-0.027863512426252263,0.03760708580427395,-0.006180287838714167,0.026001389676519254,-0.031004914993202206,0.015242840548917905,-0.05766927266333964,0.10136847053016088,-0.02885134488948674,-0.0472436921579103,0.09280895013595392,0.04864522575719308,-0.04761372350343,-0.05772705696381229,0.01622021294647769,0.0348571100392269,-0.011887799967487463,0.038093655783048214,-0.08443074250259362,0.011629400006761808,0.01548299162511936,0.004516109749336667,-0.08178327027875795,0.008676956030315817,0.06450106989155098,-0.010892461147438776,-0.007561651400588273,-0.032966947117207816,-0.011175068270413716,0.02817927165439912,0.02430592789709264,0.007601414586897179,0.048131486659888,-0.024348248661344944,-0.07489013008067978,0.03346011763113443,-0.022725444866990407,-0.03775114189245557,-0.01618837532336742,0.031476658987530666,-0.038841541658444716,-0.022115476465081926,0.02857432787299361,-0.003933281666775397,-0.15593503495767014,0.040429474262139095,0.0025546901273922175,0.19075170123920676,-0.018065922029952376,-0.10150344775151647,0.07132325558224982,0.15821020345358328,-0.2553026230044565,-0.1714694116821621,-0.02444425620576325
39.887699127197266,0.9492988586425781,-0.033872806594215085,0.09658214871510926,-0.23165619585176705,-0.10180524720467655,0.10132771756346047,0.27323727705613665,0.06759442065611448,0.4507657495780948,0.08960596725850711,-1.4454792497277198,0.10440758767164182,0.07262911593660588,-0.15181830917760558,0.046597164230962294,0.12657671365555787,-0.0005135166961967308,0.09347284887559942,-0.007572789450432601,0.040552020819079715,-0.0007368388746650138,0.007911527867497012,-0.012562348214276839,-0.023529690892232176,0.011069212414976515,0.04128998180869274,-0.02507947940262599,-0.07204903308702615,0.061793397207033474,0.01950948406066821,0.020462792451888683,-0.059149696775767396,-0.04917223083285075,0.09625731391531527,-0.03259965145951549,0.05825684602231733,-0.030946564487639824,0.036380561832720065,0.01929778545942041,-0.05628504605410931,0.00884163617409385,-0.012237729006929795,-0.06119901844488672,0.0032600873194160995,0.03721418980412791,-0.042163314670799486,0.009514955280491517,-0.09354158801715494,-0.01912475563837047,0.030326409411452593,-0.009375761469666666,-0.0010511258284913705,-0.003442939604756564,0.015944782623971164,-0.10364919394331869,-0.054192792660124736,0.08419479070476786,-0.08772574013416232,0.016863710418693306,-0.027278261069287074,0.04235616134220527,0.007739961544549216,0.03855099623445779,-0.04743326406517136,0.04749530003070665,-0.09016455087766526,-0.039746834937733656,-0.05868854006325712,0.04696129207978526,-0.10574485701361892,-0.007038914953954826,0.008809267066885156,0.016656549033281502,-0.006984669575512465,-0.015333218557937258,0.024291717073734415,0.0626820861372162,0.056578360062051684,-0.02153950203389031,0.020605799142947207,-0.034207633779931405,0.01076574165892294,0.012643518362607287,-0.018238493572721916,0.030086877809905755,0.0032501364604072915,-0.06224076252697314,0.008575175222138453,0.021135604975932098,0.02467420382635318,0.09559406321394853,0.06298346377989465,0.04287818974111618,0.033184985857604696,0.22411501633988445,-0.06741719817613724,-0.013249801586102188,0.25841897754968923,-0.37053368355794886,-0.3306024034457795,0.16800602845590618
40.836997985839844,1.0088005065917969,0.06884771580334534,-0.46037104994301364,-0.3720073255725422,0.2909515045828302,0.009215910794633735,-0.13006965831648543,0.4142864113841257,-0.13573676089124848,-0.5366451536621571,-0.5778946161054369,-0.28064779563259484,-0.025936114616313715,0.6725857355765782,-0.5661082742179182,-0.5056746617976807,0.05991157587232197,0.27717032154864485,0.02925030822714356,-0.037917943986652415,0.06708270685555129,0.03771585112793226,0.01463765402009594,-0.008025601953344397,0.0193525232267921,-0.06454138712898944,-0.041217452843613556,0.02959137276872957,0.021821101285198867,-0.031814480943017406,-0.11850606361010248,-0.02519617944231652,0.044836376532875186,-0.12723327592101524,-0.05092354196283927,0.021635906720641328,-0.04789095654933362,0.0051969802972058115,0.03574104399048633,-0.012207978174956335,0.10889012714860545,0.00046627491975650417,-0.0033818525682828434,-0.06609018960237786,-0.026751763842418026,-0.03826083684016859,-0.058159188226208317,0.0400906442276753,-0.14093350941410596,0.10201538386948618,-0.019730164853576267,-0.11712840167510016,0.1116030569878821,-0.0730888067826389,0.07135087913196217,-0.0010978806771160393,-0.13966627132839254,0.02436057426540624,0.21027133261460068,-0.01305197421160574,0.0524641894345023,0.03827577162766665,0.053497054619276174,0.02309495155350582,0.026054452688747076,-0.002325550651775558,-0.11507449411165728,-0.092308633838728,0.05581304330923981,0.08197176188234029,-0.03214040024196299,0.017757291582610663,-0.005905464661790792,0.016008981868611077,-0.04887060915123822,0.07913160220036995,-0.03984141787459155,0.01925795501891924,0.041366330007384135,0.07686404808013862,0.05524308367691939,-0.028176385136149947,0.03523547345661267,-0.02521647631965837,0.022675781944065592,0.05732294735966552,-0.024462811637977894,0.002779399411268266,0.013018479740183149,-0.048329762943356995,-0.04693319545206301,-0.1172185956686376,-0.04623957009950029,-0.07390137433741202,0.00179316049861561,-0.016414373432878448,0.13541639455267848,0.08353134857268864,0.03897009863893097,-0.08505477014513702,0.0723526234040428
44.67259979248047,0.9188995361328125,-0.5795500935621274,-0.18268121060709241,-0.09896763108073636,-0.3784459249393789,0.11392436067030229,-0.061222227875392755,-0.7253356901027886,-0.4871284331620617,0.7712297176804911,1.1241774092332835,-0.30907009202319974,0.1394554472399899,-0.5008495569476366,-0.3023352221704325,0.034956268677068685,-0.11161854430899217,-0.023226251035546916,0.018578222256968237,0.04296526835638637,0.046112123540359054,0.0030439995906062114,-0.005513101638386084,0.03506957378057806,0.017338874258470926,-0.021578384580216395,-0.05199063058716004,0.09451805538532848,-0.038407105280665876,-0.030441159245141382,-0.004553249742785596,0.12247817379312097,-0.09901561655849178,0.03398773303704635,-0.13946562045379748,-0.14550297563091022,0.006519847796137047,-0.02145312503214549,0.1056127669472248,-0.021099907992233817,-0.023314821219330588,-0.017479996422072767,0.01759337434263872,-0.022870037540282162,0.007399014975153974,0.04323337522176873,-0.02837964128422596,0.013600556808538023,0.05910787377590997,-0.010644974641731796,0.009211122533116097,0.01556116982767177,0.01121093754203981,0.03892416060840527,0.019337005110720194,-0.06430077977724186,-0.019543488319698824,-0.010240643641887991,0.05742489044266467,0.0002761195878850638,-0.1609841653806995,0.05748774554296664,0.0710855113263518,-0.016381293709140023,-0.01922871521197353,0.10270263046748608,-0.0703250597543169,-0.037505745499921125,-0.024684027629312263,-0.016498505165383384,-0.03259448273251544,0.007244964321910248,0.0958500140071262,0.001953986330947624,0.010081597910786404,0.060584117487716194,-0.050599819369995296,-0.050843229108163926,0.028505249591614122,0.0007942677945162888,-0.06780811866071625,-0.022995605048890783,0.019739236423661516,0.10328479482009718,0.014830944866930252,0.00425739860636308,0.004980300884535726,0.025745330193369775,-0.012495604368214909,0.05461832857891972,-0.0316351163211991,0.14800892765103055,-0.022130659508586174,-0.03823728195130764,-0.09353724317400329,-0.014025113530842298,0.3528486883440347,-0.05372680276354534,0.11661035617000995,-0.1979222058688781,0.061072184823437625
45.59149932861328,0.9289016723632812,0.18735999879401638,0.004158048404523669,-0.32465286490279205,-0.6062104506834047,-0.5312244289363713,0.08737780910579282,0.06550927120796102,-0.20519966726794275,-0.6466522824919206,1.1877674267210474,0.22674170053147105,-0.1203632827251733,-0.11407599535342447,-0.39660494253745887,-0.34311055667884227,-0.0011365111032656267,0.010373376883438683,0.01826696428537775,-0.03928781473563654,0.0477414054302767,-0.020086222183639233,0.026721322795185007,-0.015472169079671146,0.010930186891392739,-0.06098192108242623,-0.004625415265591295,-0.008569446846484667,-0.009076459428627554,0.06203322655403399,-0.041032791842953394,0.10476291918715341,-0.06343626576723428,-0.020540884535261074,0.06510857617073072,0.052681575895485444,-0.026176953747192318,0.02647890366811222,-0.013562493083948517,0.028036167099090247,0.015036740098065923,-0.06561040845909655,-0.0018628943930577286,0.004102820590550883,-0.057559115260243834,-0.020014392199858982,-0.020339802712807206,-0.009745801232213313,-0.055232683827101905,-0.01500496851492519,-0.014199155586119875,-0.00630381129874737,-0.0080627743373806,0.060100705253947825,-0.021804638098719072,-0.022354763022295915,0.014726601540270872,-0.053502145475255544,-0.09701540904394884,0.05565349354132304,-0.006466187940803461,0.010736397972941635,0.04441092693903756,-0.005085709310195806,-0.030371831241379377,0.03493721204475962,0.038245446084335076,-0.025364755090595232,-0.00041586679585145937,-0.020054851529309015,0.02529074369837193,-0.006945448921389583,0.003906788339800233,-0.033416457197121566,0.07960320038729694,-0.036112906358110965,0.0026583850905500693,0.020579333637008652,0.03350116200545772,0.012752494341871298,-0.10282253170876918,-0.014728919585174319,-0.028604247370139866,-0.014817861620299827,-0.029402096461113372,-0.03808672012072456,-0.0597081281011189,0.012973594678974937,-0.08405924695517211,-2.5612724859722102e-05,0.046473821711693106,-0.03555860651604434,-0.03199666956833134,0.08056726886870631,-0.20240059999625434,0.12183283290029608,-0.2230296324235135,0.08465596344635494,-0.023487971801903713,0.2883146030550831,-0.41107102015871905
46.52040100097656,1.837799072265625,-0.3909046003479212,-0.48150633229910933,5.2876879507690946e-05,0.3874899705735528,0.41094576719352616,0.3305731364649059,-0.06736118422928966,-0.35196796234397065,-0.4769619809012188,0.20443704410380648,0.26777448107847995,-1.179886215567434,-0.114301094036995,-0.41607066985176866,0.24746645612332202,0.47649566428339696,-0.148034792449351,0.060093486315204295,-0.06218029973288874,0.05980901746610164,0.008902686458485902,0.029696463127695118,-0.04626303821561971,0.07569750627045896,0.003291031806583199,0.08026330775520499,0.025245960874701278,-0.009406085331176208,0.05034627150141932,0.0748276112324882,0.049676779037075194,0.07518557649765731,-0.00640386275558118,0.03257774543891521,-0.023752852108429975,0.003666093856942871,0.005982868986899703,-0.04686669494615223,-0.02776376735821398,-0.013550370376007566,0.001664317686662546,0.017379578019164888,-0.04663759809764896,-0.01118207793228899,0.012117022842550142,0.02325493536674341,0.02640084485303669,0.008668174208682754,-0.009280534946736791,0.002543924938020884,0.005326450041246428,0.006676417295048758,0.006616065942499754,0.005182622380461677,0.00014744733286460436,-0.04570218464041495,0.034801269629744225,-0.03564178510796865,0.08765659233636709,0.029581093510902344,-0.04514415730807676,0.06168308880830694,0.03558708850515868,0.16127316762761099,-0.026752688998275754,0.007296480501837023,0.0060732375339560135,0.0012064504273846394,-0.0029106684940270987,-0.009553857399093299,-0.014573110792763142,-0.019322191869182048,-0.09389672757194122,-0.02343937425472259,0.025426269897364386,0.07510500512092969,0.000855117042865998,-0.04165690404709375,0.007172150044548757,-0.035239166133743755,-0.0024191095466458705,0.05582414364473738,-0.0613209929850614,0.012275924919748844,0.0637906054162956,-0.05183013628361473,-0.012711749232592719,-0.01409671645617582,-0.045933397104294574,0.020002564847585697,0.03511547576743404,-0.016994754069900673,-0.04979048457268451,0.00980641022576113,0.08883590090108369,0.18696531782293258,-0.0970438297198965,0.16527215236216486,0.005233369916165182,0.18977295590548507
50.2057991027832,0.92919921875,-0.18530900509024806,-0.12189811773627346,-0.09092423118543218,0.5060938398364989,-0.5007539895261007,0.5949488930849021,0.028862188902702146,0.057675816126032356,-0.013971263576605782,-0.18830429895104947,0.16529944527043644,-0.26678683786537644,-0.008421303935694952,-0.01360580916479948,-0.11874763085633706,-0.009287854988881628,-0.005618402490004534,0.020431327204689428,0.05400908577559563,0.0002602342081929116,-0.003251172929718285,0.012827613453781372,-0.10740276620241726,0.07546666583756757,-0.01475152974194445,-0.015195948036060376,-0.01927772241262874,0.0222947874975184,-0.016916849339895065,-0.0975979997928824,0.013465151582207041,-0.07507355951098532,0.02594535358745135,0.011035584689667775,-0.015306615033074268,-0.0007902867229028429,0.026012531417732264,0.003746737899167218,0.023622905879336534,-0.05595762041293033,-0.006047351106451103,-0.04899695460876513,-0.0661592661296816,0.06312342451242331,-0.008238528217164006,-0.05192777151997438,-0.09322494224751736,-0.005469465282242188,0.021627788912325908,-0.06718444202919806,-0.08247465017167283,-0.02527175393773029,-0.06253559802357243,0.05005581868608354,0.013653112493768734,0.0007686011290558062,0.02989549032518232,-0.028214335907418876,0.03807664992170173,-0.0172441943894924,0.14102568379883995,0.00767644201742452,-0.07454493791984629,0.07288035323409363,-0.029575370069168272,0.11461079990607936,-0.020891450300594763,-0.009277825488511023,-0.018947337436547584,0.001195268549687053,0.005613133526526873,0.09044447157934833,0.02828687559642721,-0.04513095493124159,0.08519139870001123,-0.034531992320558175,-0.008409998398599837,-0.0034939247600235535,-0.010921018462818798,-0.031926501641451596,0.029028566317080683,-0.0018289386064793529,-0.04704504197297097,-0.04008249046898798,0.017212756523323998,0.04629384370633427,-0.021156451462844943,-0.02966784658960604,-0.11497211734719637,-0.041035579262846775,0.0960431347672376,0.08906085302253534,-0.09405824395928417,-0.09969041100145062,0.06501369645304039,0.08753582955076482,-0.15978293338419644,0.18614299680332513,-0.05410866683012458,0.01585781128911784
51.1349983215332,0.9289016723632812,0.14935944714150057,0.09170701610440264,0.03536786197207626,0.665660583420855,-0.3291816712526617,0.736039916498707,-0.5072214961618056,0.46950533350849427,0.8768206276671815,0.3614923476617954,-0.861198298050351,-0.7110614570599332,0.3479606897834596,-0.11392163567209974,-0.196170774895336,-0.060681964956812974,-0.002725524462706046,0.006056488304810604,0.08987050992259217,0.005805031971409491,-0.0021920789991101766,-0.0008004297351952455,-0.05863880234618846,0.062165094686293214,0.043047088125667814,-0.014376372248261203,0.008108053389936228,0.006109428947943618,-0.04711255769870297,0.04543412593797376,0.09957883302950828,0.03490496826126568,-0.08354091592341702,0.05476175629967512,-0.03820497898922387,0.13550774920468794,-0.05368089107095794,-0.034905152939185675,-0.007725599755157057,0.08824660102553063,0.07954080985635507,-0.02696351346936087,-0.01091183091171972,0.042624318363543676,-0.0098177519066568,-0.0041630768405482976,-0.005578141387849772,0.026191930743935873,-0.021991541972626222,-0.028483283192986375,-0.022823737799927288,0.08187394800381283,0.04945670869128181,-0.08838381923989314,-0.08221412665808471,0.07855773318771567,0.05964299024742527,-0.07192742946617382,-0.03446183393596773,-0.011185054733159588,-0.037001295841876225,-0.16872979346271677,0.05372075242870024,-0.0798289032597399,0.021631941062429254,0.01639970300833223,-0.08358094043116905,0.06201469781881085,-0.051257088312943365,-0.03862377017590982,-0.05328130176150838,-0.02361117631511081,-0.052098835634935725,7.492835220780474e-05,0.015242127353173198,-0.028753847584554695,0.030168899373658416,0.03667175880946637,0.07172733459992756,0.005315588055999033,0.029108605164247375,0.053449373558309976,-0.020855994501672238,0.04126316533801924,0.025169610016058695,0.0669670106272282,-0.06428698681943452,0.01203378458804315,0.005568626480286428,-0.09437998750957988,0.04001235363942253,0.15703739726118687,-0.02410562389109745,-0.10694218512612365,0.21764272737271764,-0.016097107226604766,0.09783844446303779,0.1227366876920243,-0.3014107253829032,-0.10883431323851994
52.063899993896484,0.9388999938964844,-0.22848342134660768,0.25334738807601886,0.1061937476527973,0.042393264100920196,0.06734828091783576,-0.6543534458477037,-0.31956514480304843,0.4282401919760693,0.7782360964210921,-1.487769000618583,-0.20827928964958173,0.3198363014487347,-0.2580504304548108,-0.09750372327327536,-0.15605791011567197,0.09059612936658093,-0.045761562319801975,0.06776560129699613,-0.04093075387783028,-0.028922897229360294,-0.07666124568901418,0.04858520967892996,-0.04112357186541061,0.011860516925609032,0.005208646483557474,0.01476570703742091,-0.07584642953571258,0.07366730531868629,-0.016411275443962384,-0.1570273793191012,0.07263423994933219,-0.0909696208866862,-0.0123943648482642,-0.09403287739049943,0.009889342342665735,0.04292057199966568,-0.048548927504178004,0.039906205662262995,0.004358472983864964,-0.01378976613504722,-0.008883300776277102,0.03918312350519565,0.004609168252832373,-0.00657919605164104,0.032597209124156215,0.09985623607300158,-0.055640004065982344,-0.005170739197491225,-0.03182800618940464,0.13110435676148216,-0.0715997482961443,0.0037289349721827173,-0.0006620483591618078,0.11275890895398469,-0.0045411586323497516,-0.003036697839037776,-0.008632037634376958,0.006093179683339382,0.11025151110905541,0.1209070288708582,0.0199920190868714,-0.020676057965970288,-0.021690132843071377,-0.0866338235531903,-0.05637405253474196,0.26836469151877174,-0.05406224644726761,0.08364815160950184,-0.07121342938143238,-0.01188540049950376,-0.06943326574885998,0.02161708471789789,-0.03472380955334632,0.053527536611267024,-0.06934183272769186,-0.019086971685529402,0.029943149526151784,0.0224286951895087,0.02066013438785668,-0.052967137420231826,0.004271131547333806,0.04700241644519159,-0.02044885440639495,0.016158823679218767,0.029228907103190066,-0.017126209359077927,-0.011824949079310525,0.07528394740284507,0.007046149101096476,-0.11970121928229563,-0.01401997699252696,-0.09330526235678858,0.2546409564482352,-0.03586117105931302,-0.09009537921691492,-0.1333822977225969,-0.29171975300874303,-0.06444222396594293,0.09748321500850042,-0.42669603274169865
53.00279998779297,1.8180007934570312,-0.42482593690258963,-0.046408136250619764,-0.4093602342437783,-0.3495933681687904,0.5403309574382793,0.2417699169667925,0.5839254009050941,0.5002863666348921,-0.8270603340547029,-0.5534578735638702,0.31807494777030626,0.870153338450292,0.6049525644018696,0.12095877687920815,0.19441236675308052,0.3184470446725047,0.011270738523261018,0.033797712377156564,0.0014983087242821623,-0.02626453868060938,0.00899687331025678,-0.01617813253983782,0.07649968375235008,0.1645821346126301,0.009754723689040179,0.050815221988706485,-0.033399788797586046,0.029374839304157588,0.021712220421967084,-0.06958231838889005,-0.02077880681146793,0.03491276272737777,-0.006663836120283198,0.06717014655504393,0.09751543256162992,0.03794661481521994,-0.025293883782211098,0.009603676759794209,-0.05868994367690052,0.00935314782503519,0.06834898318289216,-0.11693233551792792,0.06339507024579495,-0.010170174232377231,0.04393231768431841,-0.06683082619359598,0.22146202282849345,0.004112937142873446,-0.040138824911789155,0.08088794649329098,-0.03078895198795877,0.048262191557900305,-0.052361327502413894,0.006551914620706391,0.010564127240024129,0.019812835961376472,0.01232294911924181,0.012997762435013034,-0.08835702671423544,0.12414362169666983,-0.08936021275823407,-0.06467777833940348,0.0349657899905183,-0.02864373358057455,-0.005764344394700835,0.07195463022709198,-0.006630847812577109,0.01933062187019811,-0.003146830658868424,0.07772355203204005,-0.0012534686699750275,-0.00801700321046872,0.033402371842569445,0.0797909666094713,-0.05110983093314088,-0.004240792588015394,0.008520686195262538,0.09391617704510986,-0.003201745858826741,0.0026781783647255152,0.08368843383160289,-0.06823543644526317,0.01227757295284812,0.00651566165399844,-0.006963114687954702,0.07558588703635591,0.013735826506540778,0.059238532781786445,0.16764301814648178,-0.03267456642468185,0.11252618580286239,0.08269409106029707,-0.17777229102813147,0.05352564075635974,0.06737857645927314,0.02185664317501268,-0.12383579071324852,0.14842259949463005,-0.9702666874362029,-0.04764978515191409
56.6885986328125,0.9286994934082031,0.06386673222906163,-0.17768793287103724,-0.22759741247624848,-0.07520502824555406,0.30895764336075043,-0.01219183324911816,0.31396941991840277,-0.03878659377760133,-0.2428493720407148,0.2340676364595019,0.2652393436993745,0.09322764719455498,0.16720956462951697,0.4808296053459705,0.3358153774333966,-0.05740523160489729,0.020702679793795475,0.03930717371628563,-0.007708642588952867,-0.054366288589138674,-0.017658790472466258,-0.04326435630362369,0.06881972765371785,-0.03830851470548582,-0.01802081265207656,-0.07272644417545199,-0.07089444449536615,-0.0795782708490328,0.020699201049739324,-0.03366782182301709,0.06372072277302618,0.022248326693915965,-0.0379721374450233,0.0012404282354742937,0.00260803359351682,0.009693127483493493,0.06485502238669949,-0.013938962591986336,-0.0005676695349596734,-0.0645394352024016,0.0071339806088961556,-0.052220966816054495,-0.04556078219809812,0.10919592822739993,-0.0642491079691135,-0.01784242377779359,0.06655697221461152,0.011795936550320813,-0.081949196412179,0.0993113355644356,-0.019992903619636335,-0.05154253960077967,-0.03996120538096424,-0.017559297248100833,0.01559037221731426,0.005280199148541894,0.0025902552574735803,-0.04935163803865389,0.05338237149127985,0.22707339926606024,-0.023851054254517456,-0.044540910673568496,-0.042656233839324126,0.09568545933030474,-0.00704240042392409,0.07182953832978876,-0.019966967586356913,0.018199580340343906,-0.04915124091832463,0.07874076061220275,-0.0008953189713606107,0.013855531772537196,0.05224892252770229,-0.020434779798869027,0.04682221498887082,-0.023720566794387672,0.04684376436804381,-0.004972331049831139,0.05929582799852295,0.00551022749098327,-0.02338019406141065,0.008857174352281047,0.07445919868315924,-0.0690994792380459,-0.0032794185593803976,0.07018190320916362,0.06492299273901221,0.01886740146962646,-0.021912179767751866,0.018287027437346576,-0.1438191183820214,-0.17002172171888663,0.022028512834231302,0.07522138446092065,-0.13281555693931657,0.3078136554091168,-0.25597078318198,-0.00511864668194307,0.09360200543457879,-0.3562469779292059
57.6172981262207,0.9191017150878906,-0.08254730987720565,0.2527585164445034,-0.4308294164022657,0.1648877968651761,0.04855310445072225,0.0844276409767327,-0.12289430841842976,0.780215343430916,1.2827767828567846,-0.7565415086323941,-0.16709918809843513,-0.22767799714774206,-0.04218320200075615,0.4747323193532069,-0.19407177809789591,-0.22490599128705718,0.022691299398497032,0.01926143589669401,-0.026742020948559566,0.03237355772259713,-0.0009281836905250043,-0.06544165744170968,-0.023064316002100613,-0.00795909659166947,-0.04983202781859697,-0.044913741606395025,-0.11092069354806644,-0.01045410960032123,-0.0826160970037678,0.046598615781256604,-0.024522466746591153,-0.004141524386061971,-0.09450134447624552,-0.019632598760127653,0.03085546842072675,0.014342110357746213,-0.06254392927937111,0.025481124720582074,-0.07394453258849443,-0.04370490092540591,0.1038181465091692,0.02416165440794818,0.003795616778270674,-0.011214414520260816,-0.09733621620014402,0.017208091650481552,0.0457047973201926,-0.01867724926718567,0.03840511794675104,0.08707882822303614,-0.0937257600238225,0.07246316697744294,-0.04847845153725346,0.04441206453992463,-0.03887525013653997,-0.09909620201046147,0.06488853639225266,0.0761919006335928,0.005746036440161969,-0.039618829361575875,-0.09409345115150038,0.030664186460929166,-0.012337236759474072,-0.017671808172314903,-0.029834433090776973,0.02363331854757498,-0.05204361465270095,0.0392932207939595,0.07798867818015635,-0.0398137861281733,-0.013673081604583037,0.016861343436870384,-0.00512739628821937,-0.05344920849261278,0.044097408534300206,0.029311757073479154,0.04845669779374301,-0.036705006007388255,-0.021894776407805853,-0.1026230713384134,-0.0006942930138062488,0.06098902759704425,-0.056238290777775105,0.009398593377171567,-0.0023363490128911896,-0.013231133484165982,0.02614240273533213,-0.08157740250914161,-0.031178043745156706,-0.021723526075194927,-0.12155623946461434,0.03674380126128219,0.010174364138461553,0.06844720838851015,-0.06095361927456557,-0.18706394209243232,0.3046875994484555,-0.1354829908994013,-0.10058338185765325,0.050038835977187
58.536399841308594,0.9390983581542969,-0.06983845481612405,-0.0241904220913975,-0.16666029099625065,0.24636506714766807,-0.01914791455997699,0.5869649629041226,0.24878487097106694,-0.5794198771607998,-0.607015963996206,-1.066265378770978,0.1022300046427749,-0.16994813713944332,0.5489424102093031,-0.2576995415577975,0.41841492404927993,-0.20864876886615635,0.11609178856528789,0.04083170180817379,0.08592760189123887,0.04136135614712086,0.023947996281555327,-0.034643323639661563,0.019393676456945484,-0.009776316069319512,-0.01835066329832566,0.015785962918980323,0.00421067054848058,-0.0445906321120164,-0.09045992236335273,-0.02538078206767062,-0.04482271084334631,0.11744359030100358,0.016429023887923867,-0.0738378606527471,-0.05773593688623316,-0.03322916455908617,0.008065376265713735,0.01676094673807882,-0.013320438650765425,0.00529594661670846,-0.008149863346396924,0.04611232699473498,0.028754229973182343,-0.002949091455043532,-0.007522871920843777,0.022669002050946234,-0.023524288197247015,0.06482538051220263,0.010504609602250276,0.021920764144978195,0.13144309091161568,-0.07515941216534319,-0.028770539901480617,0.009157215344077659,0.003441511513761775,-0.027578117392980002,0.009651615880169107,0.007467375539760968,0.04770916547172957,0.03737857046047882,0.024042490936743845,0.05755804514020456,0.01765282879188508,0.030918103482184503,0.00152427340189597,-0.007065756846717891,0.005705784293381952,0.03678772652388071,-0.0675555849592781,-0.013224156804295483,-0.010577058110422187,-0.06720734289650707,-0.011900350979230262,0.040733042128498764,0.0781401314134956,-0.016124802697421926,-0.013120396155076968,0.014584098500216585,-0.0018666641858014654,0.06670740424550856,0.04854760483237804,0.01492473693796318,-0.03646867075583217,0.023918266617674898,-0.02565219195359006,0.048078467826023555,-0.10062058452582101,-0.03971646576940305,0.07413922126555857,0.12934738780602417,-0.04289121079192973,-0.06425770741668209,-0.20890233211488754,0.0372772510993562,-0.029216357344033987,-0.08519559865768145,0.2574055237566404,-0.2831544636201313,-0.23249030246464591,0.020031275479649238
59.47549819946289,0.9688034057617188,0.04238300939914309,0.15445060389585064,1.0918211895415944,-0.3975309163224443,-0.15526742965526988,0.36783410779412795,0.3771316320933624,-0.3182544216749112,0.13479305201452912,0.6762756635007057,0.09060549277443819,0.14986503715000415,-0.15558967129167028,0.236245635118654,0.10436839988546101,-0.021522322137742494,0.02593587948357025,-0.07392262562345674,0.02669433966549948,0.054249248819802934,-0.012642458170426774,-0.015235069827198829,-0.09668543841165246,-0.0005716303219161466,-0.1460475384410937,0.003013338325472799,-0.09273168958453758,-0.008664160016884082,0.043701426637561394,-0.0489082621938705,0.048866482186697945,0.01563271930309844,0.16513192071174454,-0.03168382300425315,0.05876018438541883,0.03352604780764921,-0.03377392036154167,-0.008742345161977952,-0.008246899687230424,-7.497526013489552e-05,-0.01518835462533761,-0.006090646964576026,0.05649541504845235,-0.04240470038914366,-0.022708505041235533,0.09925359178166124,-0.0038582082112627604,0.08196477821239617,-0.03278829675566306,-0.03346443240351245,-0.006593269404665016,0.033308584369378134,-0.01304085348747583,-0.058056019138486514,-0.06229526541570344,0.03186754205012007,0.16747788363383337,0.029798585421766107,0.04723022005384894,-0.1323010238170105,0.04836084501084753,-0.1935078311417872,0.02490838966537573,0.02361718555094545,-0.06922304134997032,0.01464117524005058,0.004274108178975104,0.08164906658248167,-0.03465397337143521,-0.036935495760082475,-0.0013361330415448212,-0.029945610022303545,0.012735341395341618,0.013077974961384388,-0.028577057644754524,-0.045613486046958945,-0.012349138561972272,-0.09654613115839909,0.0034341186157543888,-0.02137914772886905,-0.01440146149073868,0.0379052978984787,0.018379509408551147,-0.017657340963767608,-0.006491903879017005,-0.005388454421276583,0.08590289202878133,0.004656046293475012,-0.0351010471417799,-0.03601939320671077,0.0037780560742739066,0.00689105697328779,-0.06392533052248589,-0.09958474364820963,0.048601375660759165,0.4401870567784519,-0.4250286250851441,-0.09153419488419583,0.1253001179153601,0.165669278996891
63.33100128173828,0.9286956787109375,-0.002595407822538559,0.010616562033519392,0.284449481059022,-0.13299151208834997,-0.577844114290004,-0.2029357206496985,-0.2356491892344378,0.8904712462666576,-0.2899681077142804,0.4281521865977366,0.2805348015490772,0.12507293616045623,-0.6433632193781698,-0.8578999483258534,-0.13192613887525548,-0.027777565351102877,-0.011179450558191846,0.06078826667573366,0.04053035059973916,0.08338593333541808,-0.01631177780238401,-0.008864434958475862,0.020532398534358832,-0.014720486205697863,-5.9403369605246664e-05,-0.00460042789458815,0.011004586884245554,-0.025813600377419758,0.006415051550809135,0.031147426370198003,0.019154570980573025,0.09366949713517389,-0.10056081600978642,-0.04914851513988243,-0.007675098050993999,-0.12346915719459126,0.019865731636245026,-0.03902703999435074,-0.0027652329991980046,-0.011787738311200493,0.03248529467312002,-0.03790990030123504,0.0290943622003816,-0.04851439836672944,0.0046623644202757756,-0.0061295648712953454,0.05261448899369489,-0.053687528080526896,-0.006983774572988455,0.008805595241408028,0.030876590034183558,-0.04393021065432156,-0.022379493665706685,-0.04047964047751555,0.0054773850479281965,-0.009283229848062895,-0.04581696423349628,-0.038391758211722686,0.09192283621363309,0.03070913947910104,-0.005551610915186891,0.054835506360531014,0.029845810613894363,-0.01686103725548817,0.15418526039758332,0.0492540214290626,0.02480735620690467,0.04993103916432131,-0.05966037913557595,-0.026093525655394873,0.10014893506260801,0.04957584099664982,0.010330510381858688,-0.03774952029877015,-0.004901652445516038,0.009249657728040447,0.04151509969784793,-0.0027206913897261514,0.11028156972769611,-0.08302417066812011,0.1752321582077165,-0.0801526514904509,-0.05800092602991161,0.0037767118332001233,0.02694918331054243,-0.04424921270839468,0.086663717724316,-0.07043130489510582,-0.031670596636341,-0.054649387826236,-0.013055387085175918,-0.058300635899531494,-0.0018289881849907546,0.05003082255224849,0.023686207356584558,-0.10414217982533354,-0.10253644448860497,0.10530529471333963,-0.21138170892735997,0.27722109256964383
64.25969696044922,0.9287033081054688,0.1494933451418018,-0.12494821793737049,0.24331274507756995,-0.3951596795477633,-0.22114118526537893,0.4200854370739022,-0.18664250063944554,-0.25812432865170604,-1.1492860947395074,0.20613621729893417,0.18456768429002118,-0.5120629480888902,0.018073926285480227,-0.6659581554953529,0.01807603278344282,0.09299591253454012,-0.04325539192705475,0.02681073332813207,0.008671816612802353,0.03446300766985362,0.004238647886748945,-0.0018924899209708727,0.004957750745525674,-0.0291166535725262,0.05301642556567464,0.08876622368421037,-0.13331003616342244,-0.03553893048668928,-0.0034416408487219514,0.04744610234326971,0.005963415457611653,0.027157260280496642,-0.03830526486449443,0.03814717976437722,0.03501344531201267,-0.04560301761586407,-0.048492665433590376,0.06973548277681056,0.05643507688090085,-0.003195400147004202,-0.0017763155385817722,0.03300774184339193,0.026227841285993196,-0.007739278647408326,0.046007722752416706,-0.005506224641350783,0.01611159580811466,-0.022212388937524474,0.04687045969780941,-0.0441482455184352,-0.04231165536742957,0.029075423085418647,0.05604514767986382,-0.011490303751511527,-0.018582585580557722,-0.04880433279635368,0.09269247779714553,-0.11425009105605967,-0.026042321805042908,-0.10859517526991658,0.16548673760099453,-0.06202973446966748,0.01462344769470515,-0.02615346256305358,-0.022939325383501692,-0.0335424211441328,0.06662654729212947,-0.019226598363175383,0.027146883550847507,0.02893047434871691,0.010334008362304402,-0.0047601693652887635,-0.008110015980625277,0.03838998652125647,-0.05692965179250507,0.034964310945385726,-0.03086850095423801,-0.04121353797371699,0.004616054161063142,0.018086392802181345,-0.017904623736129936,0.029544614832202432,-0.025079175759187826,0.007783533216164861,0.00926927135777153,-0.048520322455707775,-0.1001221091504345,0.00809284356510366,-0.04664019025227682,0.10006086229191821,-0.04315853111080469,-0.07970266836579169,0.00373601375020448,-0.003301643584669424,-0.11034145635061833,-0.37012421805358575,0.5619502706674755,-0.09563753217285831,0.03709844870752046,-0.03784466372229854
65.18840026855469,0.959197998046875,-0.03368496672925348,-0.05462749892632025,-0.07943942826813216,1.1242741794074989,0.04736433318928593,0.1872837332281878,-0.21877189205530995,0.4626654876360993,-1.0805170637583483,0.1272351300681732,0.009257596460479866,0.337721475746681,-0.23647470076382657,0.5276115331270936,-0.3003469441059569,0.12351718297433645,-0.09946684721403738,-0.023017209664845592,0.034659135816966044,-0.1113812679727904,-0.036363003174786634,-0.0317766047311563,-0.025427968505768506,0.013618239853057839,0.0429562953499574,0.06524331135118483,-0.1069580175691811,0.06631947829106456,-0.06948149217996673,0.05928189548238746,-0.008809139395849368,-0.1200883206020526,-0.018019892591699848,-0.0333834616431738,0.033308596081896874,-0.0007400493121920843,-0.05067279768251233,0.07532011145420728,0.009073640112789369,0.04740705238392931,0.09530384847475858,-0.08641613433245648,0.07778476378237884,0.009650083333557876,0.018664165170837275,-0.013480336865570994,-0.08039649331573188,0.01728893245540606,0.019864772392623714,-0.06689531570097372,0.012594592240086744,0.003131606969485347,-0.003410454013743897,0.016048330567585863,0.039989305369983505,-0.011349973167916699,0.008239142594598988,-0.06803368232982872,-0.046086930770575685,-0.09094880569090162,0.1363522363282681,-0.02604278135430176,0.012945386620159184,-0.00026648697056441684,0.007962880707662781,-0.23399898946574724,-0.10906112901082132,0.022262426731944146,0.026606068750618425,0.02473471195353616,0.00569494151669301,-0.051006757829286514,-0.0008148237621284971,-0.052463557513827495,-0.007391575332640912,0.008461760782230106,-0.07354376801353985,-0.021799205046667366,0.01880597566272492,0.0065645933420290115,-0.04089226090573191,0.003908458731619328,0.059772631509364155,-0.022061329941228905,0.008735030886363218,0.0364209697249509,-0.007231930968296951,0.05964356948705012,-0.0232722273538259,-0.05042535152553956,-0.05101241171749571,0.049199873500022126,-0.1444815003206744,0.005899825776905466,0.12271153911689064,0.24628055612249275,-0.07231995126295973,0.23348270285298725,-0.25885163922997867,-0.022026567158941357
69.87329864501953,0.9189987182617188,-0.18054814632901453,0.5019241685906428,-0.29566809825675755,-0.12354103452362047,0.09917983959734268,0.19755337101109693,-0.3233063154704521,0.601715511347663,-0.5771630224324237,0.27841838664289476,-0.13024567578967106,0.5490173237438714,-0.1589360236701804,0.10204530544177362,-0.2082582807021482,0.24978019704195495,-0.0063526957433725564,0.13047112955078574,-0.003539735488833476,-0.020109186387117874,-0.04174585000187018,-0.007541874662464643,-0.03440884280786103,-0.005696395116495724,0.038205477289263816,-0.05506925394537041,0.00042501100594974275,-0.08544820768528383,-0.0069585905695400165,-0.04984737691798051,-0.07464706339296688,-0.06923886823571831,-0.18756551705055952,-0.009323900736845133,-0.03779341977260523,-0.04557322966515702,-0.040377219688802604,-0.09925753156833536,-0.03306951922496561,0.06272268952845246,0.01981665308455368,-0.027805819233107053,0.059967618832230826,-0.05467639236486989,-0.02364644160264779,-0.0037480856316485364,0.04346443952117582,0.006938731280403637,-0.06897946244013148,0.08595542852923187,0.004480625218646439,0.011782242069621156,-0.01908290479329777,0.0038535087200117133,-0.0012047142674033412,-0.07226801035920327,0.018868371903230815,0.1367401408633818,0.069670555395823,-0.08122291135515686,-0.044192819477769624,-0.054106223734657066,-0.08885173141343064,-0.0005343400989656795,0.17467757800377465,-0.07599235100648358,0.015183477739243086,-0.0545682937708299,-0.021048318410123498,-0.010294663777517574,0.03573876534808742,-0.016560999361039268,0.026727817906095214,-0.017455023901153763,0.04233348035166346,-0.04285935414155326,0.024183912019005317,0.0402807311606661,0.02314642151977371,0.0015736885570150913,-0.006349309677665297,0.04636249237497967,0.0007969221926075186,-0.012695766234515963,0.015831739918050588,0.01646313965714531,-0.061908255523643534,0.020037727859748913,0.015160419275064,-0.005018532470238066,0.05324196243614583,0.010448332050672858,-0.15488487996585695,-0.03497274805153268,0.05745112560987191,0.10551951090761115,-0.02410160062952187,-0.11004677923507235,-0.09996391522959633,0.02693326433363885
70.79229736328125,0.9088058471679688,-0.10965704608039539,0.2708362123107443,-0.13437212292474732,-0.1478473538003315,-0.5148778341999852,-0.5065634854323213,-0.15721650556677577,0.6446101145417565,0.25226589944737426,0.21358039359034686,0.1309722774818567,0.36696456424328067,0.11681765706134173,0.45070376318562544,0.1613484394342793,-0.4833406940679645,-0.0542934404692439,-0.04382127873049891,0.015778594698202468,-0.018284712830949727,-0.09908487692117515,-0.0014374628397323887,-0.07554512849024576,-0.04571212390248703,-0.02805129853316045,-0.06990074158004723,0.0006389572964509435,0.0627435124841706,0.03827338166487329,0.05065266686627557,0.022734554393061754,0.00362892579742988,-0.07281553808206771,0.07723627715142226,-0.06136601000531408,0.021302432038029208,-0.06539770790295914,0.024546989817676182,-0.021336775214553048,0.02615639912450885,0.013850400947306033,0.05306794143531835,-0.01183721258711534,0.11050373987436446,0.008321768782957897,-0.018913833626231412,-0.0027318899572514738,0.0945421591322585,-0.09762376055913413,0.022026774485626927,0.0003294893970911095,0.014691301902144302,0.004113309127641011,0.021811644177045023,0.014703681199693544,-0.0744132869443831,-0.01175327459613764,0.07456349121860183,0.08221513148851768,-0.06932803683139399,-0.07641160890467867,0.015038339732795211,0.03398305357964751,-0.08921475889389532,-0.061785260470926244,-0.03625183644511108,-0.054790459162887176,-0.03909129769770245,-0.025600868857543257,-0.0007040649197824263,-0.03967154917027022,0.00030583102801062106,-0.052321947628071616,0.04097660074313102,-0.009502286692873207,0.053411148256690105,0.004672963171419478,0.003613934333005045,-0.03823721310595485,-0.11263268866746964,0.00655335933187149,-0.005031269101572235,0.059827008313926004,0.016448738854491315,-0.04532449865563926,0.04893811045456235,-0.009009772310305619,-0.00410915109545389,0.09464421812725159,-0.02790283702958222,-0.19991238053567348,-0.0802066530120767,0.028930049525406044,0.1785734025855501,-0.21516480338808902,-0.10494692786379908,-0.05487557130801953,0.11437641057192854,0.05568013603542456,-0.17697948421995102
71.70110321044922,0.8885955810546875,0.08261626281916762,0.14248276478184801,-0.3069642776257897,-0.05423974772721679,-0.5549190594740804,0.15474441474165873,0.18666497675462201,-0.1094993098277754,1.0942133699506782,-0.234021432028067,-0.612634310435016,-0.7952650804878558,-0.01202953858806025,-0.056162235361654,-0.059596591970858426,-0.11170913719301981,-0.016125003173309484,0.0114348123614531,0.04866860235298768,0.0006857234744186542,0.009016628767287729,-0.006938605545023555,-0.04449699977673849,0.02501227578290691,-0.0026759467583935687,-0.016190678043735814,0.06161041319191561,-0.02916685689264673,-0.0020668736877746297,-0.0636099322156401,0.02265463905560654,0.021342375909481306,-0.023849298632600532,-0.08260427631945015,-0.07863455088184165,-0.11204559456558721,-0.03034196536983999,0.012455671788487624,0.013304368151158014,-0.08469878641870887,-0.021941411078018072,0.0236316244084028,-0.04312931356359975,-0.00560105562535303,-0.020414249676633838,0.012678179676309107,-0.10189729690017382,0.04783097099525845,-0.12913403241540075,0.03907381210057318,-0.05931727653531572,-0.03187727055658361,-0.05830599598144885,-0.057034564368187685,-0.08810151424287603,0.052232313382766266,0.020689285937699274,-0.13434817093959917,0.07129538758605913,-0.05194316151764645,0.016892736956129036,-0.018716181780251917,0.012452842651177286,-0.12238270960091624,0.04518886584429659,-0.08644799344811767,0.09344680439862257,-0.026874151032996445,0.0992114343059354,0.00012399163583721074,0.042538742621345216,-0.004350925989452152,-0.03643138955893574,0.01244260576111971,-0.04662447345823486,-0.042965826194945586,0.018683931019453932,-0.028728198876902904,0.020362937045862988,-0.00034158121982627614,0.03144498164049591,0.021104619559277157,-0.007814149893706622,0.006707480677652269,-0.04337807897058439,0.03657910367357403,0.05111204702430851,-0.029926172433480065,0.04979899417892837,0.011519418861496817,-0.10899309598156978,0.02928544814893652,-0.029032524023905687,-0.11367395381885322,0.34197038415572123,-0.09973819298796636,-0.43000294704562925,-0.03197239101964994,-0.5023497069550842,-0.09543935993079679
76.37560272216797,0.9188003540039062,-0.09864093587530104,-0.025352042685425107,-0.3518291506428627,-0.20846972942857503,-0.6469618156163192,-0.6201970118466483,-0.008469058236303324,0.7768309672908722,-0.6022701170304589,-0.013209501312388516,0.6807967838521481,-0.09866231889905074,-0.19025361454272727,-0.047861426847409405,-0.07035358724071471,0.04006229791194357,-0.05090633362515607,0.06605866330791513,-0.0055410231992706225,0.0032740845115124713,-0.005798477094271682,-0.011694195034002644,-0.0007877731332208787,0.08530857092070297,0.002675526635217017,-0.005381717445332473,-0.03153511296252673,0.030795069624608845,0.06526740006530289,0.006959719369819983,0.07911481298009031,-0.052844543637794235,-0.08154034463831938,0.013617821586255808,0.013760966614487176,0.001123728605494105,0.012003699458377133,0.0029819952524354023,0.02026145423787296,-0.00949261168827134,-0.007340531869420389,0.04569804601090621,-0.0004877081671912721,-0.05194484242944415,-0.0012849819140406623,0.022068323632114036,-0.0029948042938042667,0.0013384136657818707,-0.018855574834065265,0.047183306673360535,-0.027445152752274105,0.04111512188274521,0.022595429790326343,0.026965954590080415,0.032685081159774865,0.04161354672918965,-0.008099836111530544,0.021669830658924815,0.07544170966611678,-0.05433963246091765,-0.035709688366826205,0.06962708730997445,0.02230122597726294,0.04205826637341134,0.03797023066911706,0.03172496398175402,-0.016325177778680436,0.09523356508666739,-0.017492129849802942,0.005836540974303227,0.02412027573242899,-0.003952462332700005,0.01924285663731138,0.049145000133360685,-0.007836054637490706,0.011418892986789341,-0.0023344287976988787,-0.026103848678359395,-0.010340585400071316,-0.0001323506490442665,-0.039747226070622366,-0.01715948853743087,-0.01856399009088256,-0.10631791403363319,0.0330400417010622,-0.04934495194024555,-0.063904934605209,-0.033077355901271796,0.08897246665842426,0.01899412659151694,-0.04859712440391173,-0.009617825875243985,0.03009656259819471,0.02240176703271866,0.010184654275191747,0.01628970942450436,-0.20558366912561182,-0.05181433210821018,-0.10728643503012988,0.059460401406336696
77.29440307617188,0.9485931396484375,-0.07699527916966718,0.2709069023143683,-0.1967238525623641,0.04980268713767488,0.6159641254411441,0.06535393852643256,0.3564946835859062,0.11783561548698349,-0.21963984452758806,-0.1825820047735479,0.6429842402683615,-0.05133959399075501,-0.9708716435159489,0.5874835257796109,0.08396773837973204,0.17562127200019065,-0.01254970830578456,-0.020564299901240514,-0.03229546038535911,0.0034705390052176517,0.09198873463185743,-0.020002400198372763,-0.07462406677044921,-0.012317674666535904,0.03421219806301096,0.02970299106459284,-0.10840632085146024,-0.14403992954648462,-0.06227261046259488,-0.0721382900793793,0.053875860994583316,0.018980794483028904,-0.004826607481760495,-0.018835531679670336,-0.022448422055653137,-0.01544239402224954,0.11074751760098833,-0.034417802288179304,-0.08207277300680303,0.04101033819216626,0.009710926531914386,0.0016333397398781632,0.0571532831986048,0.03341043289321758,-0.017938302388473104,0.009463910694305834,-0.03288572387550345,-0.014058513884668476,0.014988523847385303,-0.010967383722446539,-0.001354547319937833,0.0038904571953659803,0.0027722279682879723,-0.000898810295212916,0.016677816555409352,-0.052206123044202274,-0.051954748099959494,-0.045541543301105734,-0.007039951121649429,-0.030995482239303294,-0.050868775449243495,0.052696590405180786,-0.05265523206863118,0.06790796555503119,-0.02649355932779612,0.03428179571260555,-0.0939706388447807,0.0035070875429553984,0.04741825756062818,-0.0378345463909071,0.018980969562363857,0.0034102670149839015,0.0008927134945040671,0.00037049393367971314,-0.0017519026958847462,0.04100855433931246,-0.006848143376984639,0.00412401491245152,0.05565367375081107,-0.006144276799598847,0.004965367222877023,-0.014671912385090361,0.038408979450800906,-0.03495480438053987,0.015250740320025893,-0.07838187137830827,0.012689057715234944,-0.047350438071777134,-0.08823998312861794,-0.04053134149733599,0.05991471608636949,0.11104669561578169,-0.02803309724028323,0.06437332733872315,-0.017925362898188045,-0.11416985246038437,-0.02050812480117534,-0.10093336579247043,-0.06669461066981418,-0.06587721964557641
82.08879852294922,0.92919921875,0.012366830259452757,-0.033508736491979926,-0.07046242317902549,0.09830298839891652,0.02701012767902336,-0.09312205069624895,0.21043137403510995,-1.0146458968213894,0.10567410602411959,-0.5049559830100107,0.6123391327133649,-0.22718062903846975,-0.1323999625456218,0.17601779879690913,-0.14592888911331195,0.20782070922290874,-0.06995251422493827,-0.030483147963073873,0.014533282532783885,-0.0028794791117111784,0.0009770432855571239,-0.10069129388268461,-0.029120570531514966,0.015574461876591585,-0.045866216828865644,0.04181648122443984,0.00046093869330590806,0.004251199775295006,-0.04034122192365098,-0.0896904909490539,-0.033758861803840114,-0.062019227212469524,-0.026356546018901833,-0.02676753447844229,0.07840401855086863,0.0026847356564301495,-0.022523379535198933,0.0896587919786862,-0.024371558855821096,-0.008164545004893208,0.01794030193118051,0.10017121182760155,-0.01548770046805538,0.05006931298420642,-0.03187899765476688,-0.02640744547810209,0.016819423499151585,-0.07342320764767349,-0.07880626509917088,-0.005118583641971191,-0.01342504719788337,0.002828725860888157,-0.003745419570790996,-0.008112459170111974,0.0014764281309925242,-0.03900804850928158,-0.035930748097591954,-0.01220726103575633,0.09340589758962756,-0.08181882825798294,-0.1440239208671301,0.02225885009212886,-0.10114764461110685,0.0843780323836269,-0.03805796931180117,0.05833814919687941,-0.03629140591737928,0.011741968309019758,0.042698063749463576,0.04844320868064733,0.025843834504434834,0.05857626775695331,0.002502785919716038,0.046927486982816666,0.03202025281707981,-0.04580604735073862,-0.006021992417068257,-0.052960758457563574,0.0126693908488262,-0.03899189191168686,0.01121189419754521,0.02406776258721631,-0.03134190759560798,0.028731283363340063,0.012610988886272639,0.015390981125199647,0.04316354248469778,0.053191742461465484,0.08926682928045886,-0.010902391824528731,0.044630755439100556,-0.0036858133582119146,-0.15393432321104206,-0.06209342616390617,-0.02036205474265795,-0.01713682928228781,-0.14534991174838263,-0.026763772818780215,0.027227397326205965,0.32700457379053105
83.01799774169922,0.9287033081054688,0.4729369286357799,0.2089124157685151,0.018081667268167234,-0.09254014421778982,-0.41174543797616053,0.763141144956546,0.21360920800923816,0.4735792463253991,-0.786676610982458,-1.3827046316905252,1.2844942770305983,-0.3506723296576584,-0.22384121460396653,0.04331434698940712,0.07704016219484361,-0.029703215326514962,-0.03415913124261889,-0.059997466157464256,0.05894740885784424,-0.018028201785796193,-0.001004509691658652,0.009534944543601166,-0.04242606054253743,0.047920963014296825,0.11204583261506203,0.028555340917595436,0.030840740398210137,0.021618523682732097,-0.07405401047403626,0.12646730625828115,-0.011659148058275458,-0.1583532819889413,0.0027904784573736865,0.02985658063452438,-0.06277866035217536,0.01619346855877603,-0.04619523347366661,-0.093122203982018,-0.09430033923379275,-0.0364441892678376,0.0031901279880030315,0.0074479645899182285,-0.03113216836693277,0.026059274261521142,-0.0038617226826695447,0.011260834461838273,-0.012721934093099558,-0.009264210408964102,0.030242339050519266,0.013273429482483999,-0.019144314418928297,0.07886434950038056,0.00517834356616199,0.06623227015807481,-0.010905707438811764,-0.04298197956937549,0.11796314974400197,-0.08384753692258162,0.13974653536712794,-0.06439502424657026,-0.14522992721891012,0.05774947399144052,-0.03540878710073429,0.0587417329217517,-0.05677705092336666,0.0851658702317557,-0.002244465519352469,-0.047198022118484916,0.05823566751502963,-0.01140365886431146,0.04035286992958766,-0.003358099964824402,0.0927226530595364,-0.004001917750737358,0.014250258271137375,0.021933039665393287,0.04246089399325425,-0.028977381524672115,0.00772234251806618,-0.004840600836317294,-0.06786578453216031,-0.03741771519624375,0.004951769142913485,0.04225511812270514,-0.010535665122239093,-0.031910789826181236,-0.03360361905413902,0.010262213098643148,-0.02168173834874664,-0.028002032403131566,-0.007041346558156697,0.03718068269489442,0.04192982813170083,-0.09201745617532593,-0.08658341100799215,0.05180579219711845,-0.027733935102656787,0.16942514280678567,-0.30123481091900484,0.14069651837611724
83.94670104980469,0.9392013549804688,0.007003625241707917,0.47765117420278336,-0.304073069767018,0.6775968246370151,-0.7077901786257506,-0.42246039558233994,0.07326885285763535,0.5998757991569428,-0.08389818455268555,0.7344720731529606,-0.010421761021476107,0.10727322871958331,-0.3721632229263696,0.20002231694308084,0.1989168835377316,0.30773469727122077,-0.07067046340623792,0.016034231687739986,0.04750332504554672,0.04045743934641828,-0.030289757767550465,-0.007037349412394419,0.04620464617203129,0.005317517844711729,-0.02099099299462186,-0.035198700050365316,0.07827319920622638,-0.032403178308420696,-0.022746742416612675,0.050997292688705204,-0.09642688256592168,0.03134638328850235,-0.024003647928180306,0.02440953938156598,-0.019023514545634074,0.06873026334870035,-0.11984192705652937,-0.020602269412964308,0.00687495440670521,-0.04929080902214568,0.0590020844870327,0.03515448911866413,0.0467769178456553,0.013393223354346173,-0.006718731665348123,-0.09188389870587192,-0.00880452633743623,-0.022496775176431033,-0.020047438188324756,-0.05329943867721834,-0.05484920932157333,-0.0031301441923655745,0.04862749425562613,-0.015904552424744825,0.02965022949740248,0.003936197907830134,-0.015008403285959277,-0.010937294671136197,0.031085691998144985,-0.12102693607379517,0.20596350129457508,-0.101384459217057,-0.09495924842595202,-0.06340829206695475,0.025964033424948515,0.0974994042997363,-0.025083308155456317,-0.02638702987135344,-0.005197347684642852,0.05719928401634021,-0.022515455649374523,0.05241212519127933,-0.007764550535565706,-0.0027755432205126677,0.07411234999305437,0.005639333793414066,-0.034283481500690036,0.022938745335730648,-0.08649609336210316,-0.0767895333660602,0.02696424829370155,-0.12362932958401242,-0.004822066035872282,0.037892103189009596,-0.00034516606119012127,0.035206229547594496,0.011759108724659715,-0.006427409975481175,0.01779608544602076,0.1777249977024697,-0.04128296933090539,0.08231183943863984,-0.02610308147620779,0.08570411883346912,-0.054603663815221366,-0.03430359482614052,0.04520606767331189,-0.36279849976885076,-0.11966023556352998,0.3209771430275242
84.88590240478516,1.8177947998046875,0.36044689694002713,-0.050232160366063455,0.4404103165518785,-0.125064065198965,0.13670975462295873,-0.08527755915563295,-0.3916053781680536,0.7194609312648101,-1.0848580469136864,0.30703715852803554,-0.9064827753767286,-0.04146577434909082,0.5273801028478604,0.26996078979678406,-0.0017822641041492504,-0.040694601814642045,0.09649907836609212,-0.04506677586436266,0.023316490490710714,0.08449867145908563,0.04308093094578353,0.03801435474172248,0.12044597621459978,-0.04543747487241859,0.0026442231344329242,-0.06426647398557914,0.044565825907001845,-0.24302724423520972,-0.0403901202556028,0.016592935360617164,-0.04587509702934179,-0.1441046204857219,-0.03545631132405414,0.10127668582829424,0.0600320377300497,0.026012521704697426,0.06031844547277772,0.0009791471224394525,-0.0006233242784430387,-0.00014366622943522584,0.0008365656025873119,-0.0017488809111422753,0.018652117709794205,-0.02027835836124131,0.05638236259715297,0.05260440579061821,0.14476939637032066,-0.042095335910805685,-0.06772269528763514,0.1969066300433984,-0.020313586762027436,0.010988983852856857,-0.026491008899576465,0.003973878128968353,0.004142796508117387,-0.08432940946840631,0.07857213881725399,-0.1517704867773383,-0.09081514609228507,0.1126327364292291,-0.057364135686520726,0.044444843750932654,-0.07316844060412603,-0.13508519822274276,-0.008809405229184181,0.010674273132220868,0.017909848626118198,-0.0374570970393038,-0.029705576075353884,-0.043268890786570764,0.0012009584994623888,-0.00010121153938714988,-0.03537378368030651,0.02305934556802347,-0.007315305209741938,-0.00823251437158057,0.09088487516452926,-0.025179920548269827,0.04582208634254681,0.09069703174348674,-0.022131876611318334,0.00012169018263814835,0.01725064078720816,0.0464822321505214,0.0025696190792366246,0.006805307252747641,0.03292363591700729,0.06382109227992587,-0.0019606587653709234,0.10374917261126071,0.2938225528873692,0.02577150307680082,-0.1319747763852263,0.14261860997687695,0.48445087203815657,-0.6107918152082964,0.028976402681533002,-0.14854764906903126,0.34544921089171604,0.4685844506367701
88.61109924316406,0.9394989013671875,0.6754533025217538,-0.1517136035656669,0.0032770612005645658,0.1612071166883836,0.2201290755167236,-0.13875644643996232,0.36378111655299356,-0.737441407851356,0.21662604969861687,0.35999103841732216,-0.374805661504635,-0.3294665918805345,0.4576533970193246,0.4584610731081813,-0.11721754885737183,-0.06169352987745218,0.006450188761472247,0.0029500339263408147,0.004090307702075709,-0.008190993642012916,0.004855709127781546,-0.04873260373806239,-0.003166332862981569,0.09738675734504634,0.01853066754594304,-0.009076510889026435,0.02988214217561943,-0.04676586433090533,-0.03652932573898181,0.004502945588964457,0.021524531573303085,0.2404072056882449,0.0016263595174949375,-0.027959962354281,-0.01054399679851002,0.035589359620574364,0.0028669853141221127,-0.054345224375077696,-0.004988425259078903,0.0015404007112660915,-0.021381043112339695,0.019081764033466262,0.07150634838392976,-0.006263710206322288,-0.06031149129848015,0.03819923992673047,0.08029357581620512,0.1004759922905428,-0.028844308010775064,0.02677484046357126,0.03800805298652901,-0.004532680759584504,-0.004543618037154551,-0.07322621343096139,0.005380188857299954,-0.00390644516283522,0.06159141796475351,0.006472395106204645,0.07302016517034977,-0.08793340274815316,-0.04811353719880834,-0.11002733276126678,0.08458044618851439,0.032581229935743326,0.018078823907243788,0.07331040753991067,0.0573277440624152,0.09418620319562476,-0.020459787671271122,0.020944924304277857,-0.0021248148127384365,0.0056480581168789285,-0.03800818552054094,-0.0035850018519055452,0.00684761962648955,0.014376068907338639,0.04064523122220311,-0.03326150679434916,-0.0782289671616993,0.010625931100662634,-0.04247315873332698,-0.007686713377432427,0.037545182678845455,-0.02619793879805923,0.03198974674382069,0.0102301235603212,-0.007522780295454383,-0.05887796674234971,0.06527148811368878,-0.03254849329568917,-0.08125303186577267,-0.1751216797893507,0.0024023109516386454,0.15057977085624694,-0.035511424655782955,0.041639389874224,-0.11440135211271513,-0.18646674694448287,-0.33330849857691586,0.054846422627636005
89.55059814453125,0.9387054443359375,0.035718375350409726,0.23643398147056838,0.3487933911397006,-0.6325527611131364,0.0798797279015381,-0.15813894059854047,-0.5543086399304087,0.5179326623766086,-0.8481503394889242,-0.5835956760177587,-0.11508139133139496,-0.27866737085638016,0.05929896524816989,0.011765376827224928,0.03765201089256522,0.049138951460648034,-0.03159181479953756,-0.01446924212005974,0.012087641179535273,-0.04344768725406569,0.05363871226442655,-0.001449143959266185,-0.07130026505369844,-0.05806312551969066,-0.052898972468533305,0.000795351346140205,0.05647264595258217,-0.011408745920769368,0.031579807959457584,-0.0243249368081105,-0.04693579877878065,0.10450184159348719,0.012009123204397981,0.02102747950750336,0.0414648211379183,-0.018550399559989193,-0.09243284785348718,0.001774748513131468,-0.006217857719427045,0.04618015472502959,0.02520012364105349,0.06276793941966861,0.062052264093657356,-0.004792799227391786,0.04086303614383555,-0.05090296016062035,-0.007570096360751106,0.053417208156917605,-0.021394776026972047,-0.06952405814948426,-0.09560079372364277,0.05925914425315743,-0.020724990459043417,-0.02423885478100031,0.003730538053245115,-0.0033230891002704157,0.051467378858930546,0.003402633288276856,0.08075432443105285,-0.05233430437456191,0.2001117872713448,-0.06201932688093846,0.06798881977500083,0.05854739000855524,-0.005124811876685469,-0.0334760004915688,-0.017257845750128002,0.027700948032069475,-0.04240337261086105,0.06252398290887264,0.052137204970861196,-0.001890606168307572,-0.008941091934307007,0.0477887436327824,0.09930276907862637,-0.012190794891948565,-0.09727237704797154,-0.019886909143430682,-0.024096428238257195,0.012265695103791236,0.014097162060280563,-0.027912242951608855,-0.0006406696013138381,0.019602669945054572,0.011349099078157367,0.04545178430954588,-0.010861805819129919,-0.07128355921694449,0.07506841784558187,-0.02361419169445704,0.09119622548896335,0.09700516803090631,-0.06939494354852745,0.22224825396266545,0.025443617190696034,-0.02007126588188113,0.20655352305397773,0.31004606247887034,0.004341186275051044,-0.07843950317386733
90.48930358886719,0.92889404296875,-0.06502481572542021,0.4180159540246189,-0.09841888417373265,-0.2138328892133764,-0.390812659806427,0.39319174835775816,-0.13980822868637954,0.13055522953561613,0.23967306635868507,0.6959061917879202,0.029403296261084122,-0.7863135487485227,-0.4006058127232529,0.5356083222082586,-0.008509126933007392,0.019663806042488713,0.010299189090364964,-0.09722987318077714,0.08078293699689293,0.007330008685147603,-0.0023271500684918845,0.002423317647589759,-0.007872367007543344,-0.009170456362998666,0.007051249092773597,0.03348770916351794,-0.0003314524794379853,0.029649242125501657,-0.046034720139869145,0.02202495241074898,-0.10898661922145385,0.00598874914055586,-0.018359838553355393,-0.05088446746223667,-0.05506954914856285,-0.016896326806134336,0.06289363250235623,0.06536004217472982,-0.020913290689030698,-0.003168316342841178,-0.006815758912403413,0.042211544538580024,-0.0035077915050868913,0.016004364279354585,0.009244438032594594,-0.03194594357121318,0.06320350568034382,-0.040017616195881456,-0.008514937650628673,0.015483068017276913,0.0002171428037797984,-0.051012873478259814,0.039633374280545086,0.050078989124881984,0.06923842645617793,0.030543975958852596,0.048353764704726784,-0.004724620460652757,0.01641166554767916,0.017955192635038555,0.00795144802069247,0.16631372307508507,-0.0719058326736885,0.018556310232607693,0.02218487765105681,0.028165809286492496,-0.06151484884467469,-0.004801528788537365,0.01272950319400462,-0.06101359160538367,0.00844366603237166,0.03365516641410381,-0.003743755257795767,-0.010811809152179115,0.014135059922445408,-0.022592656468004933,0.03612044508275694,0.07350307269205344,0.007616100621360719,0.05796233972765449,-0.018190054646677434,0.006381973419770531,0.017125125561525636,-0.047535786517336205,0.016852112999644935,-0.04027944487121379,0.09114377618198824,0.013461340713035341,-0.11741005684564025,0.11828197972852475,-0.031750110749913865,0.0038103692274599876,-0.07391710970880679,-0.004219101080257678,0.09284598641939065,-0.10870493254474574,-0.3648029918556579,-0.009205420871497266,-0.07482305858624036,0.0698977133986946
95.14399719238281,0.928802490234375,-0.3591401083721129,-0.1654309669584208,-0.11687880535105599,-0.18793324551773796,-0.18736420224254255,-0.16700014131797664,0.2172109223056839,0.2029667193102437,0.12466553894965726,-0.5154364833305859,0.09001214063110038,-1.0920064957793838,-0.01809515935484965,0.13151855442154534,0.319132175868362,0.11857343997495223,-0.017854214673886083,-0.0035787267285058762,-0.07863780706793734,0.022655254421248917,-0.1289871220626967,0.017957205201386633,-0.008411997497269515,0.07209791488102381,0.0190856121102193,0.017313354492776385,-0.05392595740115481,-0.024570016413266005,-0.03977010964824923,-0.07211260086602049,-0.12262823028021633,0.0029024873790012805,-0.07142691518368396,-0.05231083102915092,-0.0026625741438137535,0.019969894756921795,-0.059812657053909216,0.07065637740723824,-0.017319369066515013,-0.02365572350924062,0.0009184311900780075,-0.004762652712180739,-0.012561298523087246,0.02643109217675449,0.027529951091323175,0.040745187346724804,0.017035662797141613,0.06296306883391131,-0.04209906627869532,-0.0544720270555564,-0.02690364545197197,-0.019403235137254324,0.04457111027122892,-0.0351653993449363,-0.06269712668862505,0.02045879478434807,0.07924972512144887,-0.004494624354185399,-0.08777647315666803,0.07864692425260623,-0.1459266927617792,0.04280967233503963,0.011331637167264416,-0.033349824796046125,-0.0067280403384614405,-0.07381674068583832,-0.030837274176414492,-0.00629904843768158,-0.003199047511145579,0.05750037536287475,-0.0003952778125186694,-0.06936098042657521,-0.002481461427099322,0.046006048157376814,-0.047073265531462447,0.08670463447432228,0.06142100061420844,-0.013130697363021502,-0.07867944029862364,-0.0034451145522295685,0.07776011723357294,-0.002764163353864417,-0.0037011435821568545,-0.05690545803756636,0.01611768120605507,-0.016984159849645002,-0.013671599763069975,0.07488595045802426,0.055541888619524665,-0.028008454458158867,-0.20533298036746006,0.10782529742618954,-0.012629361651585208,0.1713053787348524,-0.09138460189510851,0.04551854048670398,-0.1907876259958339,0.3504868379839642,-0.283474567051752,0.5670324041440868
96.07279968261719,0.9289016723632812,0.5496832190525003,-0.030204652318995925,0.5787519209092135,0.18581864809924648,0.9943478416329438,-0.07036319180775763,0.06630764777668947,0.3355371825198076,-0.030934884830839837,0.007821037090888959,0.6428080340320969,-1.0197074214736264,-0.3977961605345046,-0.34968752639048517,0.1696349558592304,-0.008580996554128993,0.06533394129290372,-0.01936143780830844,-0.038351737255517826,0.01331109367277748,-0.0515267556465346,-0.06374951048112311,-0.02577594569878178,-0.0068691050978235526,0.011988335559828985,-0.015213359147719464,0.03644117523995608,0.10054481088017386,0.027237291876037933,-0.016807046370306757,-0.0013687058349873735,0.0014397937499326802,-0.022497580976948886,-0.03319579855779873,-0.061351777588573256,-0.09634957762124013,0.0027238603391528757,0.001242044334060801,-0.009147341896555302,-0.04673465876862722,-0.021643741527838434,0.06474837243509951,0.08141114946283745,-0.0024279639376616775,-0.03676525384163287,-0.00985427225184355,-0.009968306211921074,0.0246204325441668,0.014040272766567143,-0.025504635053233624,-0.011242862692109255,-0.012179542664832106,0.019921326192915742,-0.006582092425583094,-0.014722027577686606,0.05452492764043714,0.012918235003634254,-0.041630011815810254,-0.12766438721589599,0.040199902449311806,0.1311629416273758,-0.14950934511761754,-0.0045225764118958425,0.0025903545230144065,0.010406153164466506,-0.09905262715381498,-0.034129508166471076,0.004601524714708767,-0.07479648875138645,-0.026911090178962482,0.021502950982574605,-0.046426911152640096,-0.05388160943045436,0.0648558434442206,-0.024955139698935327,0.016589874815944324,0.03187511295902355,0.04573106610578264,-0.026417843146486725,-0.08810752054137012,-0.008647571304927975,0.037858287970152456,-0.008731873423208844,0.02836078780639281,-0.0035512427708618635,-0.05679543809925315,-0.07460740230961524,-0.02212533141641164,-0.06964046014536718,0.04921208783720291,0.03975666240128492,0.11146554393669075,-0.09784151091020493,-0.013307411347741108,0.06775708535270411,-0.21275645796447226,0.003479901822913703,-0.07898119726107639,-0.14428070614860145,-0.19430510297625841
97.00170135498047,0.9490966796875,0.06617201697969041,0.12453523088434171,-0.13787553721917079,0.16498200995134454,-0.1925078967840263,0.07955989330184503,0.22970317509746738,-0.33548923783855433,0.3486369411882213,-0.015406689148892573,-0.22107469309224925,-0.1393656000382957,0.23715303851912314,0.3591666040846424,0.2516789009567366,0.12070639055098145,-0.03287877824896207,-0.0017456591987803087,0.025885764230234615,-0.00466736351437126,0.008306113716907149,-0.02335498789504022,-0.049987680639554846,-0.07302637490736166,-0.001703530224013249,-0.0017100564771849987,0.049581003156457776,-0.07962470134480161,0.00936929324509891,-0.044922284209537304,-0.00907416258992882,-0.01929123376209635,0.05116512539399665,-0.04020523750770419,-0.07279401688715821,-0.03992064897122692,-0.013750789634605912,-0.003098427871480673,0.062154170983621596,-0.023058518689717603,-0.03311738078604136,0.0036892510226353066,0.019917159165831436,-0.025318505908400252,0.004152895976671625,0.00990058307951586,0.01809276520748057,0.010559246947106388,-0.008532506777836332,-0.0725339195337064,0.03444767483581474,-0.10507153416991448,0.08646136022895026,-0.030135896813424677,0.00031459820855599466,-0.0029501682849238237,0.003731385677053384,-0.09565498777632209,0.07141140008162875,-0.006898277128356344,-0.08576411725599187,-0.018152102307398034,0.011087004949137922,-0.03185620689276863,0.008638605277409575,-0.044860241920355495,-0.08939291912627444,-0.06463352188210214,0.06644377035698443,-0.05892704051103054,0.0021145482643810465,-0.01343231634277395,-0.03578275849236189,0.0039015222779516068,-0.03513552428627758,0.011815911803290577,0.053888852962740035,0.008235321824158546,0.02875722294593279,-0.00010843440671061194,-0.0034207210631403417,-0.004726300839875202,0.05381032145783383,0.008722510484208815,-0.0148524660132555,-0.005322177792345183,-0.03001685484492572,0.023439463991025283,-0.06617809455007487,-0.07181570822535989,-0.03941274008275851,0.01680921417708301,0.013477697682294074,0.08256304626887709,-0.02946897249678243,0.022952521673208444,0.15875572516432385,-0.1568532399462276,-0.030752352090863994,-0.1987787441872525
101.6364974975586,0.93890380859375,-0.23960186268977107,-0.06603686799522872,-0.12233223485929906,-0.09630796549242587,0.2964548061985588,0.10361024170335263,0.07079437042426583,-0.43397417573514235,0.44546264576194766,0.19685790532667458,-0.6568206554337205,0.7362401494133854,0.3037860814536473,-0.32780308069845693,-0.3215657097370522,0.3003658189231885,0.0432907301928402,-0.046649434198919926,-0.02540295376726872,-0.04318614954885358,0.021164020626559595,-0.009814007293952001,0.01758109198103089,-0.07883184350029697,0.004966808868660266,0.0219169254712142,-0.021394789988215625,0.008853681106080553,-0.05743797006492001,0.0006316856174916462,0.04247028807334612,-0.036217909912477586,0.02687733239854225,-0.10580098179244574,0.03827541757379947,-0.001342432021001307,-0.015905756556244224,0.002150668017541778,0.0009731591531566895,0.000863083581128174,-0.004988181266999438,-0.07615453707984743,0.12381204524452559,-0.04758089787430606,-0.05047213915953616,0.018246296270825295,-0.07720867350946277,-0.021615483667551574,0.08568161810621558,0.07852178840222122,-0.024292042208948927,0.04695290416049015,0.05773796277823141,-0.0461591526482533,0.0825496503559973,0.02533566621526166,-0.025031229536077094,-0.032039286949790594,0.11609215535805291,-0.13495804476544065,-0.021439884602133683,-0.014239783327451565,0.012736580184326104,0.006790582175575488,0.01391248472037411,-0.12984543179666658,0.003348185036646532,-0.0016650164005044682,-0.026201267426559587,0.013752621792374598,0.040203444037007756,0.004943196725989094,0.012358977213188191,0.012187882639998279,0.07138118183768867,-0.059555930300176356,-0.04195182474624683,0.011206040258328494,0.04654186195037475,-0.00360252919604983,-0.013590443121425556,0.0241121258505661,0.060900761969570026,0.04599555758955459,-0.06694042635314248,0.004967606170501097,0.027916212311046504,0.09021899578152427,-0.06970387919001723,-0.07967574730953121,-0.041387105782721326,-0.07720979184717143,0.020698505140983498,0.2611460035014333,-0.10967089708209897,-0.12606027682062032,0.19084363627050788,-0.046625628352594345,0.03828403465360376,-0.10126935180417121
102.57540130615234,0.9188003540039062,-0.08732284033058765,0.24327296456720332,-0.2596167163019494,0.2554680201399836,0.5293064120384828,-3.062242670863469e-05,-0.4745407382443364,0.10915110271320316,-0.6783363829684895,-0.1906817552413201,-0.39767892414228573,0.04998960418329507,0.978880357345387,0.17546243817945584,0.11379650152514512,-0.05971637376518065,0.041353834371646456,-0.00343777120240164,-0.036695732453120945,0.13780303094084284,0.06300930704253709,0.01776672470190426,0.07053805433813654,0.040700849124301844,-0.004253607299233891,0.018177000450522358,0.08999294913628521,-0.01007989960524542,0.010982215702375925,-0.021693489289108216,0.005475619252696913,0.05616957107715047,0.045406132667111195,-0.03181679270137433,0.06252767599943516,0.026363671382073836,-0.026664753873331247,-0.027608550899645715,-0.0050801761819413045,0.02820165269772117,-0.03419714967025702,-0.001975723060130205,-0.021493926848692956,-0.024912490654138628,-0.00914267737163696,-0.012363702857643814,0.08992105830528577,-0.08514592830267073,0.013121252778290286,-0.0334600065535843,0.037357336189124,-0.035460647172204415,0.053207832895721244,0.056266655581925853,0.0018984180156137438,0.0037128017624930712,-0.005554032504299268,0.02017305580838415,0.06059955499861149,-0.20564946469084877,-0.046163191310946705,-0.030317621422753238,0.012595070776805044,-0.0713084752393778,-0.008341254260771647,-0.07533191251451632,0.07312141469326976,-0.030627138211408785,-0.008865247228625722,0.003710348673898189,0.04355301147571233,0.009847246983246242,0.03877053402427097,-0.03102061020771399,-0.004907134344951255,0.02587989763691949,0.04942952877199894,0.05461198827312475,-0.0010973341343742987,0.05513825745811373,-0.007725721979510741,0.028767286333085604,0.0365423908703317,-0.04111931262478465,0.012485759451972384,-0.012126810774796694,-0.01111097447583155,0.03439601705877228,-0.00934210214203386,0.10923143214606577,-0.10830231480336813,0.06912771933771879,0.027667367267737088,-0.03237479502136429,-0.07499930856192862,0.1044851675190619,0.2939914046550459,0.05405571697272278,-0.10679262406781947,-0.026359499780689466
103.49420166015625,0.9188003540039062,0.0067595153320835905,0.3613808896843232,0.41867489497103494,-0.314487476228613,-0.24431451946511792,-0.17918342619507058,0.03291571909753789,-0.21205014702542707,-0.44634927079025066,-0.17817554473188196,-0.3461658402913628,-0.25056926298641596,-0.18062555031703217,0.4950341439963354,-0.22082924633624226,-0.14668229177656,-0.02612906708870906,-0.020247501637354583,-0.008394891617253321,-0.014016041010470034,-0.019977439357838744,0.06400559372249436,-0.10280251438754108,-0.015710239653002455,0.06393911627591728,0.03539883024915762,-0.021204894310280876,-0.042702364843423324,0.00014905395391660858,0.053246940904792865,-0.030865631210437262,-0.0076080061648542315,-0.030291816873788124,-0.03497510515054601,0.054277240979689244,0.04915231278069315,-0.0484697498727318,-0.008165576594470531,-0.058791150681783935,0.03436169252403055,0.03596521101127726,-0.037761965372107284,-0.00549299457467659,-0.054286255411733424,0.006902038424402937,0.010471466913811891,-0.029650531024262218,-0.023148962729724856,-0.04942270141427234,0.03965828732044937,0.0072454310162844695,0.014090761194171597,-0.03922656952770216,0.009017470517897183,-0.07668982734620303,-0.04935541881299695,-0.013734014931889759,0.0038257749374963346,0.2226172610363354,-0.147243473529228,-0.09674375330007248,0.008642681265693127,-0.015174725674338443,0.022346579358153665,0.06802957417682165,-0.20869907311241287,0.03610175343169059,-0.0373036179067569,0.07724437882213112,-0.0909787012616331,0.009504832104653756,-0.026309264068661548,-0.03640138055308145,-0.053441909587402386,-0.0012899286343822014,-0.04314643816567414,0.0017514898457468664,0.02643905430475426,0.0018734904765466756,0.013231742048844055,-0.01350396684966895,0.02550527831148174,0.03784565152167459,0.011779418641099722,-0.005538475419295662,-0.05922162626187781,-0.013708861521065138,0.1175946695385895,-0.09651591921585939,0.16004771461559028,-0.042175749121487235,0.12638727174129832,-0.14454025837629714,0.09786663241507337,-0.0007693221817307756,-0.0905073633242337,-0.18479833251345712,0.02862219287649559,0.23626593876186708,0.03997494934588472
108.18889617919922,0.9285049438476562,0.05530448258670395,-0.20748833519812215,-0.08663279197945462,0.5414115023001269,-0.4232124254496291,0.04473544914016986,0.2771780645379175,-0.26720379154271723,-0.4682985764317951,0.6881222903088654,0.1983818386385641,-0.3814835763890065,-0.1065777365142016,0.09725519089178188,-0.09402408481662411,0.02793906780355543,-0.022265690752621973,0.057516061760886764,-0.016923057642158366,0.040811423206828894,0.06764399611890488,-0.037287216171950625,0.016816533834165592,-0.04200112663552974,-0.04483972829251824,0.008822705215769874,-0.010938467546914,0.10310307420750094,-0.03941871198580028,0.048036612903669826,0.10643552776794465,-0.16123336191404672,-0.021645543686788695,0.02540729375145814,0.06147056649263883,-0.013099646640965927,-0.003017728368156486,-0.017618768586977557,-0.03256844985664338,-0.0011767693465875482,-0.01740654077141914,0.030775815609768838,-0.011674533374209158,0.06608779274707874,0.0038386394034828418,0.01882798217047805,0.0036130376900034315,0.00022222071301589868,-0.03269644846194676,0.08860063871539897,-0.0516255307179953,-0.023358834321993274,-0.0018269956344781053,-0.0008186884061951087,0.007054385937795827,-0.045385742099408044,0.03305151752406996,-0.10405438124096869,-0.0043739679646340335,-0.13178527109758437,-0.12926754080030162,-0.09929393844027654,-0.0027881433806363903,-0.01606998174689018,-0.05061290325475232,-0.11017200764743439,-0.03672735395694603,-0.02161409669860085,-0.03892692749411034,-0.0029759427136760966,-0.0006615570397314825,-0.06263071961365219,0.018594753879266422,-0.008953512274318624,0.027209920107421976,-0.027929078457256125,-0.02933443123773933,0.003358087301060674,0.06264430235133732,-0.005590681817282041,0.06537446065263519,-0.04382636985167129,-0.018285502847997664,0.01039899050439393,0.00999477135491983,0.04403228064202397,0.030293781062785116,-0.04039377219692111,0.05468866752469406,-0.04773706065247086,-0.0415520208443799,-0.02898282973696681,-0.04937376847340788,-0.0063663561305006625,0.10552483007212932,-0.06712210478633106,-0.38163363239153425,0.12166687723231062,0.16002576728059345,-0.20103263663800547
109.11740112304688,0.94940185546875,-0.21838838279650424,0.0299492502372302,0.3953487456644738,-0.2680164581836803,0.07213720125301602,-0.18792603062508634,-0.5783961380692866,0.30893885452039793,-0.3600505514629697,0.5516815827102437,-0.39789158679407044,0.21827563998341362,-0.5957612664583838,0.06215651820044436,-0.12796387044828636,0.17590969131051534,0.07712674413952948,0.0034447863841613694,0.03233781138196932,-0.03650173156742682,-0.048465575300758644,0.019369883770908564,-0.011632098613474187,0.009213729638491144,-0.02569289035422872,0.0031583487185791025,-0.059987153376613755,-0.013959019785716495,-0.004689317233347211,0.08532098462941717,0.04756955506323088,0.07279037594663422,-0.01956228144845791,0.0053164085895271475,-0.07967473332466712,-0.03741635913801334,0.013426563137424005,0.0243071105671069,-0.021919131141486723,0.058484948518706975,-0.028424017281802202,-0.06649299644820937,-0.09374518487654948,-0.03927774583847552,0.019398316799575575,-0.05364287853605538,-0.03245416162515878,-0.031566045282313576,-0.07944905275660195,-0.01431938751096305,-0.050575014487867914,-0.018830960288521353,0.004747210769122407,0.012468587501010639,0.03091942197973789,0.009729966230218705,-0.05415635895241017,0.019028080147078765,0.017649273751533197,-0.028576970892832083,0.04551645206871063,0.0653472130201066,-0.018633237509007975,0.013636190065107438,-0.08652509100705567,0.003250702816156286,-0.030710920802588294,-0.03612068568879392,-0.0002882217456707803,-0.029872440221417742,-0.0060460090851029834,-0.02161964390002624,-0.03381314529873095,-0.019236131864451077,0.02305282004769223,-0.013431761881644449,0.010077742088595954,0.027432195445322993,-0.026480046301325052,0.04978531557418408,-0.06683336954570043,-0.004944004578383331,0.03264095144447714,-0.0009002322151045131,-0.08441062233597904,0.04768454303778475,0.0055675568833932435,0.006048341081756101,0.02304546994580628,-0.027156108783991426,-0.040089826409739016,0.0041741167367418605,0.010913446097986907,-0.1925025557205902,-0.09642108258416782,-0.034546186928192044,-0.06227919224867764,-0.12156213361023747,0.15383409022954916,-0.008330590970412804
110.06680297851562,0.9485931396484375,0.013391449712265246,0.23724663155001008,-0.365020013383869,0.29470591477052166,-0.46562078609275237,0.12347553416836998,0.017635244567206637,0.609279361019121,-0.030807202378057646,0.45708922784325273,-0.16431918894246286,-0.26464127680116145,0.4894880144857776,0.24877477136198128,-0.3387033816805367,-0.05195063079485726,-0.08681397300048208,-0.01600759156063344,-0.11129565047084602,-0.007051830580439707,0.04898460347777165,0.00048583916319973287,-0.034316002212829703,0.013943930100007777,0.013465570959432308,0.06767052257699017,0.08721841038810021,0.024916933778305592,-0.039279737513177135,-0.05340933442889238,0.04630829394133181,0.04986784279624214,-0.02413080589704044,0.018712948187795328,0.00603541741468675,-0.00417869441584054,-0.06859045668827604,-0.01386946324582347,0.006901015117546501,-0.005323904197737834,0.019234578392563113,0.10668454757713926,-0.11498902998478945,-0.034604033112430446,-0.005517089935510177,-0.022651871811590278,0.06364141238357891,-0.008975560372795531,0.036470065333252165,0.001746289374566402,0.06766640028736269,-0.023745966784349613,-0.006731284643396793,0.0077407059166471085,0.06664633641242819,-0.009048968697554794,0.08222558912144942,-0.017328533502795958,-0.002630177551700634,0.09173029675451291,0.13999157238002075,0.014659670341044225,-0.018804027525802472,0.04113058956901127,-0.09507979333995044,0.05296717871036821,-0.02286655575556403,0.020861828725261634,-0.006802717243227122,0.0387946782035269,-0.007752280942110153,0.01541430200304204,0.006935769008439425,-0.0006412884960084901,0.004132546181643903,-0.04141107398787154,-0.013849497216595999,0.01522867253198444,0.02502672951016094,0.034153678969644725,0.04726651372644682,-0.0007799419145083559,-0.09529643329087586,-0.08380951543049717,-0.03644427366120796,-0.019938724073475793,0.015750167501628883,-0.10304757752309593,-0.0499452412718523,0.003600694530123169,0.10575705832881824,-0.053002241752609744,0.015256674845486118,0.14320914825319067,0.07075873732489514,-0.09300037952950041,0.2922864452001288,-0.07985568669595809,0.0539639729983184,-0.10283832910416894
114.78070068359375,0.9291000366210938,-0.37894912213311754,0.1539372057832729,0.09718382095929472,0.14006752436980618,0.607706466837349,0.5349666909269265,-0.4344741925187333,0.3451056523774633,0.2415473951397913,0.03664963436617885,-0.8864360042055274,0.2151909266984663,0.009687133156060318,0.25704809153596386,-0.27811756115954495,-0.24216058905052262,-0.11751011064214999,0.023840954549647738,-0.02389057300499024,-0.00693404936384168,0.0028940965898963493,0.06842628583883419,0.00933789567401283,-0.026017741393401392,-0.024979138559643014,-0.034888615271052886,0.04158898005038454,0.08765710829235245,-0.03372865157779399,0.07313741794030436,-0.06560411450680854,-0.0037247792941118426,-0.004637302355263842,-0.05797278317532792,-0.03415644773182994,0.011889376944226676,-0.014292739018096346,-0.007573219617898005,-0.003477931500989773,-0.020815172242947995,0.06027680112644339,-0.006083133477653503,-0.017689245808873683,0.03280711954268785,-0.026347160965220412,-0.06868133239090252,0.11951831774550052,-0.0001557664894610883,0.043118183826195616,-0.009008692670879509,-0.05803111819998381,-0.01540833325164226,0.01403514897809059,-0.004242533980146512,0.04610246055788733,-0.0727645928227308,-0.03881286969010997,0.09448801078991138,-0.24011885779203626,0.03307679025759949,-0.003481120499884376,-0.0333668287619672,0.07005975329339209,-0.02473455521798254,-0.062819224836206,0.023312990132884764,0.036589847914467705,0.06220056565524035,0.03471312733826092,-0.025044085434031083,-0.014104799757881717,0.002700003378500307,0.009555952309114822,-0.04478684443510159,0.03204970235871006,0.025572065586848033,-0.0803266944402639,0.00037392422104241124,0.024006346943473915,0.1187425949053104,0.04222519331903906,-0.016864088651947606,0.033208551843462594,-0.02647323603275676,-0.022038532920251482,0.022330190203518046,-0.06415803702471498,0.008781642108029248,-0.02368494791601987,-0.05663213364213535,0.017917170708046028,-0.04192723715179208,-0.002078321464745034,-0.13328982904793377,0.14957230810517735,-0.05922656116676607,0.20795870489061588,-0.5578379802050348,-0.28035458517836337,0.048657067998882836
115.70980072021484,0.919097900390625,-0.07167838993401102,0.18969670023090107,0.3005711418859869,-0.3783211659832066,-0.25333628327126717,0.11116885693371995,0.024902876285359733,0.31202596502307456,-0.574088573294461,0.4092391085390221,0.3055457583769383,-0.09142382016896336,0.09350741257314153,-0.3323469773152434,-0.2952388453124135,-0.02258699194725773,-0.0008950214125810315,-0.04854598252937438,0.04887149944600954,0.01604637288566093,-0.019489977713897978,0.021659641681106404,-0.014256071014831465,0.024573487282348285,-0.030762381479198547,0.12954514144159124,-0.027703881869783113,-0.03198433255654728,-0.10665379569062892,-0.18067158264037986,-0.09634099879580785,-0.1259483718363051,0.01628639358522175,-0.004546459316347291,-0.10656761135554912,-0.04959028465559403,-0.0658062268035812,-0.09586781634257309,0.025513008414862894,0.06762765697909276,0.02869389149625049,0.04046507070449384,-0.016751509234269442,0.019498786718091687,0.029651399698629698,0.013013008930628204,-0.062226434226746806,0.06753693313044863,-0.036066991780195325,0.04596870162254039,-0.008402728158781306,-0.0075067540989374685,0.05522853839773417,-0.055215410495526085,-0.01832417065271207,0.07515890717927366,0.001909020847847174,0.017854599502921585,0.0010983074949154161,-0.0007293473625490559,0.01608823899656959,0.016346966074927943,-0.2505016734449468,-0.051436763176387325,0.08837994180041181,-0.049112829976282676,-0.08603772562928827,0.05046796400378394,0.06593661715446582,-0.01964065130872404,-0.004374738496074242,-0.014543997338459597,0.013331462998910533,-0.0023907784997443922,-0.0002277714173317259,0.04730131265129077,-0.06460261789524904,0.005751649326335803,-0.0029941112958422494,0.06691635532790698,-0.012433657440688233,0.01603926277061601,-0.0034884853823936406,0.008815016067199463,-0.006560820189474557,0.07611952494978429,-0.0016668745264445646,-0.060228318101325645,0.2328535739978113,-0.07567403042262479,-0.11830986315551259,-0.0893695196303221,-0.08244250853200863,-0.044090910745711274,0.18607917968595722,-0.04918035484355493,0.1514195168958865,-0.41182487249882005,0.23602011425949693,-0.18524299516109033
116.62889862060547,0.9488983154296875,-0.18254954625797587,0.03616921559794446,-0.3136886228676272,-0.40217533711469466,-0.14321841545599195,-0.26411336989193596,-0.07822196251639302,0.5198736646528664,0.06700639440917482,0.22982428337658894,-0.9323401470198664,0.6417781943313268,-0.3883217234127976,-0.16996709150384773,-0.026245416767467056,-0.011297294211682962,-0.037480040346716294,-0.02451006079465627,-0.06673980960691286,0.03724359583926095,-0.023472384618295546,-0.0072811276130390346,-0.04859652569280892,-0.008696061044682667,0.10220543686771988,-0.023567990202249103,-0.021516814120148598,0.023597622742246162,0.04265264338242559,-0.03642085569184379,0.05836540712922047,0.08965247692953687,0.06879962274475264,0.03896541770446666,0.09847016167475318,0.007193059504419022,-0.009135041820120253,0.002081367936996272,-0.05573562929415818,-0.014508986523228861,0.011333905672373079,-0.020518251350435092,0.03046604448444832,-0.030617429352594133,-0.014802321910043046,-0.004782225160036282,-0.041732922870089534,0.07672036254831584,-0.07060746493497985,0.033043873928951466,-0.05564631880436985,-0.0549554736741031,-0.0021109042621320654,-0.03039372385624048,-0.020438917937716176,-0.014575685922252541,-0.08384558865580466,-0.04012063115947715,0.01949490808068927,0.03275579222706873,-0.04411684549887742,0.016917218041619775,-0.0013664009026472389,0.07280029445794028,-0.016422527853837472,0.04093122085512989,-0.03152048388105415,-0.04262465164665476,0.0104541471314379,0.03270829666049889,0.061215126795555644,0.06015381777773711,-0.02495687393307597,0.038131575038037824,-0.029287999016213803,0.003473284714342338,0.0026900372301115576,-0.01823265786855575,0.01020072924278788,0.08661306924816209,0.012499584861314604,-0.046376413820550806,-0.02385064510492484,0.06582879059050098,-0.04838291001072036,0.05354010612704521,-0.05734783945385348,0.02254873539518063,-0.10007621979008993,0.023993840199417332,0.06986787080173515,-0.061233873135353875,0.13546241078094434,0.03496840059833348,0.1707531865069345,-0.08205287139364725,-0.07281019997377408,-0.0005652980578487732,0.1435600767484579,-0.18119182249017562
