start,duration,0,1,2,3,4,5,6,7,8,9,10,11,12,13,14,15,16,17,18,19,20,21,22,23,24,25,26,27,28,29,30,31,32,33,34,35,36,37,38,39,40,41,42,43,44,45,46,47,48,49,50,51,52,53,54,55,56,57,58,59,60,61,62,63,64,65,66,67,68,69,70,71,72,73,74,75,76,77,78,79,80,81,82,83,84,85,86,87,88,89,90,91,92,93,94,95,96,97,98,99
36.36774826049805,1.3583030700683594,0.02496717642837471,-0.03574551080344074,-0.020867441782394493,-0.01270781513077203,-0.02653254739930331,-0.04738473020682756,-0.11166913486673839,-0.004400994707935514,0.06253118575110415,0.060267594481642844,-0.10637913556065183,0.3600216511036215,-0.020618490877626922,-0.10949922568805849,-0.10352276588072251,0.020804373700477316,-0.0037200606199665476,-0.03636582646430704,-0.01917486465809838,-0.26904713541450515,-0.053211462815378585,0.039058778592339825,-0.24320841598967627,0.2661492013472818,0.19647430211229733,-0.0005263004368915997,0.1447092141696372,0.550646338157858,-0.1728432508010428,0.07490580410597382,0.14339335890861574,0.23236559915793453,0.018173378924297365,0.12590211465790094,0.17804456857784604,-0.035312944048471614,-0.2507593854126996,-0.1844936103550351,-0.2949809784278664,0.1570890755744851,-0.3630418392105276,-0.05191069897871599,0.14581999134385357,0.06744677743341639,-0.041998485787209966,0.024079710864294196,0.11138416442402903,-0.22037577623476204,-0.23467751806895565,-0.06905569031363816,-0.08484227280171994,0.342830468881304,0.5002657255531764,0.008672673202803533,0.1919620919909076,0.23206272335476436,0.20838460226702393,0.23667082933010225,0.3150306857476987,0.417436689267325,-0.27126986873190606,0.05127459850095661,0.11004783539510343,0.06881720505860955,0.025588340343255387,0.007926180775245022,-0.02335762432821422,0.022610239486102447,0.020649961695742264,0.03975746044892373,0.00700295340555712,-0.07002543159291968,0.06254929732920546,-0.017937208546919343,0.0524836441569661,-0.13338141275099963,-0.07751176271161145,-0.33339232229936633,-0.017988720436745292,0.2989658812602259,-0.049551583168698586,-0.13920051788004287,-0.0006764155703299288,0.0593417553653606,-0.0976832593082992,-0.029948237709898743,0.42345779785291837,-0.011168134004113636,-0.0039156048333214444,-0.004299689662363578,-0.1577474266917162,0.004662070114679888,-0.0122486868899098,0.030835837159887036,0.031191156169783255,-0.0251504411821346,-0.00020592018143815102,-0.006917995551318933,0.09353134757022281,-0.1064050245810113
37.726051330566406,1.3288993835449219,-0.09779351084710282,-0.06666487053370719,-0.05169585106235004,0.07943583183996308,0.002283127201434615,0.04148196761984469,-0.000756234733743619,-0.05084958613201754,-0.023189688912702715,-0.062150996558510654,-0.04755416329633884,0.08329397536756684,0.01955639558981976,0.05872013407190412,-0.006846661529098562,0.0331934118734912,-0.08727816980367378,0.036705742084791465,0.04492786768531295,-0.17883260739310547,0.018573594715900005,0.015195342363847886,-0.20812075227195365,-0.025798418422481123,-0.4669279177597384,0.1734403050394555,-0.03869157304687011,0.03817039111936768,-0.1114991727702635,0.09212210426556533,0.036650184007832175,0.3061371376160734,0.1002014682606057,0.3123843370307237,0.15545634843707004,-0.15250134005006324,0.3320445734115368,-0.05637113022086361,0.20639383512301868,-0.029350272447767268,-0.2654778389837661,0.42998510354747244,0.3940266726655139,0.18016412985674382,0.07878884920640483,-0.04658028937596112,-0.1619519338292521,-0.05929511287492505,0.08168711952047025,0.1657512862635423,0.1478220906347983,0.011932432129306815,-0.2624554806627899,-0.6058337630922924,0.056336537869412735,-0.29715430181905544,-0.08030463279751476,0.24517504979322585,-0.031533625581107505,-0.01128154865651481,-0.2414878116190164,-0.21681694430108367,-0.11980099082125457,0.01860339962855633,0.044588074794820326,-0.2172923696620402,0.003058811736796705,0.06040884727597033,-0.03429638048105693,-0.024050216642143317,0.05437115743066824,-0.03225173257332724,-0.02200320043277779,-0.0016096749578337322,-0.0778124749660843,0.02479523336705313,-0.090082354657826,-0.45102160607513747,-0.05337852505620832,-0.08586125634909514,-0.10095138610158587,-0.18135738877475605,-0.041468352642601736,0.09874660417796155,0.11652904925344493,0.34942460414820264,-0.03585826698889373,-0.009843695253491868,-0.0057024146853862975,-0.012281237977392629,-0.06893057498553698,0.05982224857279012,-0.24696975120832912,0.008476433530341117,0.04265682925510952,0.011681114218894721,0.018738448937329052,-0.05648789401110243,-0.0068326775611712905,0.09705855558147414
39.05495071411133,1.3079986572265625,-0.040343370581330626,0.02681045256232006,0.07532585303296531,-0.16512528790197475,-0.019631338493603705,-0.04279110637525228,-0.0027720559117216975,-0.05427240560867037,-0.07933817335716467,0.16534231631114849,0.06140550502720077,0.14445084961333282,-0.033435244959579086,-0.21009402064206334,0.03699134496008203,0.019087714825348264,0.004101897055424179,-0.05542030273665083,0.15659544945888168,-0.038588156740701096,0.05070335157016567,-0.15288418770331347,0.2440244277424859,-0.07322620801397867,-0.26677315636971927,-0.11166050909661433,0.03569074608688827,0.2668315288531104,-0.055803703441274555,0.025129754232462026,0.07382652047661042,0.2695453426457739,0.15514402915842132,0.0298219385122136,0.029078375977013154,0.2489256801041979,0.24314286523742984,0.5726397711800717,0.22959408514171303,-0.17305658902140147,0.12025375208415091,-0.01778394646979822,0.3531427894910404,0.36838784757869336,-0.012000898400359512,-0.00017555874558996057,0.1420702894304538,-0.0346266146351088,0.0402272991260602,-0.15908962629604415,-0.04396149678395962,-0.2282518929492207,0.13122070046763196,0.03105665831329995,-0.14358596711409988,0.021485819228239264,-0.3370217495136781,-0.16473869419426185,0.024526222707810675,-0.21445653248916788,0.26278068714611763,0.1032152034015203,0.05111391468439169,-0.0066256576003880865,-0.006027789775476997,-0.024007353651632944,-0.08798141748358297,0.0017352470587373436,0.033252788246216074,-0.014769515943192736,-0.026617853021206624,0.03581708577474607,-0.013291809403127231,-0.05797958831941143,0.020364578064459214,-0.022571760502057562,0.09872706420489068,0.05971149007578891,-0.19993340146642305,0.05909192114577509,0.02541968712465828,-0.039265885485622556,0.10335541479054455,-0.03357680730908369,0.07421433082968769,-0.0033847927590489424,0.04728045838728276,0.015882234332918754,-0.00278756294268464,0.004448734332316372,0.07992622701490756,0.08550772977286532,-0.021884339361178725,-0.020786365392283124,0.06394503505202258,0.024325231402315767,-0.0653679888237663,-0.05806075404993364,-0.009840428795306257,-0.027507906486192793
40.36294937133789,1.3291015625,-0.020401568483333223,0.05310986368616735,-0.007816936281633852,-0.007874303966514408,0.005656771060961378,-0.14870269177721557,0.018972689949496777,0.08833709000188947,0.00872905154984982,0.13358151773969648,0.006355390406590451,-0.13248268075407763,-0.2292905187659941,0.1945752636116409,-0.15460821378310227,-0.07106134023047826,0.2838647036969777,-0.30622396268560514,0.19430540371027025,-0.1028855686050343,-0.07392726427168272,-0.08292844029625455,-0.09821987222992105,0.09366821161250877,0.06954277201216555,0.11287666859507126,-0.02906726278100044,0.14337360834466825,-0.2450371165813214,0.0995376946373715,-0.17728726053686283,-0.4143075879818512,-0.452857156225259,0.10967737920967316,-0.048877416404475266,-0.07072586803642918,-0.29440336306944703,-0.04370964496426596,0.13046615753877167,-0.08898780563733791,-0.3284726321102876,-0.4121880303006216,-0.4066052547947121,0.3581729768099624,0.04647470796278469,-0.2636312226486465,-0.13869792830618055,-0.25547631627459,-0.4421373413633218,-0.5482081546025411,-0.039965857117068466,0.03508001102658666,-0.08614836234792753,0.015658787707668223,0.03581178984985638,0.045375615852619296,0.048877185396607535,-0.05961211044113597,-0.02839465142074933,-0.11380213720551934,0.008076022357687881,0.006683311310887272,-0.047262781773444965,0.008279623359955258,0.059970760661013284,-0.028676455668296023,0.05384208471790464,0.06269241126132458,0.05812982078094195,0.07032549813293772,0.009834865232343256,0.012625952920488582,-0.055465280735232284,-0.04041083066001017,-0.0009951476750610722,0.09803451230601837,0.021421670069872056,0.040404667291676105,-0.11842950019490112,0.07737655621119262,-0.0911073844930629,-0.04231008245552438,-0.0054587141066422176,0.0772843471995648,0.13297197394669122,0.013064230564868023,0.014201208013504534,-0.0022167659607344697,-0.002333129556079707,0.0020918559077438646,-0.0122235724114051,-0.009246224753942846,-0.05925402399117952,-0.06780167938457941,0.04654881350283821,-0.044234132323889286,0.09338858719673847,-0.12135488567183414,0.008677961380017515,0.002841845270689012
41.69205093383789,1.29840087890625,0.007328403837958457,0.0073186426271021204,-0.030679895105907365,0.010665497606341506,0.12474369774111461,-0.08438569741122731,-0.0004830694678359069,0.05542825492614265,-0.03328609469992284,0.019586107788744367,0.009996416556890961,-0.004279131448634642,-0.005931481843822529,-0.012637007861135134,-0.06589146909611854,0.128779530869504,0.13716747578968538,0.04813535028842757,-0.06182142395314723,0.2003791688725468,-0.13089555801620092,-0.08859040670220411,-0.05589742413189272,0.017649885967896375,0.09880036200301924,0.23371175958979817,0.056260791945943536,0.11251179830195059,-0.10881957305609999,-0.21334664279606208,-0.12153757877803706,-0.21193260934718605,-0.1399516972460659,0.07007146491467785,-0.1711291923605566,-0.29059903391262976,0.022434722470883454,-0.015405458969303482,-0.015525107916590512,-0.07096484926788953,-0.3202305748348241,0.1986261388522207,0.2526091995996026,-0.46184864286050065,-0.20425584343767117,0.02775685699861604,0.2745765958522138,0.22156535640985991,0.16257977291091602,0.18172558340260106,-0.2449315488354457,0.485254211779242,0.16205502505819303,-0.006855318533414743,0.14505263576033106,-0.0064425976686953755,0.1654574047505497,-0.10709863171300936,-0.10620720065343203,0.12399284050864942,0.06218491077610142,0.05961821800939397,-0.08688667949793483,0.009321987322723227,0.0059049853862553755,0.02893365423400978,-0.0003544945204198095,0.029124784227709255,0.08870529691346753,-0.005298228733651899,0.0058308451510802875,0.005679447446457234,-0.062384766170369574,-0.0059551940909066715,0.06197509364661768,0.13397322826008468,-0.016508084145505704,-0.021757027083388655,0.12555046043604942,-0.12140890043784602,-0.36199290019376057,-0.07720894871869223,-0.16362017931808193,0.0009532817358830748,0.09333688408751767,0.03983791258017282,-0.009746023822501206,-0.01948004314029697,-0.007591467073460826,-0.01626356643936637,0.032591966624661586,-0.08150106238786932,0.0399303974769184,0.027743195553431275,-0.050313195567459265,-0.005546106502105011,-0.025063494131679118,-0.02437957489004737,0.0835429475854785,-0.018710984544272627
42.99045181274414,1.2682991027832031,-0.008406593156730913,0.06174704508206649,-0.0005979955780088429,-0.025257064846987105,0.08311203752253689,-0.034744497673872055,0.05248938196394524,0.01616958114678426,-0.10993821791447131,0.07506775209686659,0.0063150572739954615,0.41010871014344824,0.2212290980905542,-0.17749657240128536,0.17997061027388103,-0.012794722565001627,-0.19484932447900583,0.018054523340066277,-0.046571890086108896,-0.04599423961047893,0.006676929457787029,0.08203831843854138,-0.030061113911023164,0.013813573842714021,-0.08062395269236838,0.08062137911523902,-0.08688343591248178,-0.004491374462525177,-0.3802376426949443,0.31687344082231705,0.3532225376199179,0.08224801866228408,0.023654979688411668,0.1379561848017577,-0.061230196020481784,0.4892397348170315,0.06219800385005141,0.0321554498533747,0.05036578866978673,0.5017597453091152,0.14303606557057463,0.04282546789507165,0.03915552376314091,0.24182509602708044,0.07151774822687927,0.20585579217050984,0.04824144813805076,-0.0869665462179366,-0.289509311955275,-0.27237422009879275,0.3287011504199861,-0.07490293207129943,0.1283078027186244,0.16267042557306519,0.03212556679482041,-0.08702265029875672,-0.03087730480849753,0.01941204423980632,-0.07135316435068018,0.030749394564661896,0.0014752440052201304,0.05243903765478957,0.059107806717027186,0.07619843223444478,0.0669088093348123,-0.08583770730737389,-0.011708085813195617,-0.037072297190131276,-0.0867471739439768,0.06332903004968031,-0.076412171157171,0.001185311910252116,0.037457502246528225,-0.08590448149845845,0.14252272521136547,-0.08616236092049206,-0.16842343208285568,-0.004502434724174637,-0.12609310297504808,0.0415250991529235,0.18447982945009647,-0.06753196597577582,0.044720007815720296,-0.056045605608653334,0.011088708610472175,-0.008878292813087364,0.0001915318638871332,0.0024622358471577403,-0.03455699828328342,0.1057657098924118,0.007971341570748858,-0.09300390305183628,0.006432159104204976,0.005589136066847853,-0.022376863010871217,0.0550790284021018,0.0551643293050607,0.04334388778546951,0.023055735543739565,-0.11804669354057279
47.97434997558594,1.2985000610351562,-0.04860351818427117,0.02605091486207444,0.0711959206637232,0.14038712022915337,0.07384156399067252,-0.04059507371654218,-0.012705973891956157,0.02212261296596975,-0.0061922562231725535,0.16584529670828263,0.04904529665949468,-0.13902408832268465,0.12167377027908469,0.06651578760011745,0.10319779101465122,-0.05875670672067243,0.014868969238717902,-0.17435281288793858,0.09169125264726513,0.07253494781634245,0.0085530131198996,-0.08383642719615819,-0.09407785719458273,-0.16733050474663774,0.2882858065762995,-0.023873779530457953,0.02753081231228065,0.0189629589015302,-0.04531756035732386,-0.036045215617071816,0.1316309946725436,0.14545098537512993,0.19562215057947033,0.14588088184981185,0.2960209259550371,0.028816815761550436,-0.5912431869885584,0.13019757174933225,0.42041253731814093,0.15776703082191595,0.3776722224415968,0.035296352912858354,-0.30428961502706603,0.28262386669855255,0.2485210682544746,-0.2132270279525958,-0.03741773007171861,-0.33739855896716575,0.010749372777583824,0.0807885666632531,0.1907259354726023,-0.0006358438872285325,-0.015147298154225677,-0.13570348652491643,-0.09105922758742618,0.04148322759378361,-0.039910262933410115,-0.058687872097623585,0.04613967111092086,-0.002237123233848055,0.027635236932700293,0.04476198017564826,0.014536634641590166,-0.008006716843620261,0.0010665559758667176,0.04966069087877817,0.07937080537988804,-0.0063602261897184,-0.02747695333632031,-0.020304668632082006,0.0035006388062765134,-0.0405151960073847,0.020737410173243778,-0.01868814902329531,-0.04498231918007812,-0.051828288620040776,-0.08785327606791887,-0.104609602159982,0.12607346045092993,0.10068607579365424,0.24416419567922548,0.12194900523723763,0.019925533665741874,-0.23329871895116835,-0.12855387489324116,-0.08094334685151573,0.010047164228518889,0.029208587738970747,-0.03650016037388828,-0.05502414981615948,-0.007936931889921702,-0.020138522629154675,0.07602118362823608,-0.03707781627014192,0.0360597378483757,-0.07215084525001945,0.021941155333518945,0.043165212286610466,0.005554377998162637,0.024092331933089097
49.272850036621094,1.2891006469726562,0.03388097145501451,-0.004737387681324319,-0.02502206560111014,-0.0021653170890977,-0.0013026557980510055,-0.05395990072213559,-0.06076983722970944,-0.06565110030025445,-0.0017908108561990748,-0.062495142264233465,0.12340955653202207,0.07662482810090103,-0.29676911188322946,0.045904257005300646,0.035728744887120134,-0.1525955312716337,-0.20549938615502852,-0.12419471713266814,0.40201804498227783,-0.017240941683310876,0.052725840071904694,0.07450319887818845,-0.05645943794141699,0.043661161086402674,-0.0030224203846222816,0.0984184236504131,0.30661193054113106,0.09276583657944693,0.10847904566514717,0.01560881072194672,-0.18509329918100487,-0.08900913512062467,-0.3439540246036311,0.0016207749379567038,0.028047020969685227,-0.24001510553120883,-0.12951187097460728,-0.18333199906666622,0.15380737342614031,-0.19622599257988718,0.19836269629403705,-0.11229559530146141,-0.11279430578543675,-0.09820754670582806,-0.48760411755488886,-0.06985950395364547,-0.4101011645772437,0.25774770446864737,0.8122755745867183,0.17650507594662557,0.12144573806880948,0.23233478925340237,0.15200876716757028,-0.036720198714956714,0.12381739049637973,0.1806423473328568,0.07440739581732608,0.053716128886015825,-0.0030380969289317827,-0.03261990066694141,0.03732375158161781,-0.04192438507615028,0.013637259404918296,-0.09248662408822755,-0.022127082013123883,0.025533446118240898,-0.01657388415171252,-0.006855118900463673,-0.060726308048879844,-0.002376770296451359,0.02545527981855395,-0.02270039627452932,0.06092065995672426,-0.05026536438260194,0.06570256362736403,0.007555320240705682,0.025203874259180217,0.06304482851663787,-0.09573948280685231,0.07358162097587419,-0.10521627541341169,-0.11673485943972155,-0.024163041141689684,-0.015722548248928107,-0.015946548764196784,-0.00981657656602377,0.0709810697393946,-0.031752694572030234,0.0023659227452413906,0.00024139784127642775,-0.009534315001877352,-0.006408068202700186,0.05468538453629885,-0.031502968394427414,0.009564807840211922,-0.012662817969644101,-0.00970355737377055,-0.03304535992897127,-0.1347632000346695,-0.18224462042937684
50.56195068359375,1.2884979248046875,-0.026019672857424403,-0.02454017937320882,-0.04280876806968912,-0.007420224408843837,0.005051978026705391,-0.009061152299343851,0.07510836893189932,-0.06945588709774064,0.022674606653044844,0.11235500273149227,-0.11782746065206037,0.15084971807954126,0.32370337633306395,0.00642587109365042,-0.14917832046471052,0.02029056762800005,-0.15224877679450347,0.00648937354966507,-0.09942100825275119,-0.10761778592944057,-0.048623799959168545,0.0034413381313975686,0.36661922038589223,0.007685272627353634,0.015894426064411743,0.11914996544378595,0.09114239556894232,0.036828237773988345,0.12549716950558537,0.15957095187446685,0.08214184091779249,-0.09837204980258007,0.007718484917013636,0.10625688889911936,0.095435260024393,-0.07978725306412286,-0.45722685460391876,0.17883072649206588,0.07820231161628563,-0.13873816221190005,-0.0792629666905,-0.19394893695527718,-0.10027231961032809,0.18828398176312383,0.18409565342982478,0.29702153503363615,0.057851651518106714,0.010307422301918653,-0.10046247714312448,-0.3513161974694651,-0.3255567373473164,-0.2892466471780837,-0.260386079412802,0.04980611647845219,-0.22697485658126848,0.03231816910796481,-0.008779958657449061,0.09512705581567615,-0.0074202917239847115,0.0409884664920486,0.04969479775355387,0.010912698111407956,-0.07925481685083234,-0.0863004238141405,-0.023192494821518746,-0.10909992738685197,0.03462355969039138,-0.0266923835948648,-0.05723305276929974,-0.006170119015516076,-0.04543179098465199,0.01810156812103654,-0.005862795997460695,-0.051172490389732025,-0.11542559058838418,-0.013370855759297114,0.22266126637159217,0.06271005159661336,-0.3633669365971453,-0.11807812290220518,0.3845988966514149,0.2789580000222539,0.06003629807807236,0.11498314462370068,0.0017815315018288023,0.03543718766649433,-0.015223261491231141,-0.01652498110302146,-0.015184203977478574,-0.03327803580090075,0.018956821189021866,-0.01617590422281552,0.01850637836244233,-0.14270068318668866,0.005959770177739781,-0.0022274334421766625,0.0474706187234611,-0.03584314804545518,-0.023421263742893925,-0.0974782108013649
51.85044860839844,1.2882003784179688,-0.09479199064656116,0.061001955461703755,-0.03382912824412261,0.049042369981709355,0.08035130841914484,-0.008316848256133855,-0.04746571739358865,0.3158018415076666,0.07467538524187571,0.03673464167919742,-0.240595790827462,0.07197525568293967,-0.33227073631367265,-0.07973126284911304,0.10801748691661014,-0.031411875726969504,0.05556823710521555,0.2791133971007736,-0.17240372469266513,-0.13722279479280738,-0.509185520047557,0.041485076027344345,-0.19586797379690218,-0.1547769938427576,0.124079834300305,-0.2518329492994395,0.10736060866492882,0.2414079288518939,-0.12545777691721752,0.06078735230795828,-0.24641908777129246,0.21357863645420605,0.26213553182813015,-0.24926149927320193,0.19905056577989894,0.3295479234435545,0.1577942585756446,0.40750294140036725,0.059223899326147744,-0.07308189448507055,-0.09065880716347437,-0.12297206191676302,0.5350922443423997,-0.07882819714348632,-0.02434703875658111,-0.30773968625409226,-0.5431082472712319,-0.01815878759692728,0.018507641817992023,-0.24136352456081472,0.10741904610323395,-0.13975186422989705,0.15918140572981962,0.021241484552273596,-0.009786503195511595,0.16357153685722095,0.1691016752658107,0.03234219939632603,-0.008860605735220607,0.012026912654799242,0.05793079409808475,-0.045304751881032695,0.014961443183473675,-0.03751937475638835,-0.058446063254819464,-0.012749988755800381,0.036863358427680716,0.06494183033247017,0.002278662788177231,0.013940168006253938,-0.017702829318799213,0.03798802651086987,-0.07795260219013755,0.061753247399501436,-0.03225384583926785,-0.0498353205411928,-0.2286603155475886,-0.11354223135021695,-0.27037818536665287,0.3030869138497611,-0.18297893169875706,-0.14627683863014124,-0.16417844277630417,-0.06750667390233471,0.04466653869835713,0.02600200096519835,0.08171876415803478,-0.11468928505283005,-0.005205624828103493,0.005005242415445366,-0.00602258243397551,0.01642907962640245,0.02930047193333665,-0.047294909217333085,-0.013831136701207666,0.09183323475743875,-0.002286848838748156,-0.06428000039970086,-0.058503685970951416,0.03881178397077313
53.138648986816406,1.3686027526855469,0.04421573458059591,-0.035214266599460954,0.008120428359629436,0.09303786483476499,0.07586606677057899,-0.009997051744500994,-0.07596335703962497,-0.28130664467092326,0.11589108364846257,-0.023606605281401773,0.06844335236047307,-0.11514089519577894,-0.15031816486064284,0.13599457908678791,0.2634530791846814,0.001790776889316753,0.18096487112240625,-0.07394124649083778,-0.07667296431420823,-0.22461425956860304,-0.08761636765232576,-0.08781357926895733,0.21063759160656823,0.019623213942090247,-0.008617912946485201,0.004274153706965447,-0.09110513030172625,-0.0795290569665909,0.004702955652045591,0.10686064700622859,-0.0010556697595043296,-0.9992802955783292,-0.14016573270407678,0.967335178931066,0.06350339834664473,0.17064462468420655,0.09296639012484767,0.13888451445468125,0.04245362119692688,0.43422808268950297,-0.1885966866453614,-0.39559132277075504,-0.3943621823463417,0.12470658107288152,-0.4492947424920183,-0.0876237314565842,-0.34046720904536965,0.08093151822190663,-0.1029106094333038,-0.18950303760908455,0.025117273202658785,-0.1274763761023795,-0.016076766540742138,0.06805994173973544,0.014096863611068922,0.17083366008731926,0.08027316173203804,-0.009412368295890377,0.021093634307401164,0.06613410217551025,-0.023364296654603163,0.0038197412767827016,-0.0440903362550083,-0.12778828425490693,-0.05076372307897861,-0.04239630897532794,0.017870659600338474,-0.06625572619746495,0.05032193502209215,-0.017800227580461684,-0.08189408852885663,0.05250815665952688,-0.08300277106972431,0.030983856093818894,0.2106863881661755,0.19387765361452497,0.047126673062706424,-0.05559940401067603,0.14441106010742108,-0.17129089237572923,-0.12509152031311488,-0.022131979881845096,0.1794282442149245,-0.14493568840197624,0.019305749541316662,-0.025468406695098714,0.024825794281912852,-0.0013209534831331968,-0.04574912687770559,-0.11573831937320375,-0.0011042092468046372,-0.08278508842697496,-0.044599504893951585,-0.011068103360894407,-0.019726558271351745,0.016029427141645985,-0.041676300634335466,0.0340455585153045,-0.04852811116298237,-0.10121173972881517
54.50725173950195,1.5281982421875,0.04535218295540885,-0.02689463334094277,0.016069273327773435,0.05527192289338309,0.023194577572611185,0.30851014273577987,-0.31369437566697345,-0.005898792783823489,0.07439516097207854,-0.10535835272847391,-0.028970789931321947,-0.1296128229266399,-0.18282389930365373,-0.16499089200264871,0.10232393788674014,0.06926026052532565,-0.023917608288590707,-0.15627579712280606,-0.051029120373521815,-0.072070484046494,-0.08261259395302252,-0.041420609373980864,0.049647408682541805,-0.023112715043899855,0.41593301480714795,0.12027452028656663,0.022757422207319133,-0.04009538088787484,-0.10611761172008681,0.2600777071029734,-0.02663582565284371,0.25644742745658644,-0.4251709915615605,-0.11229248484522894,0.0904989266695864,0.14075816934423638,0.2954381282144282,-0.08261794603357869,0.09511020252458216,0.07823132490807994,-0.2268228292633349,-0.13273726925687526,-0.05000473784786352,0.42728819303982746,0.6364581919759446,0.1685987376308456,-0.31682438340096475,-0.1703603167519317,-0.1253379832051656,0.046336211039086146,-0.3490938962801252,-0.006443863300353778,0.01111122646920678,0.08535970830271189,0.09075089150768209,0.11072937031374283,0.0031495327267794205,0.020971758574604836,0.019573341908675244,-0.04644228132904348,-0.054134574411622345,-0.03837030960333793,-0.040567662697110485,0.001270031059155372,0.009924990250486996,-0.05554239247246412,-0.014679638319488136,-0.017788547484209466,0.05024085978190046,0.013183849778501296,0.027653966989046902,0.010400283845931897,-0.06716939487099907,0.023494992593865092,0.06967846034369686,0.11411381859079796,-0.07923265506487817,-0.03693018230636742,0.08154713187739154,0.16835636687388417,0.052901325464990656,-0.00029783710530349033,-0.03898420387788717,-0.05354836316372683,-0.10160233286173755,-0.1333321846552833,-0.010346879089293229,0.029194204755830323,-0.07810232778126032,0.05482552242037261,0.06441039946669257,0.006720959099486649,-0.01062572101169211,-0.004324290256874834,-0.06517459064770681,-0.049114950830104045,-0.0659514235549504,0.006045021976552283,0.003899018970183861,0.10312034159271936
58.79264831542969,1.2884025573730469,-0.053482621524298,-0.03148041831128897,-0.02208627388120802,0.012940999153451392,-0.08729985716457389,-0.016736800430446935,-0.018414359393858597,-0.20311702006797405,0.0002934020326913452,0.3115033556856458,-0.015414488575127783,-0.3295565477649421,0.2795448950653189,-0.09335403773713881,-0.1331725481392747,-0.2177465291590885,-0.03529405825464503,0.019881169538060756,-0.08798458980165676,0.09523283719709624,0.16303195102754453,-0.39913367664109756,0.010489251055804399,0.09118069718272026,-0.21151492428596788,-0.19847878272362066,0.014574714875328684,-0.04952037475179666,0.04481378605285921,0.06500742522808725,0.0894187276239439,0.13469451688480477,-0.19391663236965492,-0.3729184460739064,-0.2603244754773458,-0.30316908914278085,0.011452349159103202,0.24606608554083376,-0.06715370158736633,0.8519703069231521,0.612360511259813,0.1718272864490953,-0.1442250589746487,-0.2950969264395735,-0.3684262787871077,-0.38730794531029394,0.12931889847989564,0.40328540178219674,-0.303392724097687,0.23175773073162925,0.0685377550609847,-0.053321871456917615,0.12217273573279858,0.06689684796678294,-0.13860291479408837,-0.1519538877525739,0.009640023755410726,-0.013707413958624364,-0.32887531170266343,-0.02910492253718558,-0.046719418581887585,0.14837152933138584,-0.07069891684894711,-0.02892862701579504,0.023681106104678565,-0.006702451916222175,-0.0403908440067495,-0.0038281915128131165,-0.013928666864407038,-0.012663961046256264,0.000663877766011154,0.06894652304769575,0.05978997337011797,-0.011801502243199735,0.03749892677087564,-0.03954619485061821,-0.1223000506635078,-0.08552637123983214,0.07091453308133802,-0.03634919970623958,-0.021464160347382237,0.147427198838497,-0.006858135448157006,-0.032757932906395795,-0.0826608699336625,0.024841215306395267,0.06452434552095353,-0.00369946393899456,0.02280625328431579,0.03517008425985297,0.1603754399662336,-0.20269875647281888,-0.007472123924758595,0.013057486854034763,0.024851470289534022,-0.014450335299824812,-0.06414839411466458,0.062240535225190616,-0.01685230202540621,0.007968439661030838
60.081050872802734,1.2485008239746094,0.015883999915989003,-0.1306573514040595,-0.09606126618103701,0.030964826177769023,0.3594839434132809,0.08979261925036852,0.07209080290748138,0.26983816079366413,0.13118958539598305,0.07858833755502406,0.07121544604545685,0.07176814387103672,-0.027713787774301675,-0.3605773375006185,0.04055889172340163,0.032625674147180594,-0.18138462632090852,-0.13301186116681402,0.18483167634010395,-0.24897827772426576,0.21609956309230094,-0.06589586489867812,0.1712041514025855,-0.1320566056218806,-0.12287981105908037,-0.4064274911676514,-0.07248506075813821,0.005951514238505491,0.021173689356140248,-0.0960871862483645,0.02351085137165548,0.15752437798917024,-0.3726455554385837,-0.039699376990261874,-0.17787001557291207,-0.1243709302805597,-0.33235395428845305,-0.20854427005927753,-0.06533122476074947,0.06559961910613685,-0.08714673984236068,0.0252008190098085,-0.31746335434193373,0.4018138803425017,0.20949682312240273,-0.4826882729194585,0.15868670749576172,0.1312972692555067,0.27013268167862947,-0.0038690487728461334,-0.0698472347277466,-0.0005238870245596605,0.3219493179474805,0.4172215944989231,0.10238849592106546,0.021503740120883196,-0.007504297325601595,0.0024734826741076577,0.0497595180463118,0.002077505796307986,-0.012101587555800127,0.04582639466987315,0.0036081759287860888,0.09414428960172348,0.008663772777864709,0.011899365420929668,-0.03853213677626968,-0.10526030707024316,0.0018876274688045206,0.040264447218592986,0.056610015017376246,-0.01393750449953822,0.012772980413782387,0.0238171230159063,0.056189917595984504,0.05256064030330601,-0.016897128820468024,0.04483699171257238,0.05864257229910026,0.021143083177531965,0.02736322846260937,0.04084281394302114,0.15215315124304735,0.012290249789479278,0.12719113505920454,-0.025274044392079295,0.0013027213760352578,0.04222928373884786,0.05448687897930497,0.010535569809824327,6.234824979815606e-05,0.06697302213513988,0.0008243058752825383,-0.031079215742633955,-0.013615473014570084,-0.004350037933436434,0.02830111556550756,0.02011732135092347,-0.023007596626108,0.09198021809844263
61.329551696777344,1.2287979125976562,0.09540869213387804,-0.04308443524844989,-0.028992731236610652,-0.003795823821558732,-0.02088524402620443,0.19328089294506223,-0.10378133685403113,-0.0070408792897164296,0.06460805257990558,-0.002571163668539608,-0.06677457897720968,-0.06582920756234643,-0.2815475797995881,0.14321286546716464,0.17090561449893468,0.04354928552314326,-0.06687320887654108,-0.09128710203725049,-0.11028866825084933,-0.08181578619825898,-0.20308436379935632,0.16686656499003621,-0.16428927464599039,0.06860448669611081,0.08710229122811902,0.26591840614704165,0.34912791825822487,-0.02524806509660711,0.1692133259660896,0.21967309295808995,0.32824559730088787,-0.3423961425799161,-0.1426193400945434,0.1762454723934472,-0.17319072189437826,-0.40794838490368457,-0.0826060063298868,0.006276748291237345,-0.13204526596250019,0.030637917978250426,-0.3530182029100236,-0.32397116935468045,-0.09234823799836825,0.08467817418110973,0.5077002177523104,0.2094951937770303,-0.2634587987977059,0.09782953466985497,0.04052962449674789,0.07369243909466103,-0.16509805124124105,0.39499469502834383,-0.05766152689004385,-0.04072810602851523,0.11473329108675331,0.03451754784577913,0.0780868638227619,-0.09974665615565892,0.013705286337430513,0.0282414117062966,-0.07437348949178996,-0.00260506587397212,0.08600387468494652,0.0029428765798338447,-0.03209408788589664,-0.06182551281629303,0.028822310528393014,-0.03991005139657436,-0.04286534639597575,0.02002796223060172,-0.07041047475689022,-0.009306895061544612,0.016340455934846218,0.05162522923172049,-0.0020346009633281665,-0.009943853812958758,0.053790075619751965,-0.08215120894560031,0.15665985010825406,-0.005233127693543626,0.06154331805747009,-0.004872779901145166,0.20476192421505707,0.04203200391083085,-0.06948724253641446,-0.03372478069116597,-0.05481019731550176,0.004946012864339622,0.012616951392259372,0.02228089609213256,0.016315372860199427,-0.010136788546524897,0.006673343420149619,-0.03103572533080099,0.027193647582287737,0.0224514940763448,0.019442954572049934,0.04613034954741481,0.006769662489568531,-0.10114762000548129
62.558349609375,1.288299560546875,-0.08746526378001931,-0.038810050994405404,0.006267293421118883,0.0999851632848214,0.11370884442106269,0.011154050821059913,-0.3928654342191639,-0.11204849249700348,-0.03398752048930956,0.013266629417677814,-0.04086108365807911,0.07936219988624287,-0.02837327637038814,-0.14806283119878624,0.2530847376802857,0.10201082586187167,-0.015915037250717738,-0.08905496745041593,-0.05597898014259678,0.09843517143016016,0.36383189950489203,0.007985029937570533,0.1544399264984849,-0.0014749357608292712,-0.02932708972781926,0.07800090274280215,0.023156137032550084,0.15777862952869362,-0.024461287722524663,-0.05811528861326737,0.03372540927886099,0.10759009986431492,-0.07509555355229555,0.4077028382824256,-0.061345648501737224,0.027647731886960708,0.049063043586240335,0.33804512474773185,-0.10464861974208639,0.49362551785064585,0.08271513251080063,0.08007821008687349,-0.07612194594616267,-0.22929441522693406,-0.14960712991760872,-0.04112085266294993,0.08022052991166066,-0.019832177096310286,0.1616835661838111,-0.1543763766378173,-0.11381252443482344,-0.05683393852303218,-0.08125967539059614,0.0514283271698947,0.03861418434007089,0.04100340144194472,0.024762113067853895,0.07831642261237642,0.03841978341999738,0.0022018239769011094,-0.028130746657538893,-0.10090320087247123,0.0037182780411153023,-0.034076482040424044,0.04943544596409329,-0.06297595069324421,0.07263242169799912,-0.027390090333998602,0.01943418043103668,0.021838660067181895,-0.024343323019836355,-0.001743570945364283,0.0700385178087042,-0.015452433809687239,-0.022020407142092295,-0.0206285956655905,-0.019227899602407793,0.10254923832756109,0.02768950142652728,0.24069121229407467,0.12419424809268355,0.14570433916582648,0.04542590568380099,0.028301657047429162,0.035571897708512434,0.017978440150918915,-0.03732500645396186,-0.000781260739306646,0.0008728499166686016,-0.017827784561792185,0.010373397203978488,-0.09713493313006992,-0.0678954308867886,0.07845908174957274,0.0030781614054616064,0.033229127168784095,-0.014630842431676833,0.035847545700188596,0.019951309741927152,-0.009928573281604335
63.846649169921875,1.39849853515625,0.000261776588901301,0.07014848369287238,0.09506660947555697,-0.12414838941291484,-0.03299556594905494,-0.08457407976565492,0.11407392787181427,-0.00758867738083008,0.1659876628003326,0.07186133253280963,-0.14880037968208062,-0.12616867471833,-0.020954706034885813,0.08231306928726198,-0.09216349309931952,-0.25018811799579704,-0.17719601657763107,-0.057669476064717534,0.10361950205679268,-0.1763833272461528,-0.22575599875175756,-0.18441496972166338,0.3025778783939521,-0.02652971523942252,0.027467891631947634,0.02223614248798375,-0.1371928805835157,0.061301384380762616,0.3257476904235701,0.19015708456842234,0.013154813376727163,0.08029653371932528,0.06603690641097887,0.6262116511470632,0.2665486107595235,-0.15747228033315613,0.06071021470028311,-0.04150578416104066,0.1014919422180389,-0.011476676494278748,0.05558794353184468,0.03948389758632197,0.09211890747727643,0.4716731241885612,-0.09756915308887197,-0.1551176368590593,-0.00617705605618985,-0.000792153980198218,0.09072423600262504,-0.041467083287808716,0.1472247710763759,-0.18630424715230903,0.10223718442854464,0.15301513319903384,0.057549846127772225,-0.04942587490605834,0.00730818625455446,-0.05936252233251727,0.013921650853064115,-0.042402120731721046,0.004625890195378915,0.05013890138981472,0.003623078768494224,-0.06205322916213166,-0.00667645268841444,-0.0870040923058775,-0.026326685712447475,0.031201027930454282,-0.05667141945917712,-0.05746460935675375,-0.03529681994715929,0.00445336175268218,-0.11406236589460972,0.011408842553181503,-0.010324697093235226,-0.0701505086321222,0.1325279442864783,-0.3606665199972733,-0.6609123032395466,-0.2293576547947258,-0.07023147612126959,0.1708971506961513,-0.026334466657055702,-0.05453341185535422,-0.016937605215086526,-0.07415319647449689,-0.007989570741660052,0.1542217025533783,0.08208854365640637,-0.10692616468878384,-0.02170075827942414,0.0006981527781850516,-0.032960754987695934,-0.0776879819177363,0.005186686723087537,0.0002526819077147361,-0.06830058419521712,0.02175579053753537,0.035342452564509214,0.05583533307282796
65.24514770507812,1.7280044555664062,0.06277890064405484,0.0716538827797047,0.14119057237605426,0.021819178120972834,0.010860629651273539,-0.08425423821433223,0.1439279212911251,-0.2769917954223899,-0.023791546292325397,-0.026027768422234004,-0.004087913971997076,0.35613255076484407,-0.04241700768994085,-0.17041812455118258,0.07820633252264805,0.048225011534304675,0.08159542269298342,-0.1571324317456228,0.15335781652678507,0.0034162994725954595,-0.13651881229764257,0.029427510339514344,-0.02527454221016994,0.10670962861503466,0.0271474035793781,0.05733936727455513,-0.09559206071611046,-0.15326733043366783,0.043211649841627606,0.01833845116857938,-0.0007753897793442944,-0.3835262171699787,-0.030523815622360922,0.02062222458646656,0.02662287931013252,-0.028780695431190304,0.12700715990207176,-0.2890262107557878,-0.04982936875677782,0.007143287140351021,-0.1514476548797815,0.22930406661773547,0.16723306703582586,-0.5616007797945023,-0.049333772084936035,-0.2088328032800504,0.004616788249477123,-0.22301172205621614,0.4261482301769002,0.24535107724002858,0.0226909556694727,0.04713923899653525,-0.0914538941099177,-0.025455292773181336,-0.10509493526321087,-0.04481226796083765,0.09449527753313611,-0.043390600514354095,0.06462908252181529,-0.03950664251009956,-0.0064073328387335895,0.025633338788152982,0.08894780164980616,0.002387155688521531,0.015913927376743457,0.041780219343072994,-0.07283254056938213,0.005828235307236583,-0.05016459139474096,0.003665600051251539,-0.06361768398932106,9.996635203689264e-05,-0.02187936467914106,-0.018559094158201443,-0.04338996848858619,-0.1996653454549838,0.00983564658185782,0.10003829902074812,-0.054727477755401356,0.15201902143368534,0.13733997583141197,-0.1406273002850468,-0.030954327185857545,-0.0616920465823022,0.18428444287602636,0.3259128685214137,-0.04199550430702907,-0.02441516363135545,0.00535295692711256,-0.0959765954911887,0.034539032607996206,-0.019289995025614206,-0.02224255988951788,-0.047310623559528316,-0.013827153923080912,-0.1685771968152463,-0.026324539693810836,0.002365679722443825,0.00707029086319589,0.1080492453962122
69.91964721679688,1.3787002563476562,0.06598176123851955,-0.03320453614939527,0.10844744892636428,-0.010785439935167772,0.04545802775246138,0.08073462290870903,0.03277250937326452,-0.007360691678771273,-0.03324650340880671,-0.030705419662526885,0.00021644766776447721,0.03040492857520189,0.12230250668449964,-0.20972528979505475,-0.06543374622171601,-0.038331172430818725,0.4918195585296374,-0.05386819000489562,0.7172826537486987,0.016819479418762447,-0.02692463404111886,0.10497833368972656,0.09253775072446498,-0.06456920731800667,-0.13337235230843297,-0.008771091022939395,0.12056502477834606,0.04584926435224557,0.23821527856603347,0.0709001137963703,-0.1996595927763034,-0.17796979555789727,-0.02412170278116057,-0.269659808007969,-0.07566391971314501,-0.10611805062638432,0.2869905803770533,0.09504801492622138,0.1687204006855843,0.15008042523896906,0.06939730360022008,-0.01785803629193694,-0.18217497437921207,-0.6402489329362573,-0.2881784524249063,-0.054731178977022565,0.0875468011161438,0.34328734187845494,0.06971232010338968,0.1935969430042101,0.0035631130044023046,-0.713370073943137,-0.04234454597358679,0.3227652051726697,-0.06204605016929334,0.05281388773478471,-0.041533007694669395,0.007221246935513486,-0.026455469445956448,0.01637322368076389,-0.070607113318435,0.02671130276939372,-0.03793282318246221,-0.021058053169937162,0.008905831092945666,-0.027683973096929926,0.01791111066819932,0.022835306330711194,-0.0054946098278499805,-0.0037554962225061247,-0.021734826767837792,0.008602711570665602,-0.01221396430316995,-0.05664023021907563,-0.03834882324464526,-0.01733011492676137,0.036057575020519,-0.0016013009789526732,-0.0896858872470653,0.2161539195317596,-0.03732121003138542,-0.3811975749089042,0.0291995239514764,-0.18670183312921482,-0.03798027481897358,-0.12963008707139928,0.007901081936209135,-0.011764045558381248,-0.05052775568334376,-0.002683954324442798,-0.03350568769916302,-0.01806212851871957,0.04540492649759314,-0.02503761884354283,0.03570166396452879,0.10249130608653081,0.060499264991432725,-0.06943890542714173,-0.004995753803064381,0.024060604388679296
71.29834747314453,1.347900390625,0.17617689437790005,-0.008747580452959529,0.004806047361045079,-0.020242806053336938,0.14015856150115416,-0.007877623419604185,-0.047882068606230906,-0.04310860286549086,-0.01430964055058938,-0.1385255812334079,-0.12239551583303064,-0.011439249216949648,0.09747317168561202,-0.020422950847811493,-0.052958528440422245,0.21612466841675343,0.06038632092672362,-0.008018873515705387,0.14425690681555794,0.0516108757172833,-0.15294385988561593,0.2281788524399216,0.008355928623929719,-0.006673132636698139,-0.0011992686678942883,0.08626607139748114,-0.3479013971445315,0.11138847320331902,0.0312806015930758,0.24770071667245638,-0.3010368983125121,-0.09440787458328283,-0.457709067910805,-0.04421944127683229,-0.13744985030358403,-0.19900911607656496,-0.23852333014688315,0.12362969059529894,-0.11636306169701625,0.09453577720975852,0.09619732720365204,0.37174666475341606,0.2750480127753723,0.4227018311183911,0.4359003459305578,0.24364359501089605,-0.040072916762289204,-0.14747183715012846,-0.06602080611777907,-0.35363751718852493,-0.2679014878372583,-0.17718279643012483,0.28211325747517374,0.050041177634661434,-0.01673150886451297,0.028171970999898033,0.23438580556515726,0.25879964264136973,-0.01581612693718927,0.16921520258749057,-0.016348691015220893,0.08658747216131667,0.0016376499418221079,0.01608842863398734,-0.05036730752566958,0.01915183165528228,0.07142690584988352,0.0775438700230575,-0.008535171930901517,0.026423424529636225,0.05388593660242121,0.06506810257115367,-0.0029888364021382332,0.002255450318748243,-0.017002265523501155,0.0695929395526621,0.059904260856957416,-0.004283975497542602,-0.09276395265748655,-0.11758981376749406,0.06495619168372772,-0.011005956598074726,-0.17405135063218594,-0.02068017550053622,0.11517166875201772,0.04840559559111649,-0.004661426184477248,0.0012237334336592963,0.028298097095063538,0.006200505966436232,0.1099466848362844,0.00889752935090937,-0.015908292592972814,-0.010677658843010102,0.04993360298649501,0.03552379308434005,0.05033517002748908,-0.009372645975425985,-0.014784504825821165,0.03723316136312097
72.64624786376953,1.3189010620117188,0.04167073259179919,0.0038669667630753467,-0.007605953543335639,0.06367672687596636,0.022576362638180067,-0.017013456811685757,-0.021952959764033206,-0.09000282163983112,-0.029999391565368582,0.03159908377479475,-0.0017867614570645468,-0.11632724885801894,0.06366985526353694,-0.14759319602751114,0.36706148315479376,0.14228586465022167,-0.3164605913560414,-0.12277165109264908,0.04250674561579192,-0.009701036958890012,0.05462306512245453,-0.04860282505601003,-0.044974477117549316,0.010018068424314385,-0.04183909029877511,-0.02606964582588167,0.006464412361389184,0.08894034130264271,-0.004652364253022345,0.007154929221210966,-0.03756370752966145,0.2428967767818424,-0.024617489947729866,-0.49378168442075804,-0.1386994918226489,-0.18714993526265078,-0.6410702283397197,-0.35000959748297045,0.07202545840251084,0.11924764115547742,0.22367894440081723,-0.03910750797302261,-0.03532742010614562,0.9091710128156097,0.2833025511787391,0.16240382417549584,-0.16179774458070317,-0.053053204185137676,0.17596653324300632,-0.10306725025313848,-0.05538836972726914,-0.22272641291732026,0.4048474995185648,-0.0638636187540922,-0.1505021876742479,-0.32184451576547474,-0.016374395643407626,-0.09287712982157731,0.0607346066960312,-0.019417052114818933,-0.005209694407876348,-0.02292104767933804,-0.011026945947243086,0.025840760013188663,-0.04106672361930643,0.037304797939296114,-0.06121450311303493,0.023699670031935044,-0.012820472798656116,-0.01158308022056936,0.01839421164770201,0.011204305000975582,-0.09846101726419182,-0.007589534297105381,-0.03363469298405074,-0.07920114339982436,-0.017279920665428834,0.20642159331610682,-0.08639567827946343,-0.05804685694335679,0.09981434848911225,0.04088479887091184,-0.1034896006134315,0.01900679546438691,0.04964090294975558,-0.0524205366890454,-0.020047223550964464,-0.000662874919975463,-0.007407323456321609,-0.00011508367731594138,0.017308381434305468,-0.024358746090259165,0.043506983721250496,0.0346164752227389,0.02746392731518598,0.018801087944813527,-0.012754472809344344,0.0005608812135627604,-0.03891780217453588,-0.01739625729407862
73.96514892578125,1.3386001586914062,-0.012258464310029075,0.009801842702036986,0.07516136036902991,0.02436521232809106,0.17482288019730416,0.03312378751875035,-0.04484632656837678,0.015905025642424443,0.06761037936620311,-0.18328977904908134,0.2958196514470813,0.04695918741569298,-0.014346712150932028,-0.09850549085615816,-0.04732353251276143,0.009714918636644351,0.11803358528371177,0.038410539450130836,-0.037566659542526915,0.09237326440629931,0.01913711685032446,-0.1895782495288123,0.11556941870933839,-0.06104507329935535,0.1766243661108892,-0.18757925676897114,-0.13730508797065594,-0.1639102404272667,0.14279940332998126,0.5920775554255103,-0.12120200258285885,-0.4358163882407477,0.25052087822602137,-0.019467728010764743,0.07782691129079547,0.003824319635065382,-0.7191111260585991,-0.43577616922302814,0.09125565602132774,0.6237275590422491,0.004851851109472999,0.2920021346658414,0.6382041583002646,1.0171332927463579,0.23343493851779445,0.06947864883446397,0.03788777159354005,-0.07388525216153279,0.2713391650912096,0.1711915657658671,0.2592902849496578,-0.0816458734047683,0.029128380735869375,0.04950012648347857,-0.08380562303282622,0.1613170741730096,0.023774495795848345,0.04047419971779547,-0.0704260959128046,0.0033219876477148507,0.06462903308530048,-0.014728724508264426,0.027173260194724737,0.08289710802666155,-0.053727366672244384,0.026929174016171956,0.02250435774688527,0.025168643062472688,0.03658927496661327,-0.07332099049574524,-0.04368342361782067,-0.008921930964259904,-0.021497580560461686,0.023412890627089213,-0.06284329026514496,0.10647360358974141,-0.08062793532074973,0.08527449875842939,0.2627601667152849,0.21737610802455548,-0.25965293775096926,0.17782051708822036,-0.0037307028787273485,-0.0912508825571505,0.019560388012370717,0.08828428776668398,0.04168323896096055,0.007368265691635352,0.015208317574594094,0.02208125684486436,-0.18664460051766857,0.028022596887463804,0.04521435170760929,0.05467551142672296,0.0053375129644151875,-0.026638498758197904,0.04922704091247428,-0.04412485918580855,-0.04713777828611906,-0.0003417347938662063
75.30374908447266,1.3084030151367188,0.0007292390070676312,-0.045666958956478876,-0.0134470162314573,-0.03270956758995394,-0.04140555810826941,0.05614487137644526,-0.012559428117361339,-0.0767104690963985,-0.031439239060418345,0.0220463903901736,-0.035425587941050586,0.07899077685271942,-0.2515722395512346,0.13338834214201417,0.04082362530041942,0.06008021207480017,0.0518121298866219,0.058694761288052046,-0.046902853411721214,-0.2632531750185443,0.0006409691197554468,0.2598788789458349,-0.22546862261763093,-0.23391117358127247,0.16170204029840418,0.10522464151215093,0.040335081436074165,-0.10333287992099793,0.026495399868764844,-0.15972113339664823,-0.28677101361792684,0.06707068991072815,-0.2225161261846095,-0.40637566435827,0.03497065699412157,0.07867214913601381,-0.14259954576100203,0.30306459020167115,0.1334943131961768,0.026275010397865842,-0.24141134275049103,-0.0574994795797798,-0.038419891731127156,-0.3693066223067688,-0.26597977132275863,-0.15872431088099617,-0.4928516938421375,-0.2505404346496073,0.04537360637696507,0.5781972370017787,-0.3412664927489916,-0.0636967440485305,-0.032887981716374456,0.04094851324178808,0.008655523910523696,-0.03618912851159788,0.046585754350790556,-0.007512903796293957,0.010779897104448322,0.06655350179442814,0.009559993643915209,-0.013955938312796639,0.02453746547377128,-0.047851945247302255,-0.01498750847776334,0.029162435637733065,0.05942953288660843,0.030410719317626386,0.011035766476859337,0.02603742355878192,0.0035432185451615555,0.05658127524191374,0.02761111950646947,0.03640958226807933,-0.024611329696718746,-0.0262146023643137,0.31464099386436195,0.19393145153796293,0.22423106543212643,-0.03462846588988699,0.25027690168591143,0.07724971045046047,-0.03643170798345345,0.028846905668964015,-0.05993282926327402,-0.011362341794715139,0.003905816660935396,0.0027764096725588785,0.2217518047253661,0.008079631838565651,0.012001831751329293,0.07072659714550239,0.04809292119583281,-0.012119748080218817,0.02209419737400466,-0.08640743018180753,-0.024021138659131035,0.03495964797623537,0.028088036556962376,0.04760280341230765
76.61215209960938,1.3586959838867188,0.0516923875548981,-0.1371021115339919,-0.025471528444115127,-0.06054112473190485,0.04452147955656224,0.06346383902409124,-0.02066697213127542,0.19226095746951913,-0.02913255544766763,-0.07097595933085654,0.0585459122985153,0.012069001204264799,0.02523909256048818,0.07241586040648652,-0.18500714371129542,0.19878405948078845,-0.14545927279632553,-0.012369438367686388,0.08538527167219319,-0.3986858650343731,0.05714587871229372,-0.03723297914343796,-0.22012674444714314,-0.08311660472689655,0.16042369121985708,-0.2922885756298971,0.16392423249173652,0.08584149171305126,0.0983598733512974,0.39082181383549064,0.25489276972598485,0.0988098638692327,-0.31285730721985183,0.2000603187642103,-0.04286481218706058,0.06735497911319298,-0.44832897261081756,-0.06855677199612169,-0.07158986627699566,-0.22689711794905998,-0.18277744857703046,-0.08160216671350433,-0.28540328540433796,0.05504143515218705,-0.06440580611819942,0.04978373432673058,0.16848002098608306,-0.008453094928406877,-0.3186925888546077,-0.11310718019645727,-0.012136456195724957,0.044566647586789424,0.10094212642487692,-0.2687266474595516,0.050697194612219915,0.012008850327947115,0.08566116980530325,0.03114253613401577,0.021445035280098723,-0.039289859015714114,0.004938623291409362,-7.967715899645493e-05,-0.04994858132884664,-0.004657214333831853,0.0356526577847705,0.04631510721338052,-0.015544775657039349,-0.04798921064855802,0.02401256548119674,-0.038342118971176856,0.05927493478461323,0.03794340520569593,-0.026383620958464624,0.012071819456854564,-0.0945998484338986,-0.024549360651567667,-0.0013173385315014136,0.0952132139337728,-0.014917006585765995,-0.4256090185564173,-0.2242095602228829,0.0751583587153517,-0.14775060064649767,0.018788286630506332,0.0370578948301971,-0.06002831498144761,-0.038616504256385395,-0.05071629508781421,-0.0015346827212559119,0.0047025786947001505,-0.003883684057356778,-0.07591592501306928,0.006990762242790984,0.08264532689566746,0.009831862601765912,0.035832925888516304,-0.007120867147737811,-0.006785464795889703,-0.05084567669867413,0.04547555345741056
81.68644714355469,1.3680038452148438,0.05593243225848838,-0.005576152842881824,0.008187850178778364,0.07366224372955038,-0.0803202253846475,0.06781847837278081,0.15887223834568828,0.034261077024102346,-0.14919348614432265,-0.032582141732395584,-0.2689963750611503,-0.14706578735207676,-0.014608471232017327,0.3164451289046897,-0.08462288423567674,-0.150066410010066,-0.05803338505767551,-0.03227752060063739,0.07759868224684086,-0.046418134715795305,0.2313134166867631,-0.02886888560560997,0.15506956171088515,0.17150020143705216,0.19671805320919056,-0.08714524171059779,-0.12310168732195759,-0.1197391118572297,-0.10205898603522992,-0.11573992361104875,-0.010414380966403626,-0.023099835517540888,-0.17647658209352907,-0.21001980394391948,0.2898604721141883,0.5764666310658733,0.2715746891407538,-0.001416511522755482,0.18403917856822782,-0.31588567740915613,-0.01054692802507004,-0.2809088551091904,-0.018856522942296616,-0.1677236074657804,-0.12473764916419347,0.14247369942462462,-0.027980490288209314,0.28860849940416305,0.1911522964198465,0.05136721269954134,-0.007552541287118089,0.03266116758411919,-0.05581495967645897,-0.03347832396120372,0.01245523467947282,-0.04415966003393727,-0.036059224029702054,-0.008968259935898821,0.003116595765065562,0.029591410759887086,0.015973200284989775,-0.07245089704504756,0.03228806590863001,0.08711549097760538,0.0346753920631592,0.05467809078103868,-0.02372534671328602,-0.003893139954431002,0.01723695586535659,0.02107192521068746,0.012591304783148655,0.04295523870598484,-0.02081919628865633,-0.009170946390991528,0.048339231012346516,0.014918976862249588,0.018186130889363626,0.058361522514280825,0.05335305114394137,0.17457375869537223,0.061742265961763576,0.04365421197071082,-0.054609532157663856,-0.02852681539153077,-0.016779966772513488,-0.0007923228963652301,0.016551472725507253,0.00885130288137696,0.023295777162273382,-0.005517923416876101,-0.022218705167173773,-0.057083071639052886,-0.003449672196060003,-0.059633807933466385,-0.04733177721625635,-0.013409460472581732,0.056255678447643606,0.059560223781283395,0.015010212523792466,-0.03060725634864328
83.05445098876953,1.319000244140625,-0.022783371152161655,-0.016059494039989557,-0.03542953259488074,0.00463939576554475,0.03694957992724865,-0.05554610135473736,0.005086147919237257,-0.021223679843200595,-0.03887511227220859,-0.04276885488457151,0.20110225059716963,0.05961664195766323,2.9572045712147887e-05,0.09339992105152244,0.07631516804864324,-0.026337662076294985,0.0920568827805881,0.08602230363288726,0.15210415939796326,-0.1269406545352445,0.004827454019393667,0.03356936031444461,-0.04596191143217649,-0.08507490298541155,-0.13508806006964133,0.12401303224699906,0.060578570499469256,-0.10091539345464841,-0.23824916941073504,0.22461703838202107,0.0035372733613779433,-0.04388368302243485,-0.25867774843354047,0.09513196959332122,-0.06173494848521524,-0.29311803681883325,-0.267624484540418,-0.061114204342164476,-0.3091242307434354,-0.15176513148378673,-0.0539869356528115,0.21391698326859412,0.5806215909757783,-0.09381454689698067,0.5219615461804816,-0.6718753281507667,-0.31044490879081915,-0.5348769716206611,-0.10724930941004718,0.15594798474032717,0.42863399955989184,-0.0722025466758392,0.13979561542927663,-0.01047741011773122,0.19650252891707404,0.1609176264847531,0.016616912769993043,0.055381398816792715,0.05228853098370058,0.31581425949108577,-0.05387855616236802,-0.006629540001442138,-0.008664528943125305,0.014314893851662559,-0.002885966982308078,0.03551336524218128,0.10887237332484238,-0.15045761463382668,-0.08237693511836597,0.03669726298045486,0.03867742883423628,0.004318201045620487,0.010705554834094232,-0.041963085091289945,-0.015048539529421501,0.008574658571579054,0.042727319571211675,0.12868297675243914,0.0680515378822173,0.2345491525424425,-0.08375854362570764,0.07900247577856555,-0.10068361759437572,-0.014360739916373648,-0.07069067381894185,-0.01900422731009424,0.005655728262022361,-0.06165242055409699,-0.1318146655222351,-0.004338633915607792,-0.021696404445855764,-0.041917706439864824,-0.41131400686471914,-0.13701485200618269,-0.0374442555919938,-0.005064299540551792,0.06873886374150925,0.06198122099121495,-0.04051072303525627,-0.006296567169018122
84.37345123291016,1.2780990600585938,0.005063724032153393,0.013588369178546679,-0.007669090529548566,-0.006315014725083133,0.07905186796631516,-0.062327178462784426,0.009524593438947439,-0.0664583502419543,-0.03922481022557669,-0.11990901952334339,-0.30588989666618227,-0.08410168232218125,-0.0022221406700598124,-0.019263963944452615,0.0872001844275253,0.027063661404184744,-0.0003521534993708164,-0.2589750234722394,-0.1268911697068739,0.33705744363830037,0.008673833778959502,-0.10771164903277901,-0.07330861981214697,-0.15090860753765928,0.07561267428885955,0.07604895018190307,-0.06288535058382583,-0.13192018515514187,0.406648298305913,0.37010938259301035,0.30315734511587067,-0.24127788937035707,-0.12585376501004555,-0.09603270809253463,-0.12082493071260382,0.30698015678728263,-0.17357289626546615,-0.09614779837176843,-0.22979317422742948,0.3790992982574472,-0.11375157176957815,-0.015894915251065997,-0.12412773956021018,-0.19943660340784392,0.01182695634394984,-0.3216551387150106,0.07779623848063567,0.16120488093998836,-0.14311214449806578,-0.01850366639384769,-0.05663507394462715,0.6954905519023532,0.23693703334159524,-0.006892646841424011,0.011108096901162462,0.2563431320438044,-0.04218586843568737,-0.04117493041820403,-0.0011204683005353337,-0.12552553300411323,-0.09157887299388202,-0.05940803446415541,0.15132916022058238,0.0009201404390882214,0.2298611118771307,0.030574354765470046,0.010848069647486983,0.0482542299986333,0.039999667796290626,-0.04213956733209252,-0.05236842505272087,-0.036653610379980744,0.0905141757546044,-0.041008027802862904,-0.04332094353031487,0.004801570958785112,0.025058056121422277,0.02035974699858792,-0.011349098143940379,-0.028966972004670466,0.01103248044709041,-0.04019982971119126,0.0574358839963152,0.007947076098108703,0.0068129946995836715,-0.13485137956389617,-0.00634922497051571,0.05983939579547666,-0.060367418267114226,-0.013139363034943305,0.0022651634145522126,-0.04087765682743884,0.2866265835310805,0.0681423551168121,0.01376469619999168,-0.04537040617975932,-0.22266212825622086,0.11985159880775187,0.04506027013304148,0.023291711995640497
85.65155029296875,1.3089981079101562,0.03202613391063255,-0.03266556247807392,-0.007360497379094805,0.25157751467315614,0.558806171254276,0.1460652084215199,-0.15517443118876445,-0.11731966091057643,-0.09365191811500251,0.02204958614773303,-0.05875170025780815,0.270633233684066,0.00628167254966763,0.23793666476472403,-0.06119772370878675,0.046337205113193614,0.2039866132463323,-0.1830803528135091,-0.38253686164509315,-0.17667731299917358,0.17298733820806192,-0.06221083954046542,0.527257281413989,-0.033296835027007116,-0.33602504164112823,0.03347623166228441,0.1669107431699086,-0.1017658052576905,-0.09333895942905165,-0.09815412484940254,-0.19804830314932406,-0.08803932983927888,-0.20638498635049737,0.02478463024132913,0.04667104709233864,0.3572407434373215,0.29000596383691524,-0.22028389951698976,-0.07163357095383585,0.02491030020348473,-0.15053723560849427,0.10323947030511701,0.3087694602190441,-0.1873649474359227,-0.476534705796141,0.3781852060289917,-0.2085964480456546,0.01984774985329171,-0.1394745075309294,0.03538484346983067,-0.10106243638710385,0.31055696116655174,0.1291006557553485,0.2669748322344061,0.04414944245622411,-0.06310222044512148,0.04947638909373926,-0.0066551148459705846,-0.03124494763828957,0.0537840000677218,0.05792631447560389,-0.01583000491252641,-0.01456230664395233,0.007348227070404373,0.06462794105575943,-0.07132864579838283,0.053737162320414186,0.06751775296287128,0.032342249961242686,0.01113927818923546,0.01835626588246933,0.013225411573844569,-0.06007803163370742,-0.01964033340781076,-0.020443092877004097,0.016644941954758304,0.0006132383885031401,-0.038737810778069315,0.1028484595245175,0.18265417541638573,0.00593980935934727,-0.3611021917288594,0.17215107068612565,0.09421701126378627,-0.19207291135734814,-0.05307284987159391,8.519658526748731e-05,-0.01501294756343173,0.018706331595151504,-0.03528168824237814,0.034045937169859916,-0.05614440292685609,-0.06323152514656333,0.013705012247718269,0.012327370795968474,-0.0028940030457575905,-0.17197141875845595,-0.04005801453576424,0.012149416634474077,-0.032085834210499604
86.9605484008789,1.3383026123046875,-0.02091095300287625,0.042590711059634294,-0.12161663193787123,0.02247242401514848,-0.13631922928732434,-0.01636204923492364,-0.10988404417013065,0.050594561336742616,-0.03694255313423797,0.24785958866417582,0.11132611924348969,-0.170194812664838,-0.14424597924278107,0.07502382503396485,0.2957544164206211,-0.0005787771758283757,-0.03451845799999529,-0.31700645125407795,-0.18459001262740696,-0.06265403189617579,0.04446945692545989,-0.07735790682917218,0.08058322271960706,0.006126975197079046,-0.22162022495340797,0.05401106861851705,-0.04191871101680237,-0.015250640013155028,0.06723793882570714,-0.5076963055194252,-0.03220354429778562,0.10793449759477226,-0.11352776204019421,0.09210412000581517,0.27481042194421396,-0.06641000289188244,-0.000588638891367399,0.4046986132813739,-0.002292647764422966,-0.3171180599707493,-0.06968356594619823,0.052531676905547206,0.1676737237261025,0.19969152481486419,0.12361064042663593,0.12306851863905152,-0.248528956121138,0.4133765445783628,-0.2963724885897209,-0.20590057592281588,-0.1264592901939062,-0.004049139608753507,0.008804831856979327,0.08972459355613695,-0.08645750612426457,-0.034008884956609614,0.023287099839589397,-0.06957700165845151,0.03268520088827871,-0.025949641411851652,0.005446068452569565,0.037843676581246224,0.06555823366115238,-0.04401119172930078,-0.03284011332151253,0.04430703762945655,-0.028888207983223703,-0.024775537072829375,0.010087705319453338,0.002237882869700943,-0.021551084229476217,0.07080953285204906,-0.021221840377332178,-0.03616574331055087,-0.0833836731999932,0.040325744996522035,-0.0029834796287157832,-0.06201253036772035,-0.02326995196207492,0.02045574267460246,-0.061287083893509064,0.06874420127002351,0.000158259676822297,-0.19439553808976343,-0.005617358326932109,0.10034449848093659,0.012110953882076794,0.026295080064381124,0.07865505997422367,-0.03186118387200829,0.010862633693866156,0.032100685021229106,-0.0068209212245815415,0.0013869205420341015,0.023132601702609182,-0.01902515111561249,-0.034210651968979336,0.03322641957982861,-0.012476788907967384,0.07986533356171047
88.2988510131836,1.308197021484375,-0.054293199031020284,0.05846459443003163,-0.046476384570738376,0.061326736371895986,-0.03211401956576438,0.06036303320365331,0.015948083804463657,0.0046667469518963355,0.0807330556278164,0.031905993928613395,0.11334593647003055,-0.057710853202102834,-0.08416828090441103,-0.04218240466817851,-0.1444405723947024,0.18905591397238725,-0.006046459356105913,-0.11202177228553041,0.013161942905042502,0.03610495836695284,-0.13756177337958556,-0.07301268325026684,0.039696411407464806,-0.36223921006116194,0.14355611939871088,-0.0981099441639077,0.11354329654803984,-0.09783773158160718,-0.21986836231516593,-0.09255211493471664,-0.138133337608824,0.20166870478137827,0.016745065117300673,0.2677327643057423,-0.11023993226848788,0.1345768949740265,-0.1624128241732834,0.22058447057382832,0.2079664849720886,0.018499406800823407,0.13056826658346743,-0.2547710399995837,0.19965583157892822,0.059847181730210294,-0.10523766226830918,-0.12341705848284626,-0.7053594619427745,-0.14159968332698109,-0.3934199671708959,-0.047260484548246995,0.3403669877481483,0.1948338364964541,0.06127141920611489,-0.3740802005227918,-0.008855250772740228,-0.028646607088607803,0.35483396482441587,-0.021202184585754097,-0.03276075869976981,0.026944733738186784,0.02521002362546886,-0.022853701049587175,0.028425833238825166,0.002847966800407468,0.023177112570423195,-0.013214691990351211,0.015061364798879675,-0.012798312184049504,0.03387232578824874,0.02731439491529559,0.03516643855373394,0.03371807896607002,-0.016360062236952452,-0.004729110480797646,0.003615993233568633,0.05120795598599611,-0.024113109243030176,-0.03779225614025756,-0.003774514110712452,-0.0034275343651889744,-0.11134410732390448,-0.02226433631525571,0.02574058055692762,0.05381803297857711,0.2517488281278902,-0.0029284147193175906,-0.00983371923393186,0.004401740400837115,0.055090893023290455,-0.11151848947768345,0.00938837367062342,0.028420531289165097,-0.05915186701285331,-0.048651541397119205,-0.014656628114499446,0.032122512739459215,-0.05274367782942734,0.014445002504431018,-0.01432060846070755,0.03539155811093827
89.60704803466797,1.22900390625,0.03888469559756933,-0.00556816890136709,-0.02779906293108893,-0.04177770705862306,0.0005170843155914359,-0.05547592897111254,-0.010000765879501978,-0.019125741027290775,0.03009137682860924,0.02835181455317879,0.03087195263366779,0.008581911272882322,0.11397536979994555,0.32382521905542805,0.058787022567512094,-0.08183787721835101,0.01781215036157692,0.14512021825494878,-0.2229361094101659,0.15184745770926514,-0.17252249385290083,-0.16788614786357542,-0.08057145284912054,0.02398872736267886,-0.17377490307111879,0.09304289040130409,0.1866280449745327,-0.03450218617275834,-0.2621080342675899,-0.3567641820854936,0.03815736074275104,0.07673320046872491,-0.05920111252978748,-0.21059776831756488,0.18365063919710217,-0.18630277102543782,-0.164796541423805,0.1814396272408379,0.2277377662105045,-0.055895137360088484,-0.14570145080448507,0.025128171960607654,0.1022818527785052,-0.01801518375179667,0.11281118788407103,-0.06468239752549353,0.35065611668874724,-0.1652741041489348,-0.17247195527305378,-0.23845359927687093,0.23425095528903966,-0.11479258608102243,-0.009265195348904538,-0.08982078468890603,-0.08591141088492002,0.062435728158326244,-0.011752139776158438,-0.011812763994149834,0.026020306353133158,0.05972766704921581,0.06956512970226642,-0.0030351079126616706,-0.0067797586010062616,0.026708689155409703,0.020260719326356876,0.007419022364058474,-0.010965610856894747,0.021883604070328994,-0.0007230970247472188,0.02116550506341109,-0.054281659784870796,0.04351135578653427,0.054588369910337435,0.02869434781911165,0.07866225763559956,-0.005336548426428872,0.1524412191213768,-0.052269549223560224,-0.09246838676240625,0.08392871408936764,-0.27869450110967264,0.052769035357732995,0.09723234578965095,0.4000180937661669,0.05825013813579743,0.15314936695033646,-0.30854125149007844,-0.08707725574336737,0.05039367610993785,-0.006120880099892149,-0.0600804486106789,-0.0567956293313352,-0.10843401930110969,0.001689636730195914,0.012810528495465538,-0.04181217097800967,0.06755686039743347,0.07799218087504727,0.007043431004661074,0.06762230449517896
95.02134704589844,1.298004150390625,0.09327693679916978,-0.03526901221907455,-0.013636885082358295,-0.0537523072902783,-0.06077775864764189,-0.022918584158137873,0.016769779753890098,0.0016478382554370938,-0.03993950262107439,-0.016160981681653523,0.019645898320973673,-0.04415945147341024,-0.012109671351573035,0.18138890950184036,0.31551582731596006,0.06760177734140492,0.24294048487185438,0.009844089277915191,0.0709195265681196,0.007090152137408411,0.0026658424612923037,0.047753588801558736,0.26088953207239707,-0.35424816553511107,-0.042261642148778714,0.10492569879313474,0.07072410176098556,0.052857923772415695,-0.1380907539302034,-0.30100938272862304,-0.2655932401469878,0.039994527022995024,0.3427528106418084,-0.5560670244903484,-0.7412765423481373,0.14505201890050579,-0.4208411443217134,-0.06866252020503348,0.7239683550115286,-0.095866460692659,0.28837159633598664,0.38469884341192484,0.28052124781176635,0.3898325117918715,-0.17589829269090487,-0.1651400581721067,0.8280323781545023,0.03713093858432957,0.1962560675896137,0.06509869502819259,-0.09015990191767745,-0.11217223933961644,0.004703157384189138,0.13948683019201163,0.008213125377779941,0.15952662581255472,0.01824287253800692,0.031750896793590506,-0.16343614202769247,0.22458746320063397,-0.016065567045516524,0.12164649890368741,0.06306403924222477,0.07227161249317894,0.10197386012859808,0.0007900947012503114,0.08163545129313801,0.02405833527016863,-0.029286125271079714,-0.04001021001139059,-0.05814098343720637,-0.05849147749258032,-0.02817939819735442,-0.03786023216904586,-0.014384315271557403,0.0494409014701385,-0.006373914515467641,-0.041649419122501335,-0.040553979946732654,-0.03654747894428892,-0.05718575118701474,-0.14864180815294797,0.07194109807103499,0.1997695925607657,-0.016811678282860884,0.05758278723945411,-0.020701493258350915,0.0654625175791842,0.0007174555164594087,-0.037999013893739095,0.008861014163554589,0.03614648862946366,0.031202041730913718,0.008936696572037994,0.04019156234982142,0.017018787199413195,-0.026404793429196573,-0.004476525030190862,-0.02730721629231435,-0.08710913847397198
96.31935119628906,1.2891006469726562,-0.07622904403210792,0.0019627007589690833,-0.022268387566316813,-0.08390715788487978,-0.012422606796800515,0.03540512707601626,0.015649083403583175,0.038765360072627236,0.08205839914361363,-0.09407663457542352,-0.016532401652318608,-0.009030641701704895,-0.6024465373513095,0.18672916513364896,0.003031360994701471,0.46230853658529353,0.02959769234659039,-0.08228314492984241,-0.19954661071077334,0.05518994294882418,0.09419994662744885,-0.18797035297700462,0.03072414908914266,-0.14093234457940215,0.37591339317589384,0.2711964317810223,0.04553782122952148,0.009925426906867665,-0.09603281545622719,0.1550698785338953,0.2030108801555835,-0.008440366280607193,0.29971170318186446,-0.04661839253001461,-0.3979472581841146,-0.29500752532632224,-0.020817736467744673,-0.5268069647978808,0.20555345197373248,0.49899236127865454,0.2605165813538318,0.5436274022461702,-0.21309542602738935,-0.12921800628062133,-0.6940303364185834,-0.06753261405129607,-0.3539838792889942,0.37932742042520495,0.39211929145549307,0.07332695764878362,-0.24840797269536466,0.24154998687844395,0.011025794332687987,-0.45931889211788657,0.23149424919223305,-0.04021472965170338,-0.042144451746091965,0.08752871180537365,-0.32457047356379315,0.08128403309272834,-0.024361574807065967,-0.12428063812700746,-0.20753034066521261,0.07636571945283069,0.005079800789699526,0.02034621845408068,-0.008427690758392753,0.005147538830579418,0.054563488924140965,0.010642401868743035,0.047091182490971675,-0.058087483188302376,0.021242064561626514,0.08439702724718987,0.03938916217644631,-0.07103194405705006,0.1000493190438798,0.010728286008660921,-0.16608777953729184,0.14372938441248523,-0.028373831166004098,0.02804355711559125,0.09252576875688948,-0.14149497282357854,-0.09185243664122891,-0.026655769821608902,-0.19237015657949538,-0.021860625397983075,-0.014654612007583993,0.04093119621510744,-0.00031852587313138724,0.2064388106316572,0.05231417942049058,0.06407570457394268,0.005006931754735356,-0.03496776357919361,0.03856781981470589,0.0013230050789261212,-0.0989034943354588,0.07063724024793866
97.60845184326172,1.3180999755859375,-0.06709720201177168,0.04159667142343637,0.09423650914339354,0.011153141641941944,-0.06026823783521569,-0.0720940274597641,-0.06659227407204074,0.03434558959504705,-0.05923363444648018,-0.019233167560172074,-0.018157659950501573,-0.026254179753547657,-0.0063336463693311335,0.11693146117277599,0.010893406859884009,-0.055068771722237356,-0.07698143906861962,-0.0766225782650898,-0.21963557318803933,-0.07846969992991713,0.14787672409688538,0.06920782800127548,-0.02453079718725602,0.20724054183928203,0.19451795506588018,-0.37078765703137956,-0.2833689873928641,-0.06419918418039385,-0.05585340252899389,0.13649232413765913,-0.15731699527444998,0.3202709921956987,-0.15872202804572738,-0.0768266883653152,-0.17367924140078414,0.01187816085091235,0.23739220819116885,0.07565991039568028,0.3238038548249436,0.15664623416195364,-0.20663776176062199,-0.07336208615274012,-0.19552800873539117,-0.09420628106961765,0.42882615535702684,0.19308623688404575,-0.08130531532814189,-0.19344391242833353,0.20256383558557584,-0.018298432181240346,-0.05349787876141963,-0.04674434933946894,0.00478837228862262,0.02087827138733981,0.25483815297640067,0.23118792839701996,0.13562549673282057,-0.10224271593060676,0.01713273938589523,0.021007609765376436,0.0915742272807556,0.009551584331726037,-0.08970161307855574,-0.02767164344468826,-0.027971349217594574,-0.05712818457955968,0.01161072431970008,0.0002327583175065484,-0.004129680679512555,-0.008009586090646713,0.025174615767916117,0.0010650408268825999,-0.043091145841689354,-0.012699223319568654,0.03099337891442684,-0.03467462217679249,0.06218672253665171,0.19150573052907155,-0.15572378203397663,0.09847735518679808,0.1902980858542775,-0.00828326779275873,-0.25833474159285486,-0.18344093129348094,-0.082690312383213,-0.04343040391321369,0.04568331783378964,0.050353973482336965,-0.054505559710994175,-0.0046848969088049705,0.0330447314595116,-0.022937724571415026,-0.002688169038383474,-0.020321231129100326,0.022708461948713198,0.02622569110964187,0.040169984446317905,-0.07495513579487569,0.007613788217701318,0.05894187201383714
98.92655181884766,1.3292007446289062,0.061727045511970995,0.005909518235588432,-0.007139166740834454,0.009231715128965347,0.017955387875815305,-0.01234117411356487,0.037466480014847814,0.08896413262177996,-0.21284010776670031,-0.05046150432800772,-0.10703275094566998,-0.017934221539734056,-0.03374506569267706,0.0359703669322209,-0.1649265924647996,-0.21587617762386127,-0.006670620427676185,-0.09468716903540973,0.028796095000001354,-0.1902049385320799,-0.03655871130106217,-0.02152526353817881,0.047378493500161344,-0.07375107068277446,-0.1500270438702009,0.339384405285657,-0.1803537178289119,-0.14463549297215073,-0.24161665042097563,-0.011931924542853634,0.04395168362306167,-0.2860690935091551,0.09667752106161008,-0.10001773731909076,0.025789548574232407,-0.11585184773514572,-0.19949054993625237,0.048258604913386266,0.22124267931592598,-0.1582043557572962,-0.3431164417977023,-0.06615807533943807,0.42776659378329296,0.30518114060438345,0.18464377036824922,-0.05959772522534065,0.23080421712174223,0.6352807952753786,-0.12289312497380772,-0.07404179619250331,0.1539121641680656,-0.03672001013475654,0.17267251226078775,0.03715780231460279,-0.0715207167165369,0.19200628624037785,-0.004000553405497195,-0.07439423379009993,-0.11903939764744334,-0.006084356345838654,0.015813187538287504,0.09856938677381913,0.015152135674594959,0.008136679184322232,0.04059219055228983,-0.006389348199205905,-0.072092751769707,-0.0007833372114972328,-0.06719404451608792,-0.06624000622370738,-0.06127220499438016,-0.05149657869529789,-0.015875283913782214,-0.0005122623316151176,-0.010594905561264896,-0.05223264809471183,-0.12717690410207674,-0.12297827056848139,0.06671663162417232,-0.10065077798739329,-0.06918460750743305,0.10885276317999519,-0.20407543532110284,0.0248799221854117,0.0882502999266209,-0.008610760346115404,-0.11021328117085692,0.021788084389652348,0.07972329399829395,0.019048781460326798,0.06306476256254906,0.03644018608674217,0.019054448789989874,0.04665384380032021,-0.013675782133603855,-0.07796814102034783,-0.03471623271316837,0.006046138363155049,0.06723699333959215,-0.004789531567850818
100.25575256347656,1.607696533203125,-0.004399044058508311,-0.06083727781236915,0.05808870606848282,-0.08446230178359919,-0.0036279333182222076,-0.014186359154155916,0.11003181564335586,0.12492887650035402,0.1498423216136925,0.10501314865414157,0.055686472799181444,0.2422264606460503,-0.02643756291909639,0.021200831012258944,0.10732471701991053,0.004760844932202024,-0.08186407464893071,0.16924414701441604,-0.06024668678242457,-0.07140630386884575,0.0711853410892294,0.10304490565079563,0.030907843253652548,0.009325632457760781,-0.11233841433342864,-0.2397188054335393,-0.008012629760528203,0.07384529122044416,-0.03507671820852505,-0.3810964232510245,-0.02365054314425527,-0.19573554821649158,-0.03950214675840943,0.026921576786198855,-0.13995459128536786,-0.006740415574488823,-0.16480130201634566,-0.22524238082824521,0.2544846917286358,-0.0014764267774921153,-0.21697979604848452,-0.7996361837280034,0.3691773564103853,0.20893806522483252,-0.058289241138266834,-0.24179760078119983,0.34379241094224955,0.15975122883849413,-0.030370178602905223,-0.06660090948343317,0.1283350559221157,-0.10433630254779833,-0.10880523017984378,-0.05736991176966,-0.05878244503172154,0.027393287629642007,-0.01864969210964963,-0.09635190648552519,0.04389089347096878,-0.0012965888571613363,0.029429095262026004,-0.0011647024497151298,-0.05869393079035565,-0.009645835154659135,0.008613214140739484,-0.04766401992181659,0.057013452126985574,0.046228178558774806,0.03403937980642002,0.012926146731473673,0.025027598441008554,-0.08486346869834122,-0.049504811320758305,-0.09446014015262061,0.034903263498971465,-0.05556361789642732,-0.15868316625188827,0.1586710486805668,0.0318382215653918,0.3270748554160305,0.06057240536927408,-0.11078037726210967,-0.326186017651504,-0.10932190614146002,-0.018797441086563647,-0.09721348224093507,0.0014289057620616129,-0.09607883140096983,0.020487352254413504,-0.003816733287919867,0.006890287407805741,-0.011557926836435603,0.018810110931357555,0.0011202520021503402,0.09187093306484446,0.02493345209562475,0.07855364096263227,0.09746730730347888,0.1965943806442565,0.06104459275600661
104.76024627685547,1.3385009765625,0.12853168476017504,0.045932596750991456,-0.013317294277171744,-0.03718419218671383,-0.00449182940506436,-0.06981749735894172,0.02781697265322102,0.007309583695449021,0.07810488547620774,-0.04605721858547703,0.025558324351960593,0.052857160868934966,0.16132073162615404,-0.09025507721489766,-0.01649991237248975,-0.19632437051086285,0.1238670282572425,0.3784475778318082,-0.013719994116606675,0.012027410236832091,0.12854036714797948,0.009324475416578451,0.05774430196027702,-0.20955201570969345,-0.08208154345203703,-0.2216272832201289,-0.08920790753100878,0.019414935010910763,-0.13592387469907777,0.03604039503114018,0.10859954533597457,-0.0607058495056657,-0.4929983381793,-0.365433187644881,-0.17180659010412797,0.1883368480349536,-0.11920413972138627,0.026334338363594167,0.08752098737332754,-0.021893341936979678,-0.21334479133174078,-0.44871710605334164,0.09804756126309742,0.08246760016098008,-0.2815946222880807,0.16537326971657432,-0.1258679945311776,0.34253612602493316,0.038922102937698454,-0.6185763975965684,0.06993940601471434,0.05168769366384432,0.12218328628285183,-0.10540724764511908,-0.10324417606026301,-0.022899049263234866,-0.16126230402095643,-0.20032120014403895,0.005796096333787901,0.04466298036544695,-0.026463243472985246,0.059244885630046984,-0.043318776028306534,-0.05041613705929482,-0.04091667405560721,-0.07755551899911722,-0.07360182103142654,-0.0017095023407825499,0.030923118943984723,0.006512915179744497,-0.06641211245007558,0.04217403154897538,-0.06351999561602306,-0.017095339158184068,0.0016052319698680092,-0.019791049984526205,-0.009018512209558238,0.011128973294942128,0.03475139182824415,0.1318986594763725,0.30548360077383363,0.16498128954873398,0.024254489082691337,-0.280005115705509,-0.11993974246938535,-0.0660821469953516,-0.049538992495351944,0.0404509605384755,-0.045860208138021046,-0.007717961034451842,-0.06350662548629323,-2.643501236521302e-05,-0.005861118589995052,-0.02286602198536787,-0.06903347001090082,-0.051255060640431824,0.027785632099280977,0.04439333165348561,-0.053631464567938526,-0.05677529307151236
106.09874725341797,1.2982025146484375,-0.04849964180152869,-0.019624032797574874,0.10331323887016657,0.017796476432105964,0.02451588700534739,0.06624399172978805,0.11045989779883966,0.05732192901955695,0.09318107503049919,-0.012135836908892557,0.05006860684556494,-0.042644396215176884,0.1075098259705754,0.06428195070155748,-0.08049568458917811,-0.06910738684136097,-0.06653011668935307,0.037531072284830054,-0.1809787234672107,-0.10066086548181571,0.1256763901192592,-0.0757589003258061,0.06831654971771352,0.10423982680629375,-0.2056783194535057,-0.18066476371348686,0.04855529637847159,0.13833114224132306,0.14713773883811831,-0.06304565440782499,-0.04410764179867831,0.3051310557113585,0.44497757439774893,-0.06364973209673125,-0.21605635625422973,-0.24379112927148594,0.12619146032866832,0.08788549630663794,-0.11584669411959779,-0.36678343804253427,-0.36664519571162646,0.16882779463958864,0.0572349155132478,-0.035534500002926045,0.002771936849786989,0.297591716795483,0.06524436221984481,-0.17523553754895219,-0.13848389688085708,-0.017693453206889254,-0.22027576846493468,-0.13526889459688785,-0.18097001761768375,-0.49450537449931226,0.0886422633200461,0.01354978223844332,0.03800987551106169,0.02603712669051355,0.12088034127998476,0.032562294489043075,-0.13113489558353814,0.0965138364980971,-0.039987740480661685,-0.10205444361444693,-0.043064374348894506,-0.011282258029242868,0.008167702697575595,0.01513691162715875,-0.020659277816502383,-0.002302004585170339,-0.03387608302332892,-0.03770673863375204,-0.018310690585625768,-0.024926537159698357,-0.026957807377480283,-0.09546630690974954,-0.05143417650481813,-0.058026876280921486,-0.05430091407967484,-0.04571642000854076,-0.28427123839847646,-0.08679331877888889,0.05614916989493592,0.22685620021281594,0.0072272786934182015,-0.0540983623872591,-0.012115828803080125,-0.0009503586204758115,-0.007413070562207233,-0.029572741751103665,-0.04119493881164798,-0.006933263707961589,0.04670922614744781,-0.040398542338461255,-0.0009450464463642665,0.019652995702835706,-0.04107901167916657,0.05304239759495246,0.04450433977339988,-0.03405339019467166
107.3969497680664,1.35870361328125,-0.032908880309075544,0.018662167252071576,-0.01420083276296812,-0.002242218740981109,0.04195988891019467,0.02586937871851008,-0.06271288783476053,-0.08852931101840583,-0.017012548249577476,0.04185334113635394,0.19121457414647375,0.07123875203781624,0.21669703946282104,0.14348792049654394,0.0481464804944913,-0.020697016754300746,0.003270476380494502,0.09273418699539376,0.06940669520031659,-0.08921952184066209,0.4879815109800711,0.22124476352785527,0.07218761238847271,-0.28400579389552427,-0.03609887181821452,-0.025872161644031076,0.16371554020452567,-0.11875953591677388,-0.1357517471246608,-0.238725870400658,-0.5312505591368903,0.3664140269957962,0.27164039216124347,-0.07128805307626558,0.11969965380756606,-0.16847133606101422,-0.08614265004110819,-0.13912486314286798,-0.07501817072111802,-0.33493762240163727,-0.047670455860633204,0.3163811278542698,0.011844179997066509,-0.07744680645429679,0.2375328284009145,0.5885937349588992,-0.03369422836113539,-0.19657111463576027,0.39471895850235683,-0.12033650765193822,-0.1986803927846721,-0.005843851283793056,0.18446699824562673,0.08140635051602985,-0.10712403627577784,0.0031983506368439343,-0.04084369364741636,-0.03426849719493163,-0.07200573129762074,-0.0028277630580599775,0.02923678793387359,-0.048621185957860275,-0.05513135760102779,-0.009628920391224871,-0.00816241993685541,-0.03284593569721901,0.031087652980353188,-0.012538409242860343,-0.02974194591441528,-0.03300445543660545,0.009183530106008385,0.09657227311318567,0.019933658408675337,-0.036467762479619914,-0.05885269777074213,0.04070308252391806,-0.056036645664451365,-0.0677264844990485,-0.05021989484307217,-0.27832522234619583,-0.0832301690171264,-0.020332945991910475,-0.12160302707835495,0.009271159404933584,0.024401596522440994,-0.03021366410427895,0.0513282421900407,-0.0055863093435438525,0.001320620062994856,0.07142091701359801,-0.0523173853671655,-0.01594225810144347,0.034460716729330765,-0.13252577738755988,0.024298521011897875,0.016678778028139725,-0.06827081017799219,-0.0896333195182426,-0.04429805545085049,0.020978881746646454
108.75565338134766,1.3685989379882812,0.024777340422360915,-0.013248295261756644,-0.06407491390201722,-0.0698382901398409,0.07027631482982916,0.16129294995253893,0.10279406655631,0.021556876773119266,0.05104924054515768,0.18931852767375656,0.0161443267662868,-0.02214007383742656,0.06513676961556554,-0.07645092220106468,-0.0647277353131383,0.14931972499900298,0.04596878523457383,-0.0013038983961290254,-0.16374478796368072,0.1566561601608411,0.1714796817386721,0.0060528413258902425,0.0483000913864395,-0.06076004141647253,-0.07388658108002108,-0.052071189214408925,0.11614022267181205,-0.19402728233899197,-0.30533308246791757,-0.11088978648313114,0.13306888233265604,-0.1968985433996788,-0.05378548337526929,-0.22412315716058906,-0.09860993397558421,-0.09040524678625846,0.10269618507654897,0.12510968315698298,0.1442845716553336,-0.31727997169054534,-0.1040821137644114,0.07894099113791472,0.014754633331590127,-0.1005320219368191,0.20682415159162845,0.12625808433549748,-0.13602934051315926,0.24716480003562805,0.3061674611875556,0.09550183802237347,0.21644653074340311,0.29238439308914915,0.056997816115009564,-0.16682706811418685,0.042380579606941554,0.017130255961619722,-0.05223223468357236,-0.29332539497281596,0.12093235686552369,0.04785371041792597,0.019765169201803268,-0.06643347049199481,-0.05196543914881543,-0.06572924935563844,-0.06400017710385188,-0.03709084034538701,0.06897940505437322,0.012873536272543605,0.06630323906885326,0.09469680341778874,-0.006298204089473145,-0.11098194598760439,0.03534898932690544,-0.08854667878049709,-0.16100509678010233,-0.026749228683928258,-0.06083523862148966,-0.024142789660181935,-0.13997835069052622,-0.26689312871793563,-0.05319757738704384,0.32124338790646007,0.12759639775411438,0.09243289263355176,0.057164113906489206,0.07583756793234699,0.005809057755757877,0.008874051581060818,-0.017164735556947027,0.12592284569241108,0.01600039824257897,-0.03778504772964002,-0.006478465228318586,-0.006640487442210921,-0.012553439734276067,-0.10205854606548925,-0.027526999871933612,-0.06021543027293583,0.028604566739416436,-0.11545186625752585
110.12425231933594,1.4182968139648438,0.036031323142838544,0.02053561684842177,-0.12012323598492863,-0.019656175482905346,-0.025311761937969503,-0.031225093889926055,-0.07279168586622857,-0.012378251835292488,-0.027632146661328433,-0.11648293712370061,-0.019552787767095223,0.19188868220295158,0.2937570082218624,0.3054967478707553,-0.20137302864655485,-0.06304119967133465,-0.2252414119679617,-0.010798621412302934,-0.13847547704834268,-0.04048472092004626,0.039978555758945204,0.05444319151398169,-0.05359758377086818,0.12385983666169446,0.4193867366985625,-0.003432271229017264,-0.0007605173408253008,-0.15976485789238734,0.19596692967919288,0.20088812098198128,0.35164909245271286,-0.16689251716980572,-0.11971698550080857,-0.0943722615720032,-0.020136000083971914,0.41333490052657595,0.07549939338003153,-0.038870417329623416,0.19865469396797858,-0.010836193368291322,-0.11251061960805242,0.15839352817585717,0.41762199562540664,-0.23894371256130112,-0.23309109372246678,-0.3004460050608623,-0.26691002314286083,-0.16353353885541197,-0.3441823820747607,0.14029662301351553,0.028478835378210304,-0.05013554612774904,0.049965341211831174,0.05617204117403297,-0.09959315642887703,-0.03893087982655134,0.12599390024753865,0.016929430197591234,-0.028498287496382512,0.024721310268465305,-0.019564054456145317,-0.10350591623241082,0.009171657814432979,0.0006939316877737802,0.012724976208160226,0.020096579199588176,-0.025366125029312212,0.022150324841863075,-0.03783695677955416,-0.006188133062346022,-0.05035388873499285,0.006836883602874919,0.02533724598104036,0.04520234195855732,-0.025210995000352825,-0.06833956850086152,0.12256966265506489,-0.013573575574458999,0.21097097868934073,-0.17226121370813896,0.0010801192605153463,-0.040556701248303975,0.15932235701695155,-0.3075235562279258,-0.10098625166434931,-0.13037806376905545,-0.025813002824697347,-0.01755880847121068,0.2404199213886702,-0.10203173736490691,0.003714523982458511,-0.07886141622273272,-0.015500343021925924,-0.0441300904149124,0.05004399801153965,-0.012842934871157771,0.06536829536090899,-0.035896586387792605,-0.00629546556902381,-0.023157190630933043
111.54254913330078,1.6781005859375,-0.019493727481338395,0.10238819629322056,0.01347929339573505,0.0004543478751043578,0.060331903921031486,-0.0015332701554553801,-0.035608173118796424,-0.07993577485509826,0.011066755777509613,0.31917123876697195,0.047732943054275445,0.08488254772901374,-0.037476042016170275,0.060704778024797346,0.01662896192229299,0.14613759516727426,-0.06463571434918924,0.09789191765630126,0.03473346145052991,-0.055760474310638276,-0.15140131313821642,-0.1021080063277772,0.11400033675773982,-0.0665461587046084,-0.11851604620555761,0.020226254659498545,-0.05756067576504871,0.08996599840976345,0.28715292988171015,0.010866606692038792,0.06502050444071303,-0.06324258645468878,0.4180893644237893,0.2733140693159668,-0.40050030258869973,-0.0446444594784054,-0.09479696855978964,0.12172202650339888,0.33557633634215245,0.2565670954590621,0.27360372113971054,-0.1653304324935444,0.21692182110757532,-0.29925115192597634,-0.4803878204266138,-0.1192571062430038,-0.08626636165871683,-0.039523152161094054,-0.2152000704549289,-0.14805860599997256,-0.2929389697637608,-0.037884126789348896,0.1158602038568792,0.07571570771049936,-0.10522458759130086,-0.057033119206305216,-0.04989103990248325,-0.09443492400149736,0.03474391322712639,0.1302229658839636,-0.02435886719682494,-0.014838165721555913,-0.043788849437678426,-0.008275075147331659,-0.006190899877069462,-0.014228868058238224,-0.012405450631105049,0.037338444555077156,0.012266617537431447,-0.0003511289043344589,-0.04539903255561062,-0.1041602578649237,-0.04215128905137288,-0.03525972847315559,-0.054603605565381796,-0.007419659646918283,0.0833334991072692,-0.04218557318487462,0.032114496555557176,-0.6024294765435859,-0.08609309648207443,-0.19428957383005405,0.04736867118129272,-0.10261295972305673,-0.01900600584378155,-0.0064341007116712114,-0.16460924249612546,-0.0919131180958669,0.013739910560055323,0.0006609237229170049,-0.0022537727502816188,-0.0010964443993768786,-0.05907658469404752,-0.06853203097689516,-0.03813232920941678,-0.06993936729388424,-0.03377088196204287,-0.027327315160928754,-0.015655384081712773,-0.015625483465902944
116.17735290527344,1.43829345703125,-0.09034536583288824,-0.015811636938180055,-0.005213726560797001,0.0530723445370163,0.06541073957736426,0.04252352411432511,0.007270453175279589,0.027918312498044738,0.02297279632911286,0.09161819256945045,0.00011003507379933651,-0.08300592385060296,0.12026093933659979,0.02768990372517289,-0.2627349985755431,0.078021971777978,-0.06132074010390762,0.0010918732187984242,-0.03264521493313645,0.05841269096818698,0.06476197372286933,0.06427367146267443,0.14516423421881852,0.35432051469821535,0.11449982164182065,-0.07998881136256772,0.1692933389912612,-0.06905263245952586,-0.021303842668869533,0.16469432534320608,-0.4608795269384957,-0.8473366942688072,-0.015862101385705554,0.4164760223327931,-0.13515164629702905,0.39722025090403434,-0.31590196285654065,-0.0975203424245069,-0.20921058078976348,0.28128570456818186,0.2396497061602928,-0.5810886920042495,-0.24377503346868282,-0.30732902420355973,-0.02012401074510886,-0.7536102214563218,-0.1335962841923688,0.44114520783715,0.6842926771677647,0.3277852888443964,-0.2058892899299879,0.15272383992268557,0.05984517395096865,-0.11167030080269198,0.05843564805960664,-0.05586350164746362,-0.014871235402878324,-0.08893244949224467,0.10050901929525767,0.050984022237948644,0.0038664594862155175,-0.050380981635431914,0.025489581854797473,-0.07725596838384864,-0.048487773335016346,0.07629085596598954,-0.084208026231026,-0.024784927250362892,0.0659491316878065,-0.02812217730123881,-0.0016442480833149427,-0.07004150566545697,-0.016865639150944408,-0.021863508447736258,0.05784267955981317,0.06127891795801367,-0.0073777520105047616,0.043523506498320035,-0.05480728841647383,0.03819273775795208,0.08348474975130436,0.17839918819402686,0.06467919298254651,-0.21295263197799968,0.05317280692350323,0.05053890920766974,0.5618630268810616,0.011876857044805483,0.07512361997306537,0.0054086372736779735,-0.0022322872010928627,0.011637438193948836,0.02199690515251189,-0.014994359502484253,0.025151375663659156,0.005618533889488609,-0.07588307479211215,-0.053165294284438676,-0.04066506583718614,0.11337584311196136
117.61564636230469,1.398406982421875,-0.02258342055198264,0.008394712656231885,0.012780647520803086,-0.01824699937425058,-0.017613676552676302,-0.05898452742665302,-0.05519678270032356,0.013704429758447644,0.014876421488680023,-0.05637142484281135,0.16590410208001016,0.18661574546829068,0.19774279713550263,0.0993123764747583,0.1342184369214427,0.17683379305534075,0.022533257553620928,-0.07282707956574233,-0.062261240479228,0.2371566711332636,0.26396321020599883,0.05930914017334984,0.24528142999215005,0.042841616228539214,0.5146404581821653,-0.097184100847386,0.17708933723860276,-0.08011696097431946,-0.4760038454574384,-0.6030663383457155,-0.18598223829767363,-0.44487963098157524,-0.5963915049221715,0.3161525258688161,0.10679828062516805,-0.017460046214262753,-0.25718501087964685,-0.0513277802402152,-0.2103156622327229,0.4495423405629723,-0.24558187970625633,0.44116677167415275,0.21295907979152934,0.10032303852740855,0.15154418064096334,-0.021566921241249377,-0.11544930052330632,-0.004010944887820837,-0.3812809088435447,0.08290293211574346,-0.040511192833284804,-0.04225505974441844,0.13802373042031582,0.0729619163928251,-0.04235142047024225,-0.03063214941697233,-0.041999084785772654,0.02896755186860869,0.09152127218746839,-0.06287731522036188,-0.05412227709866933,0.0023983765000076943,0.007522399164031485,0.05781245572321566,-0.0008535154015971579,-0.03446769020512971,-0.00812360906592055,0.03582870289355046,0.0023389949898976643,0.11087109002788391,0.04888149256801406,0.2089499671500021,-0.19976407848392433,-0.13317942079750897,0.25466737433815906,-0.738762839422578,-0.05425240125784235,0.5576946382646477,0.12872807273478368,-0.0722624319925668,0.3281696393067738,0.02673103128184895,0.0912151619396208,-0.05898713276099741,0.06295099463023118,0.036200448358057,0.03496226387350343,0.1321456421939758,0.010132777777080774,0.021966333426038577,-0.009890185340223782,-0.028725122126009247,-0.06708206505278605,0.01955216807072962,-0.010871885451783313,0.03831991998542476,-0.02206363131797673,-0.04869396840156605,0.0627552743187843,0.01002168124889758
119.01405334472656,1.447998046875,0.011678547626944653,0.07693632838329242,-0.1012053806936359,-0.045734847129674974,0.07500102815465107,0.0921407156060292,0.043531710585611685,-0.16097455843398045,-0.108880597110342,0.11216699868992111,0.05795587743019845,-0.20459760930214785,-0.13641741164307414,-0.0561145775656367,0.05556233354666828,0.05694406421739759,-0.1006217602647551,0.46830237073612213,-0.028326356251913546,0.012219970361400115,0.3634204241663785,-0.07407615797116544,0.008493681335161329,-0.30768731071452177,-0.21617513625890344,-0.012222997768590572,0.05418327366925724,0.10397410314340563,0.14725935270497556,0.46704619397386676,0.22304018885319515,0.046198563023633815,0.04391082449594343,0.12748942205692543,0.016222243580603254,-0.07693993169925772,0.06807086332732207,-0.2559083374157735,0.05247439177228459,0.30009303207364557,0.4123451477905472,-0.7743892727420081,-0.07127864091917048,-0.24702530935126685,-0.07752085568294179,-0.25803475280898436,0.11817748746666883,0.38023986439983376,-0.22306857288671733,-0.29878486657884373,0.31690561238436427,-0.018995593769036118,0.25105367065187706,0.06731665524527086,0.31684513031673783,0.13868781608098485,0.048027517339263824,-0.08943871401487437,0.10242496869771221,0.027408057483917975,0.06121244628632491,-0.04211046156964851,-0.0329993556855721,0.012711868821795038,-0.038223545667087425,0.006806643834260134,-0.02377605128972528,-0.01008139060672017,-0.01494761964343999,0.0512441373413397,0.0007031958631110585,0.07899172509815232,-0.16416830425005566,0.023228681791543224,-0.14042353813110203,-0.07310278893607705,-0.020672660984852972,0.06857534315009348,-0.13823472439046755,0.05219129734517643,0.257114097548064,0.08969745597623324,-0.180188048792375,0.0744172279387736,0.2281122972154948,0.07658280377934347,-0.15945785344030733,-0.1058462394705465,-0.06959955393353319,-0.026168565540847236,0.005312709839545491,0.06538267001780819,-0.03180736640431316,-0.06518736996596566,0.0008929440044754267,0.028597476617575533,0.008596209492946172,-0.025761079985314947,0.03423675157435543,0.03531187325521866
120.46205139160156,1.4086990356445312,0.04234467408713746,0.025234491531889634,-0.18421525725482027,0.02555273928377059,-0.0679928443804401,-0.09847200314756245,0.07116369674429401,0.0873212878486099,0.02672392665240141,0.04435120891859286,0.24461097490399877,0.0007643218559994502,-0.036147905351665524,0.2849104924477475,0.1380986470343789,0.140152593394259,0.19591365127478313,0.06192981613023557,0.14654313260068952,0.09406224227386696,-0.12043970116984064,0.005643926885671516,0.22620952257379,-0.06135521743192175,0.05073232468567815,0.24435072140629807,-0.02836319750638623,-0.0737190283967406,-0.09127081478125434,-0.04594432196044708,-0.14594402530400347,-0.18316448386918477,0.357614541901316,0.4409007037551641,-0.13356010737548474,0.04911358201243873,0.1112905812332875,0.2924357784165424,0.4534535914318557,-0.18799683731245423,-0.021072496806129278,-0.010179559238769342,0.030188336486632376,0.20563057590357614,-0.282845783373517,-0.2732338356534343,-0.10191081227901644,0.38496728106496464,0.14524036445020827,0.30151342203248305,0.027220257105522075,-0.19109981020708164,0.05201209090647106,-0.1624018947890135,0.0454882797098536,0.14201435834426354,0.21085592902750128,-0.0753073488001219,0.0993537645908346,-0.10583907645176786,0.040308739649205005,-0.029737733878156446,0.08718089210366402,0.015088648112150948,-0.007545317237860772,-0.01250141270260026,-0.03155190241353413,-0.024429114039906386,0.042113217192952294,-0.07643395657698468,-0.023223494823189444,0.003031439537251677,-0.005601969858230764,-0.03868811064030122,-0.02632070546268931,0.10887705941495986,0.1714583289237643,-0.0812545156223605,-0.08943134761207056,-0.21058119814075793,0.004684134770662034,-0.5477683045104712,0.07224395726423516,0.05887648327990304,0.13739250218506824,-0.028750574438184,0.19587761838555964,-0.101569047692467,0.10079429302265819,0.035920179314499895,-0.017388632550982653,0.02301195036681284,0.028071165007431283,-0.048430452424653124,-0.018557459114892802,0.03137542396979947,0.028015184331798795,0.05347873216223743,0.09762764142592086,0.15115888393514068
121.8707504272461,1.3983993530273438,0.011082301199721024,0.13843060996922396,-0.0956747912694893,-0.03178183374939164,-0.017883035870158152,-0.005298910394320587,0.14495834514469344,-0.03471275066137548,-0.030424706713238388,-0.05486705764350645,-0.0546677535760659,-0.017455564911171395,0.029014158450858238,-0.042987507269231895,-0.09922158847061928,0.1806620032972255,0.12942068694566355,0.08720846838161128,-0.17991239643230966,-0.0941486399777714,-0.15028957832749912,-0.018764359647468157,0.06275450099720037,0.28532947547714077,0.0018571847949464537,-0.06163271893777006,-0.23603566665039716,-0.17231365457588382,0.2298136864004956,-0.20497019221980017,-0.18597572241102517,-0.3233584294894102,0.22629207250535271,0.031082878295621785,0.27044795184791054,-0.16502314884958022,0.23483169403729062,0.4803063926379419,-0.14928168957388183,0.11627347096093564,0.07061006368191027,0.250308216274298,0.47503196005628034,0.16661439479154921,-0.2224831518368718,0.3616206970746545,0.0422108597405105,-0.1484412040531773,0.016325731513389535,0.048930119249965535,-0.17184611473797595,0.010590162066002107,-0.013489006724857436,-0.032715582636739717,-0.625195641393069,-0.1325973218691009,0.012145928695007968,-0.016907543898923436,-0.10048863028245508,0.03339368624149668,0.04404128422009635,0.02966453924602494,0.014569712924287584,-0.005909991675969568,0.05907406824060237,0.012221693219198762,0.0653895845015618,-0.049393871184893315,-0.02374116041008767,-0.016285326663176846,0.08854622829370677,0.001973632288158782,-0.043962532386029145,0.05562515352931247,-0.003283296631918226,-0.1097766249585351,-0.07770732057128017,0.005735566587027396,-0.13722893455502644,0.0013949405302424644,-0.2033718857210282,-0.11871872261864458,-0.09195013865714335,0.06297416703007341,0.12152619316251392,-0.07199061263850108,-0.012308956121694463,-0.0018686616572475246,0.0682405199052676,-0.0003859993767768091,-0.010897906469859397,0.01299999573012643,0.06688191329124782,0.12312454720074291,0.0625989749415595,-0.022433022569727817,-0.07429356474866071,-0.048482344743962624,-0.11777712745416981,-0.037916278766677664
123.26914978027344,1.318603515625,0.10897713637022632,-0.08687534526749498,0.005338075230680101,0.009881049988659197,0.02380738111649531,0.03498330549680556,-0.03937164067407254,-0.04942591739543012,-0.03476638486375029,0.011697798848453211,0.44634430359448174,0.009207373686261261,-0.004402530692459067,0.08417335781920278,-0.08105502318908572,0.0427194089554585,0.03235657206489283,-0.33808263139903294,-0.35944471407899786,-0.20011521506246005,-0.0009353114264205116,0.17411009445681924,-0.1848619526585642,-0.2264992324278574,0.0660449791016694,-0.03180016367550768,0.0430308137659834,-0.05504267215893166,-0.13015427710951816,-0.2094023644541153,0.11757854996985649,-0.04031530239837028,-0.33094895209596176,-0.27255729775827,-0.08778980326340423,-0.010910325329000657,0.11196809090944396,-0.0014070073823585494,-0.08080188662550618,0.4847127250611769,-0.024496849573500477,-0.2662030113246753,-0.12884577359999,-0.027028318781238625,-0.012352793197845865,0.16975071323486993,-0.03522780192900396,0.11970485464249059,0.09038973566360428,-0.33967959991788876,-0.04982747160833969,-0.19604829341994348,0.011408635521312827,0.08255541699864649,0.04786818964202014,0.04600494999519811,0.04817930009219937,0.10923638436255569,0.004146260960877696,-0.024552647085264098,0.07812999503791959,-0.01054471514626637,0.01013732478181529,-0.00708006004425709,0.044545747100464134,-0.043316795243040364,-0.001312738032320529,-0.0402498865951693,0.06889794400863139,0.04867812896957061,0.008202393218155177,-0.006912103815820744,0.06147576344772647,-0.01450680927533879,-0.02211822989298437,-0.31861925333987,0.05748480061330874,-0.02323693312365893,-0.3584179098213496,-0.3042538864008357,0.15205634696292047,0.238614375466372,0.038987098826096224,0.09485356243520683,-0.024160732449842875,0.018549971606853594,-0.09857306308484025,-0.047105361185185796,0.020895925727896468,-0.07798965783752897,-0.11810988435292055,0.0245839093851846,0.06417626700403029,0.11205651738006983,0.022494257504334616,0.0023654074670461933,-0.0065777903782167635,0.003277394243823397,-0.03611815340381435,-0.03088579218862511
128.5830535888672,1.448394775390625,-0.0009733925479057139,0.09228497769522293,-0.0011542842938205538,0.08486584333923554,-0.0672021491457219,0.039728565618734245,-0.018885854994085943,-0.22776893175398394,-0.01584321182864456,-0.3362674225014957,0.11903701787013107,-0.025525175445095652,0.2275919331191384,-0.25120947383459835,-0.26850693807040243,0.017909641036880516,0.10664091257539522,-0.00578928019757679,-0.17897060811101867,-0.23067828557493159,0.03112338437791448,-0.04250560538158439,-0.00995681186499021,0.061342821804835614,0.16524939432585245,0.006643387874522953,-0.11881186857847872,-0.7128046944081303,0.0762539688953912,0.2450244360284667,0.05136530393052263,-0.36093894224523787,0.16801520554241361,0.20650999088983793,0.09524381358737996,0.5577482214271574,0.013828799259464059,0.016063193916862062,-0.4725923317457512,0.2111277317147599,0.4013389669589032,-0.22574063196191452,-0.16770737532197638,0.17343343630094069,-0.024771327455037784,0.3384534936326565,0.23720059279114636,-0.022481925960100083,-0.010391039650051868,0.509285629267196,0.10220946319072566,0.22856308292389693,-0.2009151123022642,-0.32207983654864447,-0.024318753512731384,0.13224326292666427,-0.11066975395265388,-0.21194717200868307,-0.0632862765481424,-0.11242337880762188,0.03839835342824412,-0.09811440444510786,-0.34993945804479054,-0.09114481014180821,-0.03814761163673504,-0.05562932149672889,-0.008435680559172138,-0.010086504730956918,-0.0009630588195580194,0.005658476387233179,0.007697662546692187,0.03065422069722581,-0.019832058798830668,-0.04373102510495016,-0.0022232412427767934,-0.07741292467926701,0.07315095446780837,0.18667684946905388,0.18981997765156366,0.0946042280900254,0.07807607018463719,0.12961514395974527,0.5468339343993825,-0.030993741889501745,0.052453436643325024,-0.012338779287882136,0.016345934934970108,0.0010536394650099046,-0.030912730173734814,0.0004663728252931701,0.0033466567567176147,0.003097730614921113,-0.02220633987234992,0.0027680075160436534,-0.03661794330006157,0.036051830023985,-0.04468717075027211,-0.017421433449233654,0.06954976647831866,0.0855115809136659
130.0314483642578,1.368499755859375,0.08685075915706825,0.0006869072345862801,-8.701870730654722e-05,0.05602609715127594,0.0033831645033337173,-0.011678229892463348,-0.07290603575373886,-0.01768751560256527,-0.038501473184086046,0.04626492588380192,-0.016054930243904773,-0.010212266617737917,-0.005866682270875518,-0.05712567780219133,-0.04290171477755817,0.02603483460164481,-0.08091976797535468,0.17803247389062327,0.015939998712043796,-0.09930321447232535,-0.15456251635477294,0.03546912494077072,-0.18552223573851634,0.09656172707239516,0.058454816894552356,-0.08085367338272059,0.062438175227043084,-0.5594042131243796,-0.27615110307602153,0.20822684640571804,0.25257108174711795,-0.004034980559851048,-0.5801513205771363,-0.11628513786310841,-0.03250347288808211,0.18424891795910636,-0.21833321218270757,0.00164382150161968,-0.03120918112635229,0.3431148995554472,0.09214710651588574,-0.0382635764895059,-0.4272301532040267,-0.4253737531368318,-0.2894767548428048,0.12057906029285774,0.4314051285293744,0.010123806238138106,-0.12097388225214409,0.2625872542667988,0.27203183821000465,0.1627861281891494,0.13460735854970696,-0.051101164627714704,0.03884144005311426,0.1816686723815032,0.12084776643582353,-0.19202837979633844,0.05500264479163439,0.3673702448123745,-0.040699813792291484,0.07348172026819086,0.1459827801624728,0.010076027012140361,0.10646906721644893,-0.008263858680213482,0.12218693781081799,0.006436824851819382,0.056854780660061194,-0.02640626649293901,0.010386498155399198,-0.04853334079211834,0.03853138276445459,-0.04990577443043874,-0.0660740447008971,-0.014935721545070103,0.003482069964690253,0.025758455866904305,0.05582409278056865,0.1457209222911241,-0.03042268447022009,-0.02205024004827682,-0.029950299082856964,0.0056265079899387145,-0.1390936428196637,-0.08278067435138434,0.03748830501486663,0.00023534257776744395,-0.021142263736666736,0.06650627041579946,-0.0007413192691842161,0.014878069448368642,0.007039533858205672,-0.012181457542039914,-0.037003643851102615,-0.04821633761300079,0.027633214888531012,0.03614453279915987,0.0665054857592245,0.07881673205538477
131.3999481201172,1.338409423828125,0.08352787100446163,0.044132346630632334,0.011828637910338287,-0.06431975464618238,-0.004837537331941571,0.0420133891714266,0.0738246086095479,-0.022660565382980575,-0.04822764105611291,0.026464607747696198,-0.0863141187564822,0.04770569823264572,0.18286659722275347,-0.24604114498654575,-0.08566501446880717,-0.13647667295606736,0.0018204772134974376,-0.0928726023265607,-0.1197340472206336,-0.043836031301232425,-0.14860768823561615,-0.15281913528916663,0.1049281371935305,-0.0687100735495543,0.13636063755249073,0.0522430702644673,0.05405296418772212,0.012276668695257734,-0.17150664641168056,-0.1112517896951049,-0.16418923160426815,0.06817893329472341,-0.057706003784966334,-0.12984680849332342,0.414822225906397,0.7199494470811015,0.23526405201146558,-0.0006840987187287512,0.2400539738165643,-0.14346196141279124,0.0860324986657829,-0.02323664340823118,-0.14543701465394304,-0.3174156293612141,0.16198070191164166,0.07480285083182744,0.2488419107064136,-0.03261643054852063,-0.2325256341654353,0.415745337622674,-0.08259332016772188,-0.1755596413571212,-0.034229101903055274,-0.38028265035358444,-0.2915878627683028,0.05734545507104016,0.04763656540352988,-0.16922233477606147,0.017207736400386912,-0.2579052046215695,-0.03742029004953698,-0.08959389312629872,-0.23762808794732038,-0.1286116704976557,0.001097354850508941,0.04507648260467516,-0.02721444677707574,-0.055862862294353686,-0.0014593743311371024,-0.03918850515133422,0.022934968781599854,-0.05031737451175023,-0.024773850782907125,-0.0202015426856284,0.10681191102206522,-0.02404094516574097,0.07183014779556138,-0.026084689927750163,0.02226560422393995,-0.11348474651789964,0.06085520525149464,-0.5020902142659409,-0.013251032125479074,0.03100652683502532,-0.04118020951962255,0.04206130091757609,0.048848813751923015,0.029441132738710123,0.009802936212285104,0.00623800524459589,0.01178906411359992,0.008766940550856583,0.09516441645523747,0.01430033258986057,-0.007054387683153249,0.05495693699362738,0.006799979611167725,-0.0047148542106511745,-0.018806539417912813,-0.006057086644855321
132.7383575439453,1.3384857177734375,-0.0025932914573092228,-0.10583603169440448,-0.11875428074853223,-0.10672794186499186,-0.03435027857183787,-0.04561710109929578,-0.05216030280125906,0.047481910078308764,-0.013971967063626495,-0.15382616402427782,0.0320820648855794,0.02246263749699176,0.05857034452019885,-0.05560153478872676,0.09593484702182478,0.032911381445716384,0.18430011558474593,0.2087981131283433,-0.04258208241162231,-0.08952473239087821,-0.14246235061742346,0.15807810614064097,0.30052303755353343,0.0980192363888912,0.014895312124416433,-0.044279486537069944,0.2683532387055184,0.010911762415638168,-0.38180834985673995,0.2116701857905444,0.07883449980496608,0.015136570469125303,0.12736884280208982,0.0941611927273245,-0.19545772941018574,-0.08226874958524844,0.23710590589663083,-0.1827476914197248,0.26427957953272807,0.11315137370865655,0.07679638075309159,-0.08442508906368995,-0.11847729289259644,-0.07973618598040685,-0.33143385399716085,0.23280898673408412,0.24055108674585296,0.12449505806365094,0.2370430872914895,-0.07868055905453027,0.03710775795206761,0.4097389179567675,-0.011184852965354819,-0.2558556570804351,0.026466853138410438,-0.08263821353574136,-0.033497801594029764,0.11172320266283176,-0.07363401830349138,0.011905519998057376,-0.004722581735173209,0.12310955652411282,-0.08307150644386728,-0.010456920264163708,-0.025314243098693276,0.053169693622338476,-0.02456231863424031,-0.017157534679619404,0.09252206060512551,0.05635619948871004,-0.01693787823222989,0.009503457048899893,-0.12317280978768491,0.047993653192046626,0.05293398137826139,0.06676528834451391,-0.1546123616935888,-0.08215051982001842,-0.04472927473984759,-0.023292687127604926,0.01296979695989589,-0.33718574818139757,-0.1254482614240513,0.09060747174838456,0.0041386568569174295,-0.042710302007957515,-0.005373244427329116,0.02782129893037104,-0.0010873971262205647,-0.030258551007581357,0.015963143962685677,0.02387620686889832,-0.014313064348277584,0.0599171994266275,0.1000879470016306,0.05722101263595171,-0.021504248017365946,-0.057844795599311404,-0.0856147281730995,-0.009531461324598763
134.07684326171875,1.3485107421875,-0.0007270097784462318,-0.055975713187921106,0.1078196009616958,0.04697271796991265,-0.052065984173449216,-0.01074856056430204,0.1759721301964388,0.020615468755985314,0.01001644212641456,-0.11027776016857584,0.12694088175062662,0.21536969015864937,0.16551178101037733,-0.03488851009755668,-0.058653381682749896,0.07193857947554223,0.05116012617251064,0.11146347166220322,-0.028437392029308547,-0.20555006428060874,0.10294533851280173,0.09088248142657504,0.04324902078868628,-0.007130117602425851,0.009814636744243141,-0.3149737812634447,0.058676912359586525,0.04040793227970613,0.17668979386862294,0.4270510542137439,0.0018154065475040476,-0.2726713341093589,-0.1256715785155429,0.2358620542225844,0.2701916471160487,-0.0969239846054577,0.26463677725731927,0.4429148257961366,0.3634592209280944,0.1816781230625118,-0.41947881400160264,0.1517501827415196,-0.41080830924660605,-0.5684416368996593,-0.20878091831407225,0.5231687057498543,0.27389445212719826,-0.04138896030571813,-0.12396631981235415,-0.17415320081738989,-0.09902451635401441,0.16227891477420586,-0.1994897719278544,-0.13837819141489324,-0.0657168628253708,0.24151122927105317,-0.04625745615370545,0.15160788003655745,0.02986907833875763,-0.01580165424632411,0.032734384088094697,-0.0006267734971619593,-0.011126658912967775,0.03365752056869534,-0.005108991517027632,0.01207364702202582,-0.0012329775590545766,0.002092939063904352,-0.02445727232119732,-0.005142701370978554,-0.06204002756370626,0.0372494230516657,-0.006564180813484357,-0.00028808024436617337,0.059996449546561394,0.14356754914546488,-0.12743304588176982,-0.05199260509025247,-0.07061291025770126,0.020970474814702173,-0.35178641690443635,-0.3019285177306968,-0.08092055174880887,0.1190191177668443,-0.2006036699136442,-0.15621580085963047,-0.252092475746299,0.1548046392800106,-0.0842378890094297,-0.114111415947647,-0.0063457480018863895,-0.0003817334713496325,-0.020066141720819646,-0.005870271641931852,-0.02075172155189882,0.024913207417770398,-0.014930022538053814,-0.06569551082433758,0.0626201443019797,-0.04567713979066303
135.42535400390625,1.61810302734375,-0.03669364266025671,-0.013718644374197349,-0.046198601524812075,-0.10141984751825639,-0.02286419281343094,-0.07009617490273984,-0.032918209045352156,0.10173726110550406,-0.005080658459438966,0.022196129429872587,0.06804602240264489,0.08763669390662765,0.2353669711932958,-0.04678675782928317,-0.0005948468917911906,0.08673725400825302,0.2701880686000103,-0.0008428389963210797,0.06605036955039514,-0.07035135883354499,0.2363989467394242,-0.05653929727918699,0.08223582929879578,-0.25218259973907137,-0.09945492952569024,-0.2698336353294358,-0.014886782976040925,-0.19080139783178013,0.1931670090410192,0.032936516745370424,-0.0313286294020548,-0.15338530581026577,0.030823812640005412,-0.07301351792189276,-0.37773116110886357,-0.0483122460930037,0.030409422331901845,-0.144363104748906,0.10889351792690248,0.451962626902066,0.4197870778433035,0.006430301540804597,-0.10263291876409285,-0.017316464201295678,0.02546293986327121,0.016554985527906706,0.31177540126163955,0.5999903555819441,-0.29588475516666884,-0.19725724299487463,-0.17650483807909428,0.08740608065329675,-0.1554143477639956,-0.0576461671843046,-0.015672607286969,0.019050887990639698,-0.04667050577498569,0.007291623038951835,-0.009276926387065822,-7.187369024408489e-05,0.006755460320147848,-0.010694139603493101,-0.0003924008892218119,-0.022081454692357318,-0.08021092890869806,-0.027279977422542075,-0.010356368470962518,0.022965329386116753,-0.05186569889798923,-0.0013499910896150704,-0.038089818620371446,-0.04277236724641097,-0.015221349490927148,0.05809676890541258,-0.08101970295164689,-0.04092459186154722,0.06639985426804652,0.1052784661762688,-0.07972865322917533,0.1408847076346155,0.3339964164158591,-0.13486881597982567,-0.03350499927645767,0.029642719784189843,0.05386010282214401,-0.19965296517745718,0.05211920279850406,0.25336512679108913,-0.03762449762180687,-0.023110182287084932,-0.04519570101425621,0.06912240014309946,-0.030486248556506855,0.05186103842279814,0.024614515262754273,-0.0001243776947629574,0.03767444937813285,0.013975717979233996,-0.1044830660340306,0.17672751888491178
140.02964782714844,1.358795166015625,-0.007045905717554431,-0.03017258605262981,-0.0016603151130046324,-0.05172871594882549,0.010292112646480892,0.008655141451157308,0.051577332159246016,0.04901773824764622,-0.026427750260110783,0.0847245437327969,0.2680909714355699,-0.04882447965301845,-0.10325459438617887,0.19926258998531524,0.109825363101188,-0.345156580563932,-0.07986162443614223,0.09772641769635279,0.08966518120136945,-1.1165003110698977,0.003204207471732473,0.005919940623104917,-0.020645167923711277,0.0011903154369931057,-0.06315646857732711,-0.1884071765529728,-0.5636983438162799,0.030037715786359036,-0.05817709156545739,0.12409535001566922,0.059054851794750535,0.3812688828192391,-0.07752009997742523,-0.37544454989047327,0.06005444991700393,0.2034574480745943,0.5053767783997138,-0.3677404589958506,0.17262430112582655,0.04044361657608194,-0.35555227853865057,-0.030493401199671546,0.026497570372410302,-0.04033195560921994,0.23504726902977102,0.11500938222824157,0.49949211614091826,0.205512727537967,-0.3481870712973853,-0.0954409934355315,-0.25998394966536,-0.23961184856338968,-0.06020002908938768,-0.3286462967013482,0.07083886556143065,0.1768475700503196,-0.2716495806656063,0.11883633549192055,0.2928825264359274,0.08677361042344311,0.06575521032603635,0.030313692427905704,-0.03586886223525457,-0.055804178123982195,-0.013193250826546267,0.08849345934351832,0.004213804347652275,0.012912458270598504,-0.0639259196895399,-0.023700217321586017,0.05423639898706137,0.036375557355415956,0.0044450034361350945,0.07149622314099453,-0.024950668440647635,-0.09493397760192807,0.03952620662377622,-0.09582096582868213,-0.16049828166134109,-0.16113116334919378,-0.47195699939789554,-0.13635878398543042,0.1875828155889878,-0.18262079743156112,0.09017270203824533,0.0020479982030140523,-0.07027254880470188,0.0006487240836702125,0.006078413802491426,0.022274522837076136,0.017683818238887757,0.03507939025046212,0.34542530652829595,-0.0389368057005174,-0.00142009494760173,0.03874766678516089,0.032968007112482635,0.007994838391607376,0.054674558447758564,0.05460397746328619
141.38844299316406,1.318603515625,0.05633612883583219,0.05443436424515831,-0.08535222116353003,-0.01951233510666474,-0.030998722877150366,-0.03664764425517386,0.012559197658736483,-0.023241165385918736,0.014398033979014985,-0.02485609701261742,-0.11040792636243076,0.13449623470712746,0.04256517268514945,-0.024131005097526505,-0.16719725927603826,-0.04669489943185816,0.15658849262596009,-0.04056860588584364,0.016359763302459092,0.01117204723763146,-0.11743401656322802,0.013634764109813449,-0.38023488579625925,-0.16073588845610573,-0.38953683304681097,-0.10826795428552224,0.030095859002805495,-0.07544582569510838,0.31779615517952375,-0.07210568266597706,0.06538300684592055,-0.09849580687249229,-0.009746142808994135,-0.023967148569356073,0.22581077130073474,-0.2832677959340222,-0.013486007891543828,0.0024436310509576105,-0.010911654764078266,0.28399394704095804,0.14894054886811586,0.2808583864972466,-0.2345185732130883,0.13548752030899472,0.16590768127578295,-0.35070741598516997,-0.28632609939074016,0.5946294138366335,0.23060409516530236,0.5289647408363083,0.068889645148521,-0.15858210171147466,-0.1530627725951606,-0.11134489667162867,0.18398395365950904,0.03983914647609864,-0.11658537293071819,-0.20145115195191793,-0.13431357468967137,-0.43156420020966885,-0.15328951889247486,0.20960327390232147,0.10812004580190612,-0.1984633978482311,-0.06296815284182983,-0.003843981693437578,0.0004307332070216794,0.012236281458556094,0.04620401039445871,0.07282813685457809,0.030972249183790913,0.06479926060649902,-0.03405716163195171,-0.021093248312680106,0.07177909148316368,0.11909022774574064,0.06385026994294718,-0.029692810791320513,-0.12122021985988451,-0.13975735454013075,0.1965470147455958,-0.10486757275793007,0.03393817227562307,0.11202285613402026,-0.07056202467849683,0.014957146234767765,-0.057430184244676184,-0.0019130719972674493,0.1674661851274314,-0.0050256241574827415,-0.006459095545174845,0.02002206739151003,-0.05866886467693601,-0.17722421742234226,0.0539443877195892,0.062493047442063965,0.00999272256076705,0.045897016539191635,0.0046904451801436774,-0.016198154002178215
