start,duration,0,1,2,3,4,5,6,7,8,9,10,11,12,13,14,15,16,17,18,19,20,21,22,23,24,25,26,27,28,29,30,31,32,33,34,35,36,37,38,39,40,41,42,43,44,45,46,47,48,49,50,51,52,53,54,55,56,57,58,59,60,61,62,63,64,65,66,67,68,69,70,71,72,73,74,75,76,77,78,79,80,81,82,83,84,85,86,87,88,89,90,91,92,93,94,95,96,97,98,99
116.50554656982422,1.738006591796875,0.07581288971005891,0.02337187396049948,0.01395357947557243,0.16354668747690418,-0.0843070018644114,-0.0352654668775896,0.03947346925219647,-0.028992243870972437,-0.10551419817087558,-0.0580206365211622,0.015137836864761509,0.10963198520161578,0.04452747586357431,-0.05943963906007707,0.05566582500564986,-0.06178497462043403,0.06368263705594354,0.07927739194884711,0.00977363167452699,-0.0068320363331749595,0.030885801713446223,-0.01229336348167204,-0.11439959500153037,-0.07835798832475445,-0.020720005925003046,0.06984753519776761,-0.2710473959908321,-0.25926971386735476,0.09895259949267612,-0.09791771477786254,0.10566269561239998,-0.023569258784967607,-0.17896247239920926,-0.3166540001121232,0.09355895088638705,-0.05523643051797744,-0.3757757804920652,0.0010015934361599088,0.08580594017345966,0.19430749864083718,-0.10554681790388715,-0.11590196123364539,0.08028701259002685,0.13598867854341934,0.5397269655844258,0.09669904011575435,0.16024996834491156,-0.743073156167109,-0.20865820991590592,0.05309777574309758,-0.07046439015942245,0.19444414496409976,-0.027655411515581565,-0.030726391832548397,-0.057836513035687945,-0.027577576504660986,-0.044720106447497715,0.011403014912985747,-0.05143378934408127,-0.004508307458751935,0.0017056781208116332,0.04380896134921243,-0.0006169534729256673,0.023986258256897618,-0.05854736157321032,-0.03914893307588433,-0.09031578175551051,-0.0737275500350913,0.0193913491914717,0.024556700876569137,0.01751429509958427,-0.13312983354222213,-0.11847607582849713,-0.06991446955767322,-0.045259935078609405,-0.08929750670709469,0.08668645561025533,0.03316243223646498,0.04175972108205359,0.026337416407408252,0.04067217535032999,0.098316363528323,-0.00033527165073304443,0.005270509875892112,0.02786392763319864,0.058843300892064396,-0.005319622244299996,0.04820284642649968,-0.04251095024905005,-0.039642432109672686,0.018409470139984858,-0.03720919382157296,-0.03309604942260745,-0.060486050046820776,0.010419343173463757,0.03132077320302973,-0.05874882697967713,-0.0028427458648614175,0.0461441220136825,-0.03890705188829931
118.2435531616211,1.837493896484375,-0.034153506522940316,-0.014214158687360921,-0.023612449405067258,-0.051382187056729096,-0.13476253020960782,-0.004232901748703766,0.060866871446071634,0.06495731359225115,0.058117822981897944,-0.09567929649223891,-0.024088209817509892,0.057621314361921944,-0.07356955419967137,-2.906986903891684e-05,-0.04448034351926519,-0.01987425235511803,0.11542723391717885,0.05967656321140721,0.020327267896223057,0.04928958534657178,-0.06028600937075282,-0.0028492113944946496,0.0023658881744723914,0.030999076087601732,0.20137004065289113,-0.13471926597391565,0.0439930337049316,-0.13849069175818712,-0.0201246980769985,-0.049916724910807335,0.004781761840237753,0.004970263335527251,0.04706019172625443,-0.14072449248560603,0.11428904551822469,-0.07002671322203957,0.11947148189268589,0.012231805194137673,-0.15030739599923582,0.49003411675924835,-0.28009565569754474,-0.20300505439813774,0.06666835140223044,0.35424536463260525,-0.033788704948797134,0.485372533514643,-0.28116555345443195,-0.2267920861049375,-0.0023383168523257447,0.025980410543210278,-0.14339598213168592,-0.13920651572760193,-0.07281524235885899,-0.1604686052844615,0.07513188355297826,-0.07276339063167823,0.0729107917404803,0.07786460051203556,-0.06996870623894175,-0.17526395493844013,-0.061233489481767614,-0.014517311106393893,-0.00410356559089835,-0.024992307754902427,0.0012885346083713898,-0.0073988741353145804,-0.01831753448873695,-0.1368213560086638,-0.05887905780874592,0.01255552259483219,-0.010330156724731572,0.08971034489252244,0.07399491869740872,0.06449416945574807,0.09614440978099044,0.009558158341413645,-0.029578263535920957,0.05018787255113259,0.04855662563843489,0.04644159989254236,0.048014155237883195,-0.045448663682987646,0.026731638000677474,0.04841531761887849,-0.0794632105134828,0.04603226129377681,-0.013819895985520397,0.007246607629806185,0.03199491789657677,0.038701364506755306,-0.06617229740900224,-0.16038492888179806,-0.003179171417344035,0.1437467932705916,-0.02361602253839687,0.006092516289395362,0.00011464625342784071,-0.040693947784332545,0.01430941515919919,0.06897159907927342
120.08104705810547,1.908599853515625,-0.059874865704386944,-0.06688851920219879,0.044221750895349805,-0.04238475889213218,0.00404333264742697,-0.05406410870282255,-0.07148770068608434,-0.000995286083694407,0.026662061286001223,0.05827837056145758,0.07631802658315756,0.12842406884267332,0.14923851599462729,0.03287442215097561,-0.015380548106687458,-0.022377559629605255,-0.07226187070585996,0.04095493030219384,-0.05477223071691348,-0.0635903370460291,-0.09869018200895827,0.09504855605111334,-0.1625900458936169,0.18009673863497258,0.27598451370955795,0.18022443324832965,0.040704675498970555,-0.06267486133477014,0.03436339809603512,-0.02853893314424045,0.08050376750934188,-0.003064789089718356,0.0030620560766212446,-0.13587741332838302,-0.09642771643236611,0.14552513515969615,-0.11261676586133826,0.0296773279899257,0.012207317709510543,0.1876178267191302,-0.1347648962451097,-0.1938008108560067,0.08208288267045502,0.05619036960365112,0.036111851988787774,0.12911333105806547,-0.2836269145324197,0.07138683213039447,0.05362714653778722,0.19943674451174845,0.16757903140794667,-0.0677958233434222,-0.03829077625564484,0.040392373832441306,-0.3916115634538536,-0.03944240891128554,0.13859953292095795,0.18585004898754817,0.05425881347110412,-0.11381824051896608,-0.07519925853152028,-0.0040104278909465964,0.011476055231853868,0.0006801951456297313,0.015109413068982502,0.05471233378725706,0.13328733317119118,-0.0707905858698912,0.03936120590446162,-0.1236923964610127,0.01463444765532372,-0.00619860963010347,0.007818499381079726,0.00040776908474126836,0.12895730027809255,0.028120354898009167,-0.030525780069036876,0.034162176082260645,0.024648434239119683,-0.10262668901620664,-0.08563885516942794,-0.06199531115366597,0.10026351346988556,0.07626161487088116,0.05720568136926972,-0.040035493317907636,0.007268029420097963,0.004601166622463916,0.08346415909060435,-0.1256251189164166,-0.06106371215663289,-0.039477821989268094,-0.07893579317723315,-0.029372277480923192,-0.06076143720656173,0.006233916971638012,0.022174329549176384,-0.029949582021913862,0.04355594446512094,0.030603819606603036
121.9896469116211,1.8879013061523438,0.16546793577105343,0.028500315420590575,-0.06449216928615001,0.10172413732112566,0.02442898475211578,0.06950414234720627,-0.058813402329635965,-0.05461339515189273,-0.03329116288978738,-0.016032649049100272,0.043867570948484765,0.036133223820513594,0.07466441105476239,-0.01061667032245069,-0.019337731268362694,-0.0504466883559987,-0.017303378748143694,-0.06700183388156394,-0.07801979154700514,0.005886710628043676,-0.006786497457444516,-0.07174535432541358,-0.004353348756700279,-0.0012211531531766892,0.2314780158138805,-0.0135375489558619,0.014124267561806,-0.12353909423235464,-0.08845981515904221,-0.03341168442460565,0.08127932674889204,0.03453252753424301,-0.16925466942962464,-0.14090152214752075,-0.04618511629755444,-0.05683476043099053,-0.0719814998616198,-0.20878419650944166,0.2885819840763945,-0.1771345031376306,0.11036402641481884,0.062421245668674546,-0.0527012847424244,0.05164938033320099,-0.01723339459630576,-0.001459648778512082,-0.12053511587266466,-0.0008286758241353481,0.34095076302851557,-0.35082582475107194,0.08801512747933977,-0.3053514105552426,-0.4162134324981719,0.3607435741255397,0.20071519507704408,0.14300113317076657,-0.16357039145029809,0.1951314781033902,-0.12857759309634761,0.3496002431269195,0.07018993599614232,0.010246897545615186,-0.0042619205847333865,-0.03648966199672175,-0.06574070458283642,0.0065651113444859625,-0.03529047249775944,0.007434926967661532,-0.08274521416721214,0.04633079054448232,-0.01438364145905791,-0.03486635341107939,-0.15193128918401072,-0.07020246262727146,0.11801024442190601,0.10867985649881085,-0.13083100325171546,0.02626302449662333,-0.005178767076737889,-0.024381953241684733,0.06839407244751394,-0.14450396670515897,-0.04606103194555705,-0.02334434270043945,0.05454523637372394,-0.00953940023491887,0.01560692481767826,-0.09040695364639853,0.04255997437933705,-0.05234555344882825,-0.05672399527030912,0.03590955253938199,-0.013737729003328467,-0.014752502214953238,0.013866411174054379,-0.004947785698179397,0.0016217493932513957,-0.011106310843607902,-0.019866607797048325,0.03313282939796386
123.87754821777344,1.9178009033203125,0.015427582814595525,0.004296938669111883,-0.1385656537097205,-0.03361807818091752,0.1676568011632482,-0.05835920852634551,0.059360881934963514,-0.01916516120886536,-0.0459324992835566,0.005636517262421468,-0.020047709591144523,-0.028851572921086116,-0.11624667293911292,-0.1766126690831966,0.03890440505657983,-0.0222978939203144,0.12544063154715826,-0.06251247738994771,-0.3207271592745172,0.08752462784750434,0.061048864841945785,0.04245975169149351,0.05554377625715284,-0.014127577194762986,0.08687972606534614,0.05713973291432639,-0.016070696734369155,0.011114350547719575,0.09809401761194574,-0.01700124352585261,0.10064187810044306,-0.15393627709079097,-0.01367911365221349,-0.012059354116094337,0.08097080197845376,-0.11935223248584294,0.042163700776903824,-0.16136961962630117,0.18213040494955407,-0.10500243022667584,0.25626467749696874,0.22777236134150206,0.3434794098697821,0.4104135771919331,0.2425089988437447,-0.38171662484687263,0.282230103547633,0.12379676138913935,0.18003652825658778,-0.08360440160805657,-0.35117365190555155,-0.8179982173869006,-0.42157358207095785,0.2030856946187146,0.550357824261058,0.14494750216166336,0.08029832758867193,0.0398783200339696,-0.069297790414151,0.12033990375259586,0.03679098695717293,0.1859641672733913,-0.016503155604069227,-0.0904814075091733,0.0002970525280039795,0.021528982310623265,-0.004065503470631061,-0.04861598470010281,-0.020313097018663406,-0.17267643553785134,0.07734760719991472,0.030565220765861288,0.08552836995606465,0.0025091806010958907,0.008038771665107886,0.040701626903043034,-0.11921074037669212,0.002498367162985675,-0.009644421425935254,-0.1364719220751183,0.02603314231420327,0.010795651889470554,-0.05027430492548737,0.02664442387598962,-0.057492619044973346,-0.10722055493674719,-0.00041945937493286997,-0.026790664271318695,9.647042881887677e-05,0.01151234612415643,0.06700020845822896,0.02531447410836607,-0.018444490606038852,-0.017601338948286464,0.08118129004435451,0.139314753722538,-0.024768852440643085,-0.08930838034329311,-0.08893466802151209,-0.05383525765674153
125.79534912109375,1.8976974487304688,0.09599886796879217,-0.051063786930769156,-0.041039538426350705,0.04691049306477087,0.07538404400319733,0.012715110661057169,-0.1074247408894675,0.014875396876304573,0.04139900219324566,0.08986993509709608,0.0006976383302576862,0.06855108444127998,-0.06672759722747994,0.07475431174000423,-0.03121394636307237,-0.008515685541049997,0.08045439550293565,-0.11786986668526997,-0.04267153061640233,0.12778079757318886,0.04185921266571324,-0.04244785581936173,0.14690107016683995,0.058463690397056386,0.04875523060227509,0.03734697649628462,-0.054919113609192674,-0.12784044888554602,-0.018446354921859552,0.06740870881380552,-0.04171166121594591,0.03010674783793751,0.13192974971203186,-0.1577518517363803,-0.11399614725432475,0.03856210639122713,0.030155335249157995,-0.11724255065653585,-0.06405138425892214,0.032154965378987946,-0.3002749899302533,0.5154671953724173,0.11960975166313355,0.1165398273046732,-0.12321522195789211,0.34789792633934513,-0.09455768633723531,-0.7316165484542003,-0.3725213871935753,0.1406746954642275,0.3374169025234017,-0.4141224679983892,0.47550597873742984,0.2989882462750426,0.20023810202661657,-0.250845652716607,-0.054663342554454646,0.043565156141047286,-0.16098286860109706,0.014739878752872887,0.01659116403509677,-0.05602050941664564,-0.02427223689524522,0.11009425569101411,0.00198330326956783,0.005670356226295872,0.0011532648531369818,0.012280476560615664,0.09248581827978228,0.014756121911253101,-0.023534684646200642,-0.006458530829689003,-0.011622196636511067,0.04511826948537477,-0.04012008039937376,0.1465787224567923,-0.07078703467769201,-0.003027271958610656,0.15370556078021114,-0.04289029872131474,-0.15269606388617263,-0.043646344612669946,-0.00866964465152166,-0.07084168150522345,-0.02765640611315444,-0.02546329369227643,-0.021337615498017985,-0.0008721912574427229,-0.0476123709129878,0.06852468198779196,0.027412383896068624,0.05428903921881801,-0.05085788545567489,-0.058182009980989435,0.053265254693578235,-0.02212365857167018,0.030255562799238293,0.10618918772169146,0.017943150517474672,-0.053681590826352335
127.69304656982422,1.7280960083007812,-0.05288236328564628,-0.05026350543933493,-0.062036239333189316,0.06834668537254646,-0.034408115691592175,0.05751057241770369,-0.06556347768473209,0.06888558072799494,0.10770530383613043,-0.1817311788597482,-0.07144012980022695,0.07407012386765145,0.06625656288432583,0.036016733300365686,0.1090073245392358,0.10075670953563574,0.16348923135527504,-0.024110597233576496,-0.03383901238773822,0.060485514301144946,-0.020627906125305157,0.006383610702350626,0.029329625754568957,0.03807907397995138,0.010213409196167346,-0.0007573393494288646,-0.00142558682403698,0.007897965554953878,-0.13152789716659263,0.007079401321345691,0.006793823828692781,-6.977116194208446e-05,0.0016709469721280512,-0.022563957516967492,0.09128144876015327,0.04068422552353975,-0.20085182724137093,0.14217696627446946,0.010749691511990577,-0.2188117295422837,-0.14282948049020233,-0.13114900198758817,-0.11544179434716262,-0.1617615331587104,0.11430439763571239,0.14126888971838894,0.1182611418512452,0.05250585468140315,0.00873559384200791,-0.3232581818327854,-0.22885415951095248,0.11698904095924365,0.07636535156008709,0.020829751653702048,-0.2754807460648217,-0.05962876021478752,-0.05449271717201201,0.21849533111551747,-0.24046829347927678,-0.6156210622776784,0.06756374544150145,-0.029889076926043773,0.05665268529968539,-3.3369678247314105e-05,-0.017281568917916046,0.03147905903005469,-0.12525251118909692,0.036520996337964115,0.0444869973594616,0.021910585921202923,0.07624974049830407,-0.07681861243931692,0.07576197890235896,-0.06531605478521106,0.07727392940858054,-0.00448009622511197,0.06606708551665952,-0.03617266579138211,-0.03509495098209282,0.13588435368014187,0.022530840996217702,3.351158927401843e-05,0.037537175341290155,0.08955849262111867,-0.014848963380163166,-0.06579199259707906,-0.08842031214402454,-0.05039486333090938,0.006509708932558267,0.056075345604254145,0.0325794366782627,0.0029973745904240184,0.04841056939077136,0.0953788123231097,-0.17909845579026373,-0.026058045374331207,-0.08344595971420593,-0.03894866515032361,-0.06592582211820523,0.01652731181619005
129.421142578125,1.728302001953125,-0.14365938647655435,-0.14270045916901086,-0.038732805740486584,-0.055948683930624535,-0.11289289019012469,0.05305812281138821,-0.04375546402356291,0.04246601456728992,-0.028269087634460944,0.041688846849594105,0.0017005329763207615,0.0287893154845439,-0.10537829982677913,-0.20159915932133074,0.03148425314576193,-0.03012364256384722,0.1237315948702103,0.03930837197078363,0.05131475537007991,0.029760915522044046,-0.027187783471056798,0.016713951792642928,0.06312074720196661,0.03528587471311029,-0.15287843903376047,-0.09719747662475837,-0.14300784489053428,-0.19502508240695823,-0.01162914792241393,0.06800352708705655,0.0944722006162521,0.16191317613953982,0.07503468687074107,0.22611696953044777,-0.018781055495105257,0.015537932506118634,-0.00022485370921183911,0.17663997320127872,-0.13207118264931864,-0.03121795008807329,0.3175252402942558,0.09041313667139977,-0.19919409395342652,-0.34443029333744446,0.12920361252334397,-0.14449480798565614,-0.18326641528945897,0.23816284455318637,-0.2615651984490261,-0.1082003907640416,-0.0016622588689477469,0.18676378339858282,-0.03434627604981863,0.0168297699665822,-0.09490240855330578,-0.1084219858708862,0.08131996902111703,-0.09631026560981473,-0.34027803472083346,0.0019318658810957134,-0.06884785001438265,0.02650533523715648,0.017796304606092408,0.0026404317347597252,0.02631754361622792,-0.0009445238701353345,0.0045545485470135805,0.07510960826518022,-0.026077175915488752,-0.1303650063876797,-0.13642584132279087,0.04893374066418131,-0.10835813550495614,0.025120216686551147,0.24329223058319088,0.05212306958481526,-0.14262464288817447,-0.029270761257786902,-0.005660479421988656,-0.09489939919991057,-0.05795301060211014,-0.003688970512612175,-0.0014899098891424998,-0.00010362295391463003,0.0042479020586838525,0.04405239978595899,-0.007024437691130966,0.061441654990264924,0.04878119909194902,0.07004398635540618,0.013570026407414943,-0.023114935396424445,0.14101401714669212,0.01206625401907454,-0.0402667930313509,0.12656582881323847,-0.0024710357359595918,0.12388810063641131,-0.08253062934669378,-0.03750501048771773
136.1239471435547,1.7178955078125,0.1027509133912315,0.11400167777280348,0.0835096719269949,-0.00551426880799455,0.10209115386235473,0.19631722230287146,-0.04707514963562308,-0.013920180508214766,-0.28606305210271576,-0.12961634152805135,-0.11362290782103185,-0.04235200166149483,0.042116846432945776,-0.021000520769961797,0.06497464849956472,-0.10823543570320589,-0.010246330008735437,0.017052587111626813,-0.1105625430397391,0.008583799739078685,-0.05050557979380869,-0.006971853078193699,-0.013405994605074627,-0.13124399837197198,0.02873481717520118,-0.02704155276806504,0.15284507269426897,0.16425033452111243,0.03845407153969444,0.014898052688739123,-0.06281142744270225,-0.116454424902741,-0.09677525953510309,-0.06011112995501893,-0.49249769131244847,0.1400429076368293,-0.07599315158838468,-0.27368502000929684,0.10236427928367066,0.04060394750432528,-0.08113245383537286,0.19688848150301613,0.29022533694187613,0.5681553167800182,-0.30808482813753557,-0.2226112804210616,0.18516452862044078,-0.021747484070761096,0.3280771919859465,0.269617144134839,-0.17132930985691458,0.5351870967763095,-0.06273403601364916,0.12016095235903712,-0.5297533832885803,0.6331371556625426,0.12409482126557432,0.06867472350881026,0.06421686343247646,0.328210759913262,0.13405158906067524,0.2887204051130067,-0.05297434749686349,-0.07962254944138365,-0.040357215119909175,0.013690551909983018,0.00531424568479902,0.0008836814771411787,0.0006282991191664857,-0.005520409600327986,0.11309541893785455,0.04006832419754389,-0.042421581733805065,0.061777153542552095,0.044503830611221054,0.06876145626583807,-0.03173488458944022,0.02327461685011529,0.03311403990654771,-0.016360930955595272,0.003942855164358634,-0.10154417515589943,0.09776579149572495,-0.06975168229374641,0.014197111450358827,-0.051611469286243605,0.0032560107832357195,-0.11207958073408014,-0.031928051717001374,-0.010702018330957484,0.1323945089090663,-0.028928161157265445,0.002023893778888082,0.02075683687278559,0.017406264175460914,-0.05170434551837771,-0.01849616049884519,-0.09804102481632586,-0.12758581127318475,-0.12207736994631234
137.8418426513672,1.8082122802734375,-0.13217908649302085,-0.14051764962377863,-0.018654299531536286,-0.18036762399373313,0.03910300261179071,0.123557058125782,0.10682057254514304,0.0022651162684557287,0.17288513726343593,-0.09734778492074952,-0.03758480280517625,-0.0716899204771151,-0.03227156511949799,-0.22289344240098016,-0.07088134594826749,-0.00796547037627203,0.02330773227642614,-0.02384905549768468,-0.1364371797918662,0.0009163271008219784,0.20130799827199597,-0.023528471021469446,0.02804183649821262,0.09683486385846643,-0.07205492395246849,0.05535241777944716,-0.04731027027999829,0.07043489462165858,0.12638746904015588,0.053084491445376226,0.1647356006638967,-0.265957591258702,-0.009134614272533396,0.3199577662568309,0.030200809831544616,0.08176395410216421,0.0282625954470434,-0.07536500591934829,0.10420185291610047,-0.2658619923706196,-0.14637656532376558,-0.3754129073848884,0.2709335791697529,0.10048405383899903,-0.24965630852528473,0.31438365249938116,0.2358420780732936,-0.09839641455266172,0.01566817869945039,-0.045130250483746075,0.10725892096189012,0.16466382948199404,-0.19459391831003178,-0.1179628652633072,-0.26435889214810326,0.027280766608849136,-0.03412985435863501,-0.09570700132188796,-0.006308071676387998,-0.06826523698910582,0.011627733102984483,0.0015158882805877804,-0.032714089932273545,-0.02374295444335308,0.09468336623925601,0.0016299780834362798,-0.003926325356550743,-0.04329081479316991,-0.0174355442085245,-0.03067722406466178,-0.13920361889887414,0.03516744738399572,-0.0617297198717578,-0.11108607960456718,-0.049283755265106574,0.1763458760949354,0.019140738766125327,0.031852690700947914,-0.04467959874685774,-0.010832365798168122,0.12264432933360678,0.002534325211638215,-0.0118879854011913,0.0008083720730853544,-0.011639783319913069,-0.020695538857343737,-0.0740686888545744,0.027932337956200235,-0.04953369196279363,0.006247738716132246,0.01616091859473569,0.004361498863465962,0.11495069933224444,-0.06656090717725648,0.020313425492449536,-0.005141548035709411,-0.02600365852362006,0.06511714956681568,-0.06174306489379782,0.031349253473114916
139.65005493164062,1.8079986572265625,0.03441462298098251,0.015294579485966794,0.1136778413440086,-0.05975566156284816,0.08172716735979371,-0.033438119803407544,0.012210800291709116,0.011799638672787764,-0.021823729244010423,-0.01821939449825652,-0.07047385959597421,0.08182340991464859,-0.04042722251895151,-0.007228749786033633,0.023375923377018958,0.04487449673945591,-0.015275649228381339,0.14041831712596647,0.06254281001176204,-0.0058083321978391255,-0.05689007012273668,0.005500587648360646,0.06000548964048851,-0.07338904214625612,0.019362259323713396,-0.12006710607335605,-0.11248556042301289,-0.0031773885547287904,-0.005854841264218619,0.1965167119187268,0.051474056683312466,0.2586235319397116,0.017518322668540552,0.1789442452848898,0.02790055271074939,-0.16817108402959163,-0.13953625425593202,0.10232654338570919,0.017274926137405326,0.05440405674682458,0.06952546201353958,-0.2292179284451837,-0.5300177825951692,0.14010114182508282,-0.7708928526080823,0.10652436027205464,-0.2921512460958866,0.23945354908855943,0.055802550947937776,0.249654017644532,0.3448307138274875,0.058963195426214074,0.04929432967287965,0.58960849950812,0.49971546258476107,0.03177370153288547,0.33423819686912687,0.13150659828385597,-0.3310387068961315,0.18324579513833486,0.22380134526198223,-0.004343914117670111,0.06580190458495203,-0.0012794502495620387,0.007100372820956447,-0.00021505077381928658,-0.07169904901001602,-0.002616442711161076,-0.06687870259923048,-0.0443666084527667,-0.17084737948839046,0.014522794051314056,0.056880745253196655,0.02751055885295501,-0.23031133278393115,0.044723803100825056,0.0993694957690745,0.019868484184196,-0.07068889177006328,0.08012865873699307,0.0019707826603760914,-0.05319852302538623,-0.017744512138643455,-0.001079012731416262,-0.03312174804291574,-0.09084897713364365,-0.05222724481068709,0.12465481714291488,-0.057458539926995525,-0.051164371132142665,0.06690468066166406,-0.0010970737739563331,0.042630639701589174,0.009240719746967984,0.00697030186037545,-0.0350926407938174,-0.04020112678885899,-0.03773458298047811,0.08173738199911279,-0.10828269571047199
141.4580535888672,1.867889404296875,0.03334628676393188,0.0452656936832363,0.007787039982436962,0.030223150260360977,0.1186047001537992,0.06909059370594657,-0.04803028621964931,-0.22111448850357968,0.01157913331791383,0.042635580375162054,-0.16664882374591664,-0.12174835845616662,-0.04767689702259115,-0.06978058264814312,-0.02816381252303808,0.20219591456047742,-0.06066482399813464,-0.030562537635339365,0.046919318614709896,0.260210403507221,-0.11351305418786393,-0.021252514765770794,-0.15427185435748653,0.11314009063775603,0.08889831892440762,-0.2174090748524323,0.19317710648446274,0.2637111000529441,0.05827909188359215,-0.2543429109916718,0.15363892891941514,0.044845746347231236,0.04394562880340919,-0.03919351139873913,0.13968781944769396,-0.30308494890090454,0.11376815219698606,-0.7428121699215332,0.4312367530360781,-0.058187860290088766,-0.3190167836642829,0.183368645222893,-0.6603269362691568,-0.16995568597407582,0.20088552150693517,0.2351923402480323,0.2696183446960438,0.12837025866662932,-0.3307804507506452,-0.04865755987833775,0.17975951353894193,-0.09619245042101493,0.14811931957292,0.07164257118005929,0.04575319182219477,-0.07844913396250175,0.04691338049812897,0.10230257164916977,0.07208548573486018,-0.16142146669151397,-0.031974601305116625,-0.1283335836414269,-0.18380013252364977,-0.020898954747308966,0.02037054033835562,0.04358307413825536,-0.0002176384451342524,-0.004659743957985677,0.024440554842983724,0.08448246210396813,0.012774807786075636,-0.036793226028577306,-0.05098724728871462,0.04312919072655747,-0.03521403211299618,-0.0039512373181911035,0.005909036150413738,-0.034523826624928595,-0.006442273193377493,0.0772899570201602,0.0488517424365531,0.0013387960194100683,-0.04752931738703024,0.009649123036631811,-0.02328710528300095,0.06774918318289999,-0.0017089539032203913,-0.002695967098690239,0.0023332095407541695,0.006669532526164633,0.0191215477277852,-0.031400710321734845,0.050855741917581236,0.03307814327167899,-0.04916648886568312,0.049897186193672824,0.00369652991353076,-0.036642133422428856,-0.06342625120673077,-0.07843393396562348
143.32594299316406,1.85791015625,-0.0836110222539261,0.07372985805717908,-0.024386565103262203,0.11300854137150013,-0.008589177373392338,-0.08353544059171407,0.01959914087639303,0.04253976789316137,0.025271117804032236,-0.03720607172385201,0.077323919088721,-0.020807079395941883,0.02320756704349322,0.057062046626157166,0.023061520751989435,-0.008318352590387403,-0.1637687767640437,-0.0719895433758324,-0.06294987333182012,0.05818493413397326,-0.02466750889826553,0.04289266355166012,0.004794691735153914,-0.037719824742126117,-0.04073947097106398,-0.049376618202768334,0.268079053527796,-0.021509083890657366,0.02222811637367462,-0.10524879050129615,0.11355131070674297,0.05576882749336518,0.307537801990177,0.060885162269479376,0.07285354067932288,0.06125551994188784,-0.011200719726564376,0.20315895864949643,-0.06772445952665673,-0.08866908667474604,0.2749259646355657,-0.10200915964290366,-0.061064364692369796,-0.2047820736128169,-0.15192107292188295,-0.03014500402961985,-0.08679716003882834,0.13522504395498838,-0.09682627252460502,0.1314004279841849,0.27070884465090495,0.6462968245051928,-0.6306103453010296,0.06581626221266045,0.07758505917001053,-0.02559719328168495,-0.18596640208699416,-0.058202797360736455,-0.14570972891744333,-0.004371500508877864,-0.14432196177283682,-0.15136889009797053,0.1811433886861197,0.1720073707195886,-0.1851182508076424,-0.03240254523105529,-0.06591426327237222,-0.05322625303546224,-0.16265566213305,-0.06433955108330755,-0.1078658529278984,0.0843052857843754,-0.043336957293288035,-0.03575400482060614,0.043335246289386356,0.03419995419871566,-0.19815291016668085,-0.09657834770320797,-0.2296008436836874,0.05740287573021936,0.034643627938438906,-0.03212675082396715,-0.059110676155309946,0.006457973595606167,-0.00028292662331825353,-0.0030218772178227334,0.03206724173988493,0.04323724612525105,-0.0420328989336314,-0.13230793130837354,-0.07639653491976403,-0.11016435795832802,0.0031066636887992216,0.012634130446579506,0.031367253078597286,0.033284467012902365,-0.046629979408688876,-0.021548959362898704,0.03322694946940764,-0.011114514688320063
145.18385314941406,1.71820068359375,-0.01517214490570732,-0.021716359741354958,-0.06613573562780951,0.09572111771215376,0.07933191716599007,-0.14009083843540385,0.13566443513430104,0.04121294885171066,0.056019626201915466,-0.0973777635862888,-0.006076305065627102,-0.0035890384033472004,0.012972677678999116,-0.03138743945515466,-0.11525871057927922,-0.05487002528058707,0.0957311647020943,-0.1056501878950178,-0.16835353220626215,-0.09215965125599718,0.02455240154677133,0.0006628986395412587,-0.0884253611289777,-0.13073573081283335,-0.04935863384314052,0.07418285823117078,-0.0041991194935310045,-0.00042941061272552816,0.020913196233901084,0.06944815173244248,0.2649327414575488,-0.11430958743031824,-0.24927808282848601,0.16491636456236702,-0.07994170909576162,0.04666144322971767,0.32896605687874064,0.3060994915138551,-0.05126266127755589,-0.18080797947528757,-0.26302161199299723,-0.33238209851918593,0.10131738790560271,0.21314503206964766,-0.10501451611666773,0.2110886481908576,0.2955071756493313,0.5669436481317468,-0.16925209138012726,-0.3900009318388078,-0.13272245950504427,-0.1880206521793997,-0.07428888717724569,0.1326209417146363,0.40371132432578444,0.21436766726985368,-0.3029184498455244,0.3812427123093747,-0.006880913225467619,-0.09183816866294976,-0.060126055925367475,0.17053923097074353,0.11970764179282914,0.06790401585878518,0.004862350493636829,0.04014871716891029,0.009269929569892418,0.04058353585113469,0.032036476303226154,-0.08845536109939982,-0.07656117067557665,-0.03464190072808261,0.06687650132596903,-0.08752247268295345,0.06185051217987171,0.08577025216239459,0.026295916943942996,0.054108708034364385,0.0243418152399637,-0.1592604556452823,-0.00044727180393650933,0.02343165941232614,0.09574526317282109,-0.026404029288816633,-0.03153987151353523,-0.008825848088320596,0.00233789437390558,0.024302485285362125,0.0287504376468022,0.05010937089607443,0.016766401626504,0.012303702754640447,-0.033621066117793974,-0.052192271279835625,-0.002053672553876683,0.01613627838272802,-0.0964486227674517,0.00827643703187143,0.06839481360685497,-0.15816227678765252
153.7941436767578,1.93780517578125,-0.012506805458403936,0.13461396010706006,-0.006376564151246355,0.0005239907320715304,0.0050541979360068465,-0.059583064021221266,0.036187882191767544,-0.1265893530414801,-0.01888177034357319,-0.3090528339945997,0.22805682298115712,0.053512353280302086,-0.3563601612726694,0.009263777529613201,0.2104753500481654,0.12739091284774368,0.11628744447035633,-0.05707513527448707,-0.08133291095773715,0.05655384049190592,0.01040466053530328,-0.06819245768893964,-0.11375946876949523,-0.24988176324738073,0.062294482281827025,0.685733479028094,0.5117889005497469,0.10639104140759936,0.6040052079215017,-0.2156209945833301,0.17362781399093088,-0.5575244302091533,-0.23704751760613427,-0.10214382986354317,-0.009777666624062736,0.03405890787805446,-0.09068297986787245,0.021551643893439533,-0.0723529270463111,-0.08371653247502245,0.13165530785307267,-0.7889406618880808,0.19978240352940108,0.09918770826253728,0.14654663955000286,0.21852799236684908,-0.03935999282746282,0.026857889704605762,-0.20988063900685405,0.07533637186431687,-0.127191643212231,0.14675680117881693,0.07905782302071238,0.09600446659383517,0.09563041776225442,-0.6679133591718729,-0.012834849888784111,-0.03145917241870856,0.07879804381614826,0.06932817535340126,0.034468813054958164,0.011545974558330835,0.03137993396691456,0.036139060281826584,0.00710354018290029,0.09661847554141187,0.00819673426526698,0.030625331603925447,0.009078950739104703,0.09347606775719912,-0.03113498113517304,-0.10926693381209948,-0.0650233232074187,-0.008769170621014295,-0.04102536033854232,0.10475862927715528,-0.12200652522803727,-0.10420368418700095,-0.12080246190370676,-0.02742755477882028,-0.12455282403329603,-0.016718469568907022,-0.011214449577172284,0.020533749859632966,-0.05781542177893229,-0.12862453782136127,0.0005793363633719804,0.06549411945624355,0.001378231568600641,0.019599436283334923,0.11978054285475633,-0.0030702096599662873,0.0018991639352406325,-0.015154515544700146,0.012931470834919577,-0.06645270357466579,0.0670986526424998,0.04887467912956893,0.033245048426437974,0.006689048058847529
155.73194885253906,1.868194580078125,0.0077319274113335865,0.11974296814289988,0.004942359152014266,-0.057018212980280175,0.031159482039196874,0.02379263882188454,0.04083294321800615,-0.058805187394219235,-0.023911168685124027,0.0286302992313013,0.04781275247507436,0.009235361705360615,-0.002614202668594425,-0.06743754811760923,0.10562742421045465,0.010481237656521314,0.018912600208723283,0.1841561721179536,-0.03765970862336131,0.13560411381078213,0.05500663314715493,0.08170947620425328,0.04706347396155376,0.18942778318476863,0.13606904664101735,-0.23197087816359455,0.30392596923807635,-0.011539164868720591,-0.04240451035134335,-0.21039506373931682,0.150307809116994,-0.09355628022617014,-0.0199220400949518,0.005630962183963509,0.014080983123050627,-0.06896194347376695,0.02026065032917055,0.042780699458191435,-0.02001971554015982,0.14904106153708624,0.18672917666186928,0.11811716071491368,-0.23653157631471627,-0.15179796907807205,-0.040942603256780064,-0.2097441833513461,0.17837907202570344,0.1081665666651848,0.33720639090909854,0.19960711006245876,-0.0021479113548793704,-0.22585478335880219,0.004549951644506828,-0.13327754961286223,0.344013026417956,-0.32022199447856725,0.05154072710250687,0.16014257714035143,0.1426624755186056,-0.0022129372194494954,-0.0333608729905346,0.0014687098422740547,0.0453364313831756,-0.006875656150638629,0.014611456914070911,-0.11522035341586914,-0.021635502472572593,0.007629657271103386,-0.000630655327396126,-0.12648504522683487,0.025577060909070404,0.07455849460677483,0.07107120630066818,0.06625069826824175,0.06032931884910078,-0.005201350026183932,0.06036756253138427,0.09700202126102447,0.034763972902399264,0.09122802814391227,-0.07767422210201284,-0.06151398685861438,-0.044091379020812324,-0.008653751274440439,-0.06280947504811685,0.09250226822315265,-0.026966427018371195,-0.021998081700178584,0.002349577152324453,0.015444079543144345,0.042255887110641766,0.020851313173605973,0.0005927253990813007,0.021907566067577273,0.0036774773725530255,-0.02020249498471349,0.04589814426097696,0.07516357420060278,-0.08219186222186427,-0.034479428740358566
157.6001434326172,2.0172119140625,-0.034056030379912006,0.11468005953844224,-0.05003098918208434,-0.06012710873434453,0.06293850961097205,0.06430096717328415,-0.051502712952063906,-0.0539688326126945,-0.04929705176868511,0.016876280697297106,0.07206518274074673,0.05487791592004766,0.02863277005125363,-0.06642243227765608,0.07992732430184823,-0.23679467429581014,0.0036135948813413726,-0.0007897129304939507,-0.10934689692056089,0.019534040779007517,-0.04465070723615085,-0.12310435289974966,-0.0023527306126530506,-0.08233302427081089,0.07015956070407661,-0.12682348403698757,0.13223341596004393,-0.04752772661137471,-0.038106213013665756,0.019525024723641215,-0.017325433674549306,0.013536730117057713,-0.24511673575685428,0.10013906062339654,0.02803494130297063,-0.015305358371279457,0.030948486497519544,-0.0019079188787120994,0.13278428219775165,0.2126418278038854,-0.039159805875949735,-0.010136544203096898,-0.12557040709218406,0.17973611400839223,0.050816646360179386,0.16473400396005192,0.1622622153817478,-0.44450324007685066,0.12017296638798179,-0.44532179789388027,0.05381705057400614,0.08174991154835462,-0.38301418889660976,-0.28217619836551766,0.07532265598836801,-0.02601018915935492,-0.08388895952455103,0.21321062251990616,-0.03117439442516047,0.0848869872864871,0.06678164835779604,-0.11041060247086933,0.18038273064556976,0.13162135262411537,-0.10831317010103114,-0.0010542966941429375,0.009614394066644601,0.09437025632990068,0.017842421304168694,0.01777292710501989,-0.015608101729193028,-0.012272750918629123,0.10583431393408914,0.019787968259381818,0.022714328284455153,0.048505436272434095,0.045706093784051355,-0.03997873151125365,-0.07993290325317938,-0.09884009213301652,0.01156456651909285,-0.10326255826029569,-0.014425854619115578,-0.09903103570882311,0.02078301328806111,-0.04972287570766382,-0.09220197963582337,0.05162320511379432,0.08297978637414291,0.01598596773356233,0.008928826231019584,0.005220701465460278,-0.010612319148660815,0.06302639343571544,-0.04231618767333929,0.029404682989947542,0.05519097227216502,0.18155745695968564,-0.0014739237559828894,0.0175485849955766
159.6173553466797,2.1581878662109375,0.014127140659941986,-0.0357787721328454,-0.023572742687989645,-0.0032912980995194394,0.011829166164903461,0.05077993785749283,0.07520436243574766,0.06449520443087638,-0.04443586460713021,0.060892959496184555,-0.03350482875775634,0.07890954577953264,-0.0937394980890949,-0.05578455698910569,0.03382972933755528,0.01843447667675112,0.0058515339188257316,-0.02050074898764351,-0.05228012904080543,-0.15202733409255964,-0.00573146643949524,-0.06802432016630022,-0.05915462427495192,0.042220361716432744,0.01632035010308609,0.018854548014848437,-0.06263115423586495,0.03245807170750309,0.1613406991243459,0.06860233921860742,0.04498832317637755,0.0034759620941709575,0.04263570125118272,0.0859174577659681,-0.2368961222721628,0.07435244364211552,-0.13522763734131227,-0.047991088821688045,-0.06695202046937679,-0.41753714157001304,-0.015993162551001087,-0.1776115300803016,-0.5236172475493055,-0.14949619717647927,0.4109143882756267,-0.2595226125361141,0.26326948485991314,-0.3613862240583007,0.34548656251647897,0.16231432636126947,-0.24320199097236686,0.12087250457541815,-0.23035642064675096,0.3263733357975136,-0.2477071091298895,0.27132577213864667,0.16813082024343845,-0.01743091168163176,-0.07777874756147773,0.03789616935045248,0.04589197214213367,-0.11421969689404243,0.043494705350135124,-0.08923574091351946,-0.017229210982492315,-0.09528342259164135,0.04466773519739817,-0.06628831737331711,-0.0069640992616473415,0.058327231585671525,-0.13510458293434435,0.027804016151800587,0.07009661980911867,0.03481093420998146,-0.11635032153016897,0.1345691372375791,0.04481385126359901,-0.05435735341666842,-0.021747367854623507,0.13093512390548462,-0.12118493425505499,0.015074666267287014,0.11212511935589836,0.010627907001230008,-0.011724634954963994,0.009082021821706157,-0.00825876141288245,-0.02625356342609677,0.10946322276472453,-0.011256186594004625,0.038023465601212184,0.008681409478695445,-0.08864366833561707,-0.016607163904415422,0.053026078229649394,-0.032139959846787775,0.009293536419970237,0.01897156736145219,0.030207677196932743,0.027228862561744303
161.77554321289062,1.9980010986328125,0.02593261554941724,0.14820760506484698,0.07115282330076234,-0.14364555097040324,0.11774096052262926,0.08121447348740152,0.1088751641522145,-0.11882392654447711,0.18290224466570654,0.07877987026777665,-0.14924456271994138,0.0979091828097769,-0.15488480124295903,-0.005704619215738989,-0.0004525392888063695,-0.018614633232259203,0.1250345488036635,-0.017201429700093276,0.09688386146001306,0.027221894340860343,-0.026896768704536885,-0.030414208812448416,-0.06872804301818387,0.053870657963452945,0.02306126361703751,-0.1387814521622871,0.0764172885967903,0.04902259889422824,-0.12774320400214553,0.09575266548135761,-0.13060983134719117,0.035015575834049975,0.00956357506686854,0.13615888692467876,0.004383430400319818,-0.05088108697040135,0.004507472923475338,0.15704131004656702,-0.003671961853014785,-0.15731310750139899,0.07376310936357772,-0.13804038145987718,0.09497210086396944,0.04496902495792775,0.22015752252193593,0.10079814091981917,0.23635250829286436,0.10177841846759338,-0.13217835883286283,0.03874179888730066,-0.2559472946297599,0.050923931895816774,0.01917068946914055,0.1725671856916319,-0.17657752585872005,0.051758313412337734,0.42889345786810007,0.15043658955590292,-0.09450085799696659,-0.095032287598822,0.03639598279961534,-0.11535532861470912,0.028054362008905834,-0.010424977087060644,-0.052362758045899266,-0.028463139371929735,-0.042871072158059,0.05391610857497275,-0.034515570513964575,0.1266794879027675,0.07894396615608364,-0.06929411160800376,-0.046235265406395575,0.025785281503561998,-0.03133360576793336,-0.05172587025546771,-0.09007265036554002,-0.07250327596714234,-0.09473648735404422,0.12180353018631068,-0.017597114547940957,-0.00792665553952447,-0.013936453010249565,0.0234035998924655,-0.003281232438492979,0.01425027592265242,0.003717673259522507,-0.00692563322863142,-0.04184878490808597,-0.015283785754859277,-0.11915053874952172,-0.10253699154327493,-0.031159701899775325,0.05312046146465976,0.06700818663188361,0.006068158473632505,-0.04222652818464207,0.09278553546337956,-0.021086569758101012,-0.04634464805235791
163.77354431152344,2.097412109375,-0.04957884467578537,-0.029703509786853568,0.048196496223324656,0.09653295930880759,0.07866609451172435,0.01832697270877272,-0.07785722608202397,-0.005951766344614263,-0.1924476520331079,-0.037689584934618825,-0.07588731626672685,0.11079190685699589,-0.14640429178639483,-0.09527197492526615,-0.14508371179446233,-0.007627219572930055,-0.024681723748372183,-0.0012799206963180739,-0.0049686639580707286,-0.042830203211367324,-0.07286503376707366,0.07422431569997018,-0.011995116124547824,-0.032289962195131555,0.04912123540325544,0.033494913449979916,-0.08488104493963466,-0.10168089596486318,0.06477745002172335,0.01520383840173109,-0.12983861426665116,-0.058702552700526,0.3549667792423112,0.23034079249884468,0.20250844950519475,-0.0793808689943103,0.08693427178597768,-0.29127085935111713,-0.05419051073153976,0.28081197019225174,-0.0366764472771953,0.18891402549440764,-0.20287290359576907,-0.1789808605645637,-0.06985961044581815,0.32300066595236554,-0.808686079505446,0.13142404929946383,0.018805331128437262,0.0170619272923,-0.2731074318505997,-0.35673201516639175,0.06502824593223337,0.12838034063391482,-0.6347968920102532,0.0866668085638405,-0.5273027001039706,0.0910406349406592,-0.26456360846374694,0.45940635593304463,-0.02187647728290543,0.05421670959552468,0.057143654054562246,0.0017682876410480852,0.10194370049818684,0.05681414321529863,-0.0342339543308668,-0.05198923589664521,0.09859571851906618,-0.003675329260470359,-0.00950993258202169,-0.01231390696785735,-0.015347220881283704,0.006853081170218446,3.192410704411713e-05,0.06095422859030427,-0.054980753970829695,-0.007626962299942211,-0.07120097220050996,0.009126106763167163,0.007061398712890664,0.059418319403260325,-0.0473152531814373,0.05546337678396328,-0.05687944626174113,-0.05014333014161706,-0.07188823082018904,-0.045728325009583806,-0.03906160716918537,-0.015966171130304463,-0.0019450063998465265,0.01304462011183095,0.022867676152500006,0.009678049450793478,-0.08997296316533523,0.061990805110287,0.023517154644271628,0.016536617579093225,0.0607364684807372,-0.07162789916222606
165.87095642089844,1.9579010009765625,0.0652235613252913,-0.1055806724008053,0.06501256276563949,0.09108475235176723,0.00956707685695514,0.01647385183541954,0.022187917573846236,0.07019067401839439,-0.26683335188725804,0.11520267843883614,0.085151256997143,0.1030522118879982,-0.06805455723166355,0.0014885022094343198,0.21184278397314255,-0.2093582890359477,-0.056195031093631116,0.24626645893383767,0.08379320227999434,-0.10151807450861007,0.050830651975996705,-0.07816368197072872,-0.05535861638328259,0.07096259174475916,0.04711527909106337,-0.06413236377664948,-0.04780380141378808,0.07636998379891599,0.06316358876876578,0.02515658776348362,-0.10442442896826393,0.12833965699172445,-0.11497138508837595,0.13980832349270936,0.1718461222863688,-0.0800075112663258,0.04286720925753586,-0.15418175003819842,0.09344756082613581,0.06406025317352586,-0.46121681575869633,0.1447098599679774,0.21023790921759117,-0.0669571299165055,-0.08308351975045697,0.0676617559544845,-0.13806846586333427,-0.03328457852038222,0.0831267638322371,-0.28179409530480015,-0.02730806132941751,-0.1386013176481439,0.2027059309351602,-0.32289938890264813,-0.06689468317010351,0.028692885973053337,-0.07330988935102488,-0.0011565559409162831,0.0033808619026875065,-0.0030702341312464315,-0.09866495931383876,-0.03532647251988573,-0.033933889648031824,0.011378063906440994,-0.0654828535931565,-0.013748088257253764,-0.05725051691254905,-0.024479642687294332,0.05408862532840467,0.008889500567583168,-0.01396020417954329,0.005779619405149171,-0.006161212852578229,0.030079932141492113,0.1007914806739642,-0.003159254435691112,0.038088553223286366,0.007401476469184596,-0.034797809658307505,0.011917268417963948,-0.08116782658169819,0.0013739445380127207,-0.066404392070571,0.06665787919890083,-0.03315347071440266,-0.03794659650538845,-0.0036345419389728372,0.008393886956139369,-0.016518655298165368,0.047870356031818294,-0.05190143990010377,0.03810376706923094,0.01130106055523399,-0.08907895510845265,-0.04486665233508171,0.05523638646815206,0.09139648133119099,-0.014008832500254352,-0.022628678765274468,0.008788571649932152
175.4103546142578,2.0977935791015625,-0.007595388846039893,-0.10119544712358396,0.014253576001028818,-0.11253884930253664,-0.10920176329286338,0.06416264117369637,0.02427493860252253,0.05872696171046413,0.03298752956716161,0.12667142675664997,-0.0638684306954249,-0.018353238455155702,0.014738379155159189,-0.027639672132328888,-0.07040747274108851,0.1391720301357225,-0.024129703400430545,0.08422840490076339,0.02414187371037055,-0.0475896910468167,0.052553396521251,-0.012783846829211343,0.06368577702698466,-0.10890413798640786,-0.1244249700977468,0.10593588660216531,-0.05894584350562422,0.07053052142068607,-0.09830732999906379,0.361841915733235,-0.03928089461299017,0.14055740661882057,0.09047282948680711,-0.19765925100811593,0.21625636138252619,-0.14306423503113905,-0.22408228792754417,-0.0880461945913117,-0.34698707317337935,0.00658276983210572,-0.06464213495490867,0.11799678664079645,0.3582899686386972,-0.27436613607127125,-0.11569954230797252,-0.07424177921181352,-0.0004704033175750768,0.3049400251993093,-0.05906288668619692,-0.02313945956833273,-0.1421814535140983,-0.3415583124174474,0.09455224930347236,-0.03743939038455478,-0.29064002844495684,0.26137546507749376,-0.0301205244659941,0.1481456954661538,-0.05559755385028643,-0.11297176115411235,-0.12219928029855431,-0.21204147026772416,-0.510311031332608,-0.12619503170659288,0.09011385201670942,-0.017145703624131675,-0.07200285483843939,-0.059858426828409736,0.035191897066361284,-0.018810466691142738,-0.20357971510410067,-0.11797817262575182,-0.14802980856592643,0.026209467609754757,0.06351759729261736,0.042128353730834824,-0.055815114086861545,0.02875385237398676,0.14509532542018647,0.02606623414977919,-0.0882866442956361,-0.06960299572632046,-0.016645043345525964,0.05458085893572201,0.06853510027961322,0.04248896389891557,0.04028563431972941,0.0519313881823609,-0.06427332055371372,0.0019927175150417577,-0.005713316052012784,-0.026363825419134276,-0.0016273530195457728,0.026536397985098076,0.008459386897295293,0.08783334628190219,-0.06407085519695335,0.03085689417744029,-0.0665744728346169,-0.053352193931639126
177.50814819335938,2.0471954345703125,-0.05404982953205169,-0.005948754022702617,-0.05296767070991172,0.012160864054147147,0.016077624110326184,0.01184124666585985,-0.03995250326842526,0.007440225744009377,0.059680346422521756,0.06997907372778712,0.03522199668803622,0.057159301400469466,-0.03704510883424147,-0.051833656246713204,0.044690321964405595,0.09324429785777065,0.05991501545337317,0.06558821537923513,-0.02335623386528314,-0.012676288456473724,0.0800678462363278,-0.1346941984320824,-0.05758640918561521,-0.04647596305272279,0.0051824142970873,-0.13036346510324806,-0.21338207583304702,0.1909606350454228,0.1035623513352721,-0.09568674689983664,-0.0878407725927386,-0.021950658394460764,-0.208606041403592,-0.06600365921860743,-0.1619730920087137,0.23198764869978533,0.004521074435322018,0.10460893062835844,0.03971557639017357,0.03394547427651784,-0.1743008280128048,-0.040270998201898826,0.07728574055288873,0.26728727189837226,-0.1533033059940111,-0.07280828525540158,0.3148259213367216,-0.12377436018145953,0.20179075590868992,0.32282322995309987,0.04487764826772979,0.13576213616880883,0.22654656268438975,-0.11106825622292921,-0.19929029883801355,-0.3099876363313019,0.05779462093952325,-0.6086303733439085,-0.48093036766318764,0.10057514654449091,0.26981980154780993,0.02100878499536909,0.0168610896179031,0.0897241071093332,-0.09513231766200358,-0.06801752443737534,-0.011595782322844833,-0.009372417663880672,-0.006270210646859684,0.005702697306373269,-0.08294830030982196,0.007877067797023914,-0.0011200831085239928,-0.13390840170939555,-0.007370786354378659,-0.13999156519512973,0.05786771721769745,-0.13994176206894865,-0.01340800404337332,-0.026121105814065064,-0.02188598899351221,0.07318454285877678,0.06156898780652768,0.1039320894382221,-0.08096738561115517,0.06268305084918935,0.008263613633838892,0.0023074413392326367,-0.10870235861040076,0.011492000136737646,0.011359776872022965,-0.1012742038181596,0.027673530243679842,-0.02273742899273781,0.018942079776645474,-0.03884748413619851,-0.03594884468909354,0.0024083756420742587,0.11162741293979261,-0.008410249315542379
179.5553436279297,2.2681121826171875,0.13581206243495272,0.11106912307851452,-0.0313352554972714,0.021959531142360808,-0.08579974494728482,-0.008717665714963248,0.046846791811547286,-0.042937808975252616,-0.07179001941211363,0.13101897464819867,-0.0659953376182561,0.007895815913533506,-0.06287609171642486,0.008938881928711303,0.05562251618456939,0.03143749678196291,-0.1031473934690852,-0.04514054631823239,0.09919219544950454,-0.05539701202378668,-0.033219446259968796,-0.05462636984772293,0.006094185821526068,-0.002148677699560355,0.022870749236119193,0.006872843282411542,0.03577732398845448,-0.002064166602296321,-0.04952525954352577,0.2941594868247201,0.17333387224013086,-0.29852622179031907,0.05162515241200445,-0.07817329923323092,-0.13068968627057853,0.03622215789122582,-0.07595981455226632,0.03824339867648877,0.1304469122870635,0.11660465928810891,-0.22845596589426323,0.19520319596253624,-0.10909134940804004,-0.11728732050524031,-0.26692398123855465,0.2199701146424758,-0.07519092419329496,0.22532668562186906,-0.2511995100957593,-0.749757459601147,0.2717593858788785,0.05464913791494166,-0.05898998774519196,-0.11902249604773232,-0.029749537267236684,-0.12392282399139717,0.21251105572064083,0.28561359967515476,0.5254459136417684,0.3241702757269761,-0.2470595321175191,0.11958463425184464,0.004456429861001721,0.04259765486602046,-0.004977593818572308,0.03134444363939627,-0.038856641507609535,-0.045711523859539444,-0.01527158292105219,-0.09133350442824933,0.0685281920464275,0.09497367134058922,-0.005510820731685583,0.02868385795189821,-0.005397408750828267,0.10445712729259654,-0.06636196002676571,-0.014340398219767713,-0.04521002277309748,0.026045326281918364,-0.13107975479945072,-0.060078044714207184,-0.00815000206964716,0.05707519511495295,-0.004926012628824777,-0.04873955518035125,0.04210831345395588,0.01912644725856827,-0.007706160928594871,0.05488257083701924,-0.01179676419614863,0.0025147112341053273,-0.050775708320627916,-0.005105039519369931,-0.03383030817973698,-0.10535352289698031,0.028154701122230102,0.0062481436477005,-0.03824194038669868,-0.01159921782441507
181.82345581054688,2.1074981689453125,-0.014521057158001891,-0.03498336070793757,0.0586528497011906,-0.008667910142240583,0.0025584875844003696,-0.01252634510473253,-0.045484656776439016,-0.06407379229106745,0.035498873128909536,-0.056216562193541604,-0.0029055904535516585,0.012489220812010926,0.036099348875861616,-0.11562080740446395,0.049090803551492784,-0.07231464550185406,0.021997582150047976,-0.027937343214911016,0.17391540744016834,-0.0652055766481036,0.13500533399893266,-0.15366002722193495,-0.0021171851264735753,0.0064983990288951105,0.038057012395291044,-0.003884081781284382,-0.011995394225331664,-0.05145767483605798,0.04177415275469187,-0.3126280840735302,0.01703189685128518,-0.07149025049938648,-0.18155212352175745,-0.021338475636823916,-0.15734090844326923,-0.035729138916601885,0.03205128441286449,0.017648039452120456,0.0757504721973111,-0.2535476841726702,-0.06356787143552867,-0.08546892068148526,-0.06791084785970941,-0.021594730955638047,0.004711603684196791,-0.024099605748312915,0.04432515060006417,0.03202550066493614,-0.07987911847544683,0.28248620140914654,-0.25112432830392223,0.37935846759970027,0.26071720042498164,0.3302703712118044,0.14271191525953253,0.048377458396174064,-0.03138521731453145,-0.13449787430517662,0.0745107377111661,0.06411323820749172,0.0032314888700658083,0.013056044206244255,-0.030437193255524658,0.05636200251243741,0.09430575334710556,-0.006967386671832165,0.012482516094969856,-0.0018106320226235553,0.044213304339828445,0.02371235972651811,-0.10702557636268444,-0.11912100056995224,-0.11717489995287886,0.0029407733802522705,0.07602500038567862,-0.05767102856823315,-0.04378527503538577,-0.0051083692177994,-0.05749790034163449,-0.041954039176650915,0.13427991017963298,-0.03812025869837884,-0.14542739544350378,-0.09391251417731687,-0.045125720608565935,0.029611894686021614,-0.10643369454383839,0.018406026279441056,5.788919395133263e-05,0.07891958349839477,0.025799148486551307,-0.038974355291486025,-0.004243842149929455,0.001012343265858748,-0.022603664255951728,-0.03402282468547265,-0.07689762173110519,-0.03139057993628244,-0.001540183448044385,0.0403525157850611
183.9309539794922,2.1176910400390625,0.04765402038632455,0.007694123384844641,-0.09861154234337842,0.041471536361622256,-0.019499346497445315,0.011927291332235123,-0.016781122273195163,-0.059863835139117465,0.060601883678937055,0.03569604089289742,0.03569388716468005,-0.06713442169301578,0.05465020693280755,-0.00031399240956348114,0.012788099539290118,-0.054101913066314816,-0.05660140986267381,-0.030687147283139475,-0.006254709017641887,-0.026134601586638655,0.014068439414445818,0.05069936299929085,0.028210382455578477,0.07155400237383534,-0.05258383934438067,0.0049513286785766875,-0.14933819709912347,-0.08891407730533413,0.04736528060788749,0.046465450242250544,-0.018744011852101578,-0.05558995896868648,-0.27713437656134376,-0.1617607364569343,0.0665763553421945,-0.16510929719890166,0.23136947699039073,0.015607384627601067,0.12587837236938618,0.1375380349208999,-0.3456871535509104,0.21808905610045057,-0.2242641999203154,-0.022317896427328558,0.13787705886104687,-0.03197506476342787,0.10596657633559628,-0.02226850045305008,0.202584470701959,-0.0819935968922777,-0.4231639618600216,-0.15770194270424,0.573041665773765,0.25074546828228816,-0.08750416876494678,0.36802310044252007,0.04134453068577656,-0.4206083256119873,0.1385415055624217,-0.39195666935232143,-0.033044586290959174,0.33556672177422464,-0.006288702057993829,-0.05625625771320788,-0.07901531664151228,0.21423662645871516,-0.021487956853567643,-0.018241523651218176,-0.01653074994577619,0.04684929475641389,-0.029210118277976843,-0.005205129868532615,0.02570005386035991,0.05732927317803797,-0.02613055563974561,0.001763202454138919,0.05293692890656801,-0.04991873488994879,-0.0738121892517343,-0.1128062926031622,0.07294424525156223,0.009975201395843361,-0.07254570807566356,-0.11347058406162432,0.002481205945893147,0.036399832194226336,0.011075945651648095,-0.011885374627589741,-0.001056482043004424,-0.025716059404418443,0.09769264689151234,-0.0906715808824602,0.009954411693687777,0.06416087929079428,-0.02547022430439177,-0.028171125902719765,0.021195048510333894,0.049334182221538875,0.012448517141985652,0.0009018910041358932
186.04864501953125,2.2374114990234375,0.1465828599547475,-0.026037042431449095,0.10487760960098745,0.0006781798423493302,-0.0393126231161982,-0.09876511864448835,0.057705597450469825,0.10269859830936426,0.12314170365640206,-0.05143271122718289,-0.02183756618704276,-0.010131902608281602,-0.006845553665979838,-0.012173737484746303,0.11746191121391915,-0.003465202309762135,-0.05757465488963345,0.059742963902870705,-0.11105575315250461,-0.14168529773693805,-0.026716464843492355,0.03894968398682928,-0.055727455896246336,0.13193250402518297,0.03777608343333224,0.011033648663214358,-0.04950889297939107,0.08119058702364668,-0.10771929080053073,0.07352101426972904,-0.046352792759487296,-0.0760605840432936,-0.01481423129683517,0.029322002226869107,-0.19493467433584624,0.44750359596226236,0.06535475827521178,-0.07686771329784478,-0.03477096541901287,0.04476860338336904,0.0053376164778005135,-0.018634092950792405,-0.04585392606283502,0.06632306848549564,-0.011566281285723533,0.01134295796431155,0.21759004509619073,-0.5625593434842663,0.2982374980723496,-0.041630546654266035,0.029574712140639704,0.02920644537127648,-0.030311424046189073,0.013811309958443155,0.147160377503245,-0.18277628620468334,0.15179270755355356,-0.011997111056001,0.021293529760823382,-0.002152927121843925,-0.08153523276044791,-0.0914654061905089,-0.054600331047636994,0.15308300762334007,0.07170160534873993,-0.010412838449144857,0.036419329353409975,-0.014245471360376327,-0.022367070151606678,-0.06384903980022168,-0.0426747986526838,0.07875272618555533,0.060789709712313574,0.04433465024730751,0.03424825993320424,-0.06387277807830272,0.08266511488132913,-0.026527053647124446,0.0341138533048125,-0.01923681902053476,-0.019136005942403403,-0.025050171761485933,-0.008229975498923386,0.001606417672301314,0.015246991495559319,0.15484695638070836,-0.047777243873165016,-0.023323768795089163,0.1015671609929904,-0.00011421964046675606,0.0724100845730764,-0.009825133754699372,0.08234776142115333,0.017783269552338728,0.015521280501956393,0.07615361080441871,-0.05954534719957737,0.07084546567790567,-0.0026814990622633823,-0.0161983321495404
188.2860565185547,2.0677947998046875,0.12343829296410642,-0.0647462142423962,0.05499927850328127,0.024761484578834304,0.06666682072495603,-0.14183008345062786,0.0602213993947228,-0.09696125980616076,-0.06294996035967668,-0.21076784167383789,0.12159503845219942,-0.042848022412438236,0.10543958195948566,-0.1288501011236631,0.06464209410056906,-0.0021519381458365815,0.08676130599273671,0.10706892475750107,0.027020485830060673,-0.10817516920898756,0.09485625831077099,0.034586977884909484,0.026256319383499448,-0.06738164432542373,0.015009557410631834,0.004844650067820699,0.059845284048131,0.2793855836305505,0.0728286370087408,-0.7710183012951775,0.30128395422155774,0.11694429821849837,-0.10065238984367425,-0.12154353772726867,-0.05401799197734164,0.08510031082831819,-0.10197648014639764,0.07883669171663654,-0.019413399671177195,0.16717150983421727,-0.11089998841604075,0.12831663756802483,-0.043558027651602986,0.10160147857150308,-0.02355573217762301,-0.5807687399851825,0.0507756063466824,0.22247550886363834,-0.23634712105171293,-0.15373783537314842,-0.23665546151068007,0.11777447138456712,-0.09230725250799283,-0.26098158791430287,0.029815531017460317,0.16644705984264507,-0.09494720842364532,-0.5821356802209553,0.05432812106358745,0.058688930891362213,0.009874408786181243,0.027704665425751798,-0.215928239675246,-0.03893416872804016,-0.032146361887074607,0.003996773473842579,0.0755766942156253,-0.0012518963667414085,-0.0032392867888513407,0.003269246817453794,-0.007906594157663998,0.00380003043044918,-0.06767331157715539,0.1429492043988555,0.0054853482766612765,0.018497003511557045,0.021613079891457644,0.06362689624613725,0.03598268540415296,0.006872235072074295,-0.07861949066635392,-0.026815913356216914,0.15586475848820075,-0.0037199066284731254,-0.11881999825942127,-0.04151410831788109,0.10025530719624526,-0.05512947247172649,-0.020961105188603064,-0.0504456271760837,0.10443605655582122,0.02957778053244093,0.0608013017308085,0.01997634343929493,0.10301773603246868,0.01704195333954811,0.02417829604634226,0.009702690442830567,0.01528941852299499,0.11387915129781745
190.35385131835938,1.987701416015625,-0.022205264547226114,0.05915788283719404,-0.06502295858511521,-0.061498477159426565,-0.013803561450622122,-0.08743227599814435,-0.04645794818079146,-0.10130941048921231,-0.0049076883815348275,-0.06321965210544178,-0.03263394518786382,0.07525974339279067,-0.017560173551308036,0.030861126670603124,-0.0023058483653674924,-0.10628600578781898,0.04375710908130173,0.0010340204859297952,0.1045763527217162,-0.12068828647731837,0.11785391254376722,-0.01274195826683034,0.062286433794425895,-0.051380872508946795,-0.10134807646877164,0.06325309778133265,-0.12249219337679469,-0.07952498322087871,0.3984217636566174,-0.15531581527210098,0.1941492529441212,0.06638854887542353,-0.0958311078114871,0.2691692800483624,0.08464046731929195,-0.10159509728417498,-0.038025183068340504,-0.12814506527103123,0.03368725915117998,-0.13677857740303973,-0.012066278224773741,0.40812605662847695,0.08450255051422445,0.10747818049911763,-0.30211335327003125,-0.05850738339422794,-0.03738110327849662,0.15305878814648402,0.14378851269258452,-0.25955473546486046,0.24373479630499262,-0.169548411993448,0.11500248950008272,-0.005591306322335454,-0.08316515778542236,0.1992215636609338,-0.11197674969797175,-0.10132512884035946,0.045600277650226034,0.08282816344402773,0.06931652416587825,-0.027849970769402592,0.07192519949804262,-0.019152487611223484,0.004221472953291499,-0.07987388136506715,-0.052336834391549666,-0.0023695384210069923,0.019337017302994787,-0.07046761923836155,-0.007504932099051499,-0.026812715936492496,0.00980356865241571,0.039437718946412056,0.06041066710167607,-0.0010784688071710615,-0.014265127829673714,-0.08418063628119679,0.07814837182926904,-0.05414636731954478,-0.02917378456814906,0.03448639878541139,-0.012324025190959566,0.050205611390311586,0.05140211074129629,0.07580120024071561,-0.018057529660877206,0.03901219938750409,0.04947442827315775,-0.03218189318275668,0.10420060129797126,0.035359632948203934,-0.08539041887024894,-0.016901808373982256,-0.07650804323559712,0.004692778033766117,-0.008620968559228987,-0.043282967215120094,-0.03990118366781712,-0.0012474424008024482
192.341552734375,3.805999755859375,2.0915650876619785e-05,-0.05904136552095301,0.04119994541136623,-0.07620784191721922,0.00628998148360123,0.06125563560782691,-0.03495665292702138,0.009145794519202142,0.01657501053911903,0.11966059194267883,0.06850537702827904,0.14399531673806518,-0.01616481558080949,0.06415184954183378,0.12363095849851831,-0.015618009313523163,-0.12206895610451289,0.014231593428591992,-0.014843132961809127,0.02952207974452878,-0.1018421954833591,-0.024644604731548517,-0.03337112492587215,0.00941622076308003,0.014318316044978158,-0.14608346399051597,-0.02929351099496457,0.0363364292780118,0.047806750658187125,0.09034312025189148,0.10953192747468184,-0.18520806765156114,-0.0998059049712081,-0.11893302102612367,-0.23220603719582486,0.25165284717718567,0.05137049338689928,0.06079361299789788,0.17754743068957796,0.21313200786575123,0.11317656407233818,-0.03195464134377895,-0.0860768707651074,0.0508338193817339,-0.041536210221757235,0.2655791543844362,0.10690328851764165,0.1391026507762754,-0.37274241556274723,-0.18381314643078958,0.2012674358423057,0.07290341544103753,0.3473700579895373,-0.025435076588998823,0.03938970829345723,0.04819331016819014,0.06209900197969809,0.6809743754325851,-0.20947666847055896,0.054979043967249314,-0.03393192187813261,0.015011499961471754,-0.313874783665209,0.0786155426181086,-0.0037518448704386403,-0.03448506832852305,0.2999431291163113,0.05552341479750479,-0.03365886868072799,-0.02915516465648494,-0.09944413335974106,-0.10766013106104438,-0.13215221114931153,-0.08500151269351448,0.055910455193426016,0.01781271897204099,-0.1161006843381204,-0.19263433426006202,0.09870028171472252,0.01972292784332745,-0.04255521689128577,0.012231783916909135,0.07318472844546398,-0.02845018146687259,0.03200840593851724,-0.039221675336336144,-0.029152160874780356,0.007020916528801338,0.019198136413156097,0.06133017332779782,0.006257753825697567,-0.003395084086971374,-0.02036742265669134,-0.024938844850176185,0.01161953307768479,-0.002388243777887064,-0.12453666682412781,0.09752915222008403,0.010807714657552914,0.012788293855856489
200.09295654296875,2.0178985595703125,-0.012062767700637661,0.017036353926654216,0.041525995271875504,0.16093167499264827,-0.11574359283982674,-0.03213960633664048,-0.05840619849722383,0.07639262555462062,0.0858653427998363,-0.020438390553922832,-0.07973032071648646,-0.14074139540322694,-0.12048348079933197,0.08001057949300985,-0.026846180096871335,0.053932152286726286,0.041879477942442775,0.08497339189140972,0.14098977240090171,-0.13438608543574618,-0.0017051578678493775,0.008448392486465913,0.010988321084951631,0.020630970784175435,-0.06553081782919959,0.06492012738268312,-0.019696039812676605,-0.06770230995363999,-0.13001980227600932,-0.24357589632714646,0.34815622711629446,-0.019761512093608567,0.22776139086026426,0.1834852979853416,-0.03883308170398475,0.0038199786087029495,0.05088859807917222,0.10372376597025107,-0.005317570145475667,-0.20629328027460114,-0.24495918840360373,0.364667871804416,-0.04911142272600513,0.02139754098760928,0.33764156574316534,-0.14080076824179866,-0.023392446412955657,-0.07472933416789324,0.03954064481438839,-0.28373972793163615,-0.03112156817653676,-0.030167476719797415,-0.37907651694825095,0.08327022612372455,-0.14743728045971713,-0.0564708411702155,-0.08861095930787902,-0.0582619928994891,-0.308184583903125,0.286573187697929,0.04782062919186088,-0.01589606583481351,-0.061939651511940086,-0.06238549484781843,0.005725905506436993,0.09116039572783759,-0.0015243295897150282,-0.025375688533818826,-0.009762671223652146,0.14288926038421007,0.01023797831187652,-0.0019394164879103226,0.051419809629940534,-0.01953237378812148,0.0034841886484046837,0.07363649492394606,-0.09233998235913946,0.05809239404070245,-0.047387448026592296,0.13367152286291467,0.15234477386599696,0.1836449294642915,-0.046676227809388994,-0.036838381545554445,-0.040646887379754935,0.04239176968705499,0.0024088778383120004,0.006476650562969362,0.012740876622537534,0.024286528033993525,0.031787981237764884,-0.11628637642007347,0.13215642275548337,-0.0032773195522198192,-0.02232120539870725,0.09448895327820288,-0.03851149705967897,-0.03268719289188842,0.07166863875495738,-0.02101783450945799
202.11085510253906,2.047393798828125,-0.02509277195384048,0.10947908865218557,-0.11415248377154262,0.09575489524389565,0.038248564652009875,0.01780910323243577,0.06428108712781483,0.0686382369976267,-0.112744586070417,-0.009946027514043079,0.11368014782484015,0.11397288683472763,-0.10294023508859791,-0.045187995053092234,-0.14257316196185987,0.016522239854294844,-0.038245474563677204,0.03770961208430997,-0.0003948417510465114,-0.1492844678608434,-0.06934867521293304,0.04703880241466217,0.024962588850279653,0.04753309473104747,-0.7156314826339853,0.1126587435374333,0.10275855783026884,-0.01591209202241257,-0.05140386104913227,-0.00841804910761454,0.04050801279277346,0.37363145072460163,-0.05400405231092599,0.004886774434692971,-0.16100146485940237,0.14158862101753103,0.018227759488995604,0.08575561116265111,-0.05395240114146389,-0.20563189609241078,-0.15400028724942033,0.02435138988687842,0.17216556729766266,0.04982036880508818,-0.3624977119202973,0.11248025125917986,0.40111733320210285,-0.43517231956053826,-0.2950264302048425,0.09613228631767085,0.09799081469668852,0.10464339504515992,0.10048763903619343,0.03606504855865621,0.25519410737238785,-0.19445347275054742,0.13395542968584087,0.08435719891489496,-0.056994954070037795,-0.017176030822616956,0.04182282156367402,0.3495029439441157,0.07337091749515108,0.02363390200504616,0.007216137488109469,0.10257563382479101,-0.005902236039110973,0.07555649556782042,1.856279659285024e-05,0.009131463742081796,-0.024222672044725235,0.05172957781991499,0.000298900204189213,-0.007250105375003231,-0.0015520898680146538,0.08593546897732615,0.05068242464370101,-0.07545996194828376,-0.05216351023086666,0.050703382181991316,-0.03256947054353957,-0.0875513122243415,-0.05388698977162119,-0.11550790195506262,-0.059431704550748275,-0.061634622451637665,-0.0620310713295738,0.023282810548453138,-0.015252132842490858,-0.006320740033949064,-0.03920319886602106,0.055478951139198665,-0.0676816080217809,-0.026862413870684124,0.006082957240324233,-0.012280002689685314,0.04131157205060958,0.04700359514595663,0.05811198879897494,-0.005766535796896493
204.1582489013672,2.1078948974609375,-0.010551608358516394,-0.017783013397744286,0.024224629136009368,0.06131690952392358,0.004065145561889616,-0.12142578790032263,0.04706123419625287,0.1719580688328548,0.04785532487371933,-0.052134244926010403,-0.08062047733080226,0.05214806547235061,0.0076573270875837235,-0.008482720650934085,0.05448819894721421,0.12192468444839746,-0.016267168911027786,0.006965309517470351,0.28552837426403826,-0.0010245594426787283,-0.013582494791699139,0.04590945331067783,0.026538948844543976,-0.15514488944014895,-0.03453897364880815,-0.08114506698340596,-0.09347085238531214,-0.02412208228243299,-0.04019231210489482,-0.3706312275364846,0.032505558722114004,0.05890464531480673,-0.004422521172041096,-0.07566662831782206,0.029191469772564288,-0.13953164647613345,0.10388962893236392,-0.019130197580618596,-0.02454958173525229,0.05948065421841327,-0.09845930441151671,0.12411005139059593,-0.16382993043252864,0.37405364124866886,-0.08603946489584016,0.3959926664799076,-0.3209915768368227,-0.29971914664910865,-0.10050081227031271,0.135889066283986,0.7113076020058577,0.13591844414192172,-0.5213645263707686,0.559263584406293,0.12004005417764246,-0.09290050979246248,0.08760834723357187,-0.018575089501164592,0.3771512979398455,0.0303735600299199,0.07240373289488626,-0.22409512714900814,-0.08215617223757803,0.03231325356445586,0.10429563079838361,-0.1128252723772369,0.12409441412479916,-0.0029068564468649324,-0.044349881094267685,-0.10162981735207266,0.008187860134686876,-0.027257016806769008,-0.07017640112876221,-0.03930738534735914,0.004237307586287294,-0.02335348010403779,-0.10165546035367695,-0.10609663382687361,-0.054835948670539994,0.0009723968255064622,0.004215255662684217,-0.023754710468231063,0.07157802734625422,0.03509396765735034,-0.09243339146810567,-0.024136012571629478,-0.03187439937896415,-0.023386715460850614,-0.014981058024090908,-0.014174851298747192,0.018073397401291345,-0.007176013309553919,0.05046375865697116,-0.06678290857632684,0.020059702009504552,0.04410324457920547,0.012635474730973657,-0.0065870943698801004,0.0020523963017457635,0.014855382023461258
206.26614379882812,1.9878997802734375,0.014855933789931785,-0.0004160857524584524,-0.014093746614126934,-0.1253946400972043,-0.031278150502631163,0.0061290145560259236,0.07408482617573699,0.04519685158780074,-0.0052117409869828985,-0.117709975522406,0.19147545284487594,-0.5107744193316058,0.08314712749087981,-0.1367585190321488,-0.6936608897780053,0.014473639081573305,-0.07951142256421714,0.11021645929971022,-0.033652915554971435,-0.07311827053978932,0.22267645547292958,-0.3119429128144103,0.0993049624485656,-0.24878864299507947,-0.043611575588661654,0.06107066843193839,-0.7526699856480441,-0.21922803788551026,0.1256572093015223,-0.24872064384440207,0.0799714429807333,-0.01768546878430216,0.011301530492351414,-0.031048776936745813,0.02045884161211975,0.07313736400064129,-0.0402689462271317,0.08145632955691577,0.13879086970363827,-0.22639577930130322,-0.20154173487929844,-0.06391785706785644,0.07162328838465862,-0.07506798336110879,-0.4666052634278649,-0.09678359489041834,0.4534159993424367,0.12472043982598123,-0.0529522817091869,0.1448949728510534,-0.013996088422580391,-0.12455212959772266,-0.258835864949188,0.015013042341143742,-0.21207576035639134,-0.05777558609263769,-0.159465404079071,-0.2504911942068232,-0.09829317931752117,-0.10644328135332574,-0.0508051618551477,0.14796584840108523,0.022376295435665664,-0.004253216128198372,0.062470329480127075,-0.008345840480103011,-0.0006478402873502438,-0.007230304108495767,-0.07712707462137153,0.02828956769308391,-0.0544937541168012,-0.08169473988229693,0.019994653462412457,0.04282705816042805,0.05514482572614278,0.1569029752844165,0.05576046324228132,0.020705602567155833,0.010460424921013652,-0.09036905413765005,0.13737786986540748,0.10149539244960393,0.07039212697136171,0.03959455626894594,0.007250598619899725,-0.008249595582778822,0.005399100522544709,0.018161763477574592,-0.021630792890552742,-0.02971217307235679,-0.001279919151247866,0.02424152374373793,-0.0013640076089500154,0.02103242880712416,0.045391963737642274,-0.03986229613809695,0.022463285707123342,0.02699198877407242,-0.055264490505494285,0.0460099541296517
208.25404357910156,0.629302978515625,0.04729277981701982,-0.040218682988531276,0.25931112443984344,-0.14745655460209062,0.014968382678728999,-0.019946298545531718,-0.19612778445066695,-0.15994287473167892,0.027051918510000182,-0.04949163626200915,0.06390939647857544,0.10483321161493128,-0.14444592381467844,-0.1901698809130258,0.06630982640495037,-0.28545603032555367,0.15165107431832406,0.1472225080048892,-0.07839463289854588,0.01364532682933427,-0.014617076576960444,0.06659318833349835,0.33300981910483385,-0.3577037109859232,0.15326094754093014,0.026311345161761375,0.004833825120700519,0.0016282155804617751,0.14862266742309083,-0.20202541007229066,0.21357571037541945,-0.11092398944714756,0.11822093790062176,0.03136721107644801,0.32201820469596826,-0.017199272356447335,-0.23025755552411223,-0.18988234121049985,-0.012135802524336336,-0.012124622288062038,-0.1777420891761045,0.29446061736848167,0.1644148939893763,-0.20472272093671434,-0.3876199599622766,0.53131309802938,0.37965179339541016,-0.44782980737829103,0.3514497140703602,-1.3492952643751361,0.3576055104316965,0.017874263834309873,-0.01924389249793647,0.06826187943547515,-0.10905788435981648,0.006420865609067974,-0.15083844245561306,-0.09659657421418785,-0.09672683806058026,-0.11456345898343431,0.10120193905952715,-0.37632738990759806,0.05692109001436161,0.11664585468249043,-0.08473270100296092,-0.013404069648747102,-0.03364143804543879,-0.0657313347516673,0.07711829107203425,-0.061920631467922246,0.024545157418830343,0.016378415197131378,0.022325621429109897,0.0030784649381205885,-0.07571901240038356,0.13229255178556107,0.02007099516651676,0.023279978180302034,-0.0765721374539779,-0.00046520605132964465,0.04021671019387938,0.06746797790349,-0.022029563086366777,-0.0684995883187159,0.03105119803826641,-0.10509494505897139,0.04998105351136682,-0.05454179339555924,0.014905586821717168,-0.024111476045522676,-0.008697263333798722,0.05019961499968728,-0.007546942490787443,-0.022830749899088325,-0.008678364510743317,0.06875570649729566,0.044821459178329276,0.04148609519594296,-0.03867771357439635,-0.11635777108645884
208.8833465576172,1.438507080078125,0.02861763719590575,0.018060845280961604,-0.0069299505567529925,0.059374566178170766,-0.009527886706372711,-0.05267524615343568,0.07378159124562358,-0.024127179507088346,0.07727449119787932,-0.12113345784548882,-0.031490543831564126,-0.1892109830511441,0.018786144042727104,-0.014588841360865454,-0.0653038307760471,-0.03601500932582544,-0.116290256750373,0.19068339206989,-0.13413843177010457,0.05708392377131166,-0.03902916392445145,0.08925990291248319,-0.019937773903096357,-0.04423465691792664,0.010528106977951757,-0.03261472062990317,0.07457666953237901,-0.09751158589202726,0.028690889918136703,-0.04409457291350677,0.023830064425808317,0.06029245746155957,-0.05173605183580336,-0.032903694572646885,0.03763659137738098,-0.060050468884434875,-0.029916280820692445,0.017359627450640264,0.020634664982222786,0.08532665314716409,-0.0252736473978551,-0.03913520375601136,-0.023770651858793734,0.0206141897799232,-0.06405803674095263,0.01997043956124578,0.029940916784707637,-0.04882891042236934,0.055340109158898844,0.12850268844626236,-0.04828795279167215,0.12327247516202934,0.0033884826465734666,-0.07559118690042407,0.02193815929004873,-0.10503026793814663,0.02695349299270754,-0.02982574309493518,0.05559105372252739,-0.13463733117126087,0.145892029130794,-0.19439570117776042,0.21436161894191702,0.013193975733433477,-0.03576494994259146,0.021868297087980913,0.03047863258722169,0.021001721782530652,0.06901111299645152,-0.03148200563005131,-0.01878436184126884,0.3289540168090079,-0.4965684572117948,0.17407728553256446,-0.0368933641288455,0.008444532546471331,0.09508733451205356,-0.0334575952353882,0.0065073659612588835,-0.15231420471321178,0.16933436922312645,-0.10280003605055638,0.07312408023036006,-0.0444878476748665,0.10238355096374234,-0.014416040669464107,0.018192170795684918,0.12146313640776434,0.017101090424617733,-0.003963595523188942,0.0024062102080846907,0.014311355131100208,-0.03309042587592967,0.023960329091446436,-0.032268594370910786,0.04922948465512594,-0.2517259488263526,0.3154262893348745,-0.17797378870027886,0.14042091402397228
210.3218536376953,1.8278961181640625,0.1107042460555617,0.3633349103321802,0.13797484536766463,-0.0711783369875523,-0.15965702170470644,0.07280875480175482,0.2557542984981817,0.18228707478339284,0.1243714605782967,0.0755297595885164,-0.031992077621330384,0.20479681527373567,0.03927326806036096,-0.011374058977318122,0.030265975761206473,0.2900655538167238,0.7497284808648378,0.2734761296268301,0.012490228484940004,-0.3559932196746562,0.2848363417943408,0.9375093241657488,0.047548790192478936,0.16511284884625566,0.2501313809629546,-0.9747284440858487,-0.021016051763549704,-0.40443737345729736,-0.3707047317907958,-0.3020846269713361,-0.14037210151015198,-0.04543365207513093,-0.2571868494164643,-0.0012534125842916521,-0.3218840317509566,0.10304476937370369,0.07882261861819613,-0.11049143569400321,-0.34089368916756513,-0.4239340992729154,0.12474624349592567,0.08078465428267982,0.0740506831200239,0.09062376313985838,0.0900610257120345,0.08854378696747509,-0.03166696691707907,-0.06889358426371349,-0.1506839670797077,-0.0243296304034726,-0.06973427625610724,0.03227508771719363,-0.05331736735331815,0.0036507964534017306,0.08435616718325964,-0.06357139819070136,0.05277346456181443,0.0066413312839668035,0.003665726650883829,-0.11275403204902243,-0.027047158544708835,-0.1864555143568161,0.11628771885531014,-0.11478773047322754,0.0004575282420533188,-0.05911720588479928,0.10646111513662077,-0.055691570851576354,0.05664551388949339,0.07214356951209203,-0.09453500059896297,-0.06207547540958085,0.00380989143250197,-0.04992567278519466,0.019725616212018956,0.0654594332934043,-0.09322204100477391,0.00424345636631401,-0.01027005052110299,0.03899207098547519,0.000187539554074041,0.046204670521955635,-0.09643513967407787,0.07957631512197892,0.04237196733225406,0.056681101340129235,-0.1265787433035839,0.024603543383059735,-0.07689651471904983,-0.030054382785866862,-0.028981513121050177,-0.005425604905068847,-0.029449518488351582,-0.017979585527691463,0.037168555859384965,-0.018159313534772348,0.009510507650913729,-0.07461831395475425,-0.03996055225465307,0.072370700767673
212.14974975585938,1.8379974365234375,0.20664556094468223,0.1252610146474415,-0.07539403646319938,0.056680320862250916,-0.08857664187076272,-0.22253352613789545,-0.08428010506656079,-0.032078742261365346,0.09439054529456771,0.0347826401235126,-0.06466067243734643,-0.1212385476436097,-0.045326631322417384,-0.04520308526572053,0.011957715494490245,-0.08238052742476465,0.030624825713268147,0.006163788257989656,0.10584266821886074,-0.0355626890066633,-0.09602851225789424,0.06174268187150471,-0.0133896646851273,0.028655013847333235,0.25333292907208144,-0.09301417359382969,-0.04496351017671284,-0.13601676727783105,-0.3236861551671589,0.09470416168265673,0.16503344680436116,0.07679234571897424,-0.07926215080085715,0.11366220284937499,0.06404672270473438,0.17185184369471637,0.24233359743334343,-0.14586281167153714,-0.11512597599082586,0.024657158220566133,0.01710503162386609,-0.07698078357004023,-0.304303856301836,0.1412207694334044,0.06218132675281032,-0.0905718651810743,0.07096662906425248,0.19631356422096455,0.05429767303520773,0.1857493364916178,0.2147910783714686,0.1806011931097806,-0.09493296852890824,-0.09548862919181028,-0.04937808597996398,-0.08693983686387179,0.07434144617966691,-0.049716707521262664,0.5710416064889792,-0.07228813735582884,-0.11237165921285033,0.11494093885887635,-0.05671906490374646,-0.00039407634037585547,0.03204447048205197,-0.053708222798645,-0.11980879431194433,-0.005708293494568957,-0.0077792245753756685,0.09601028720211809,0.015528231073025506,-0.04751614447138438,-0.16509196925657052,-0.15166771930831324,0.03490627276108363,0.04923385156707941,0.09866382013742457,0.001037586481649109,-0.051713070468702,-0.022877699907485297,0.04211312081111121,-0.020100548232756737,0.0013403178121679498,-0.018254462755869786,-0.009058700710594454,-0.03771699495515273,-0.007554128353537978,0.019619580211343926,-0.10345859511044729,-0.031867688581972475,-0.009730772536408389,0.020991129312585084,0.02983793184028901,0.02510390031118439,0.05027199195491588,0.041621328032376136,-0.008916866133247422,0.028023395476737344,0.08221138057615301,0.003958263982170633
219.57154846191406,1.957794189453125,0.10869044532956082,-0.009915836824950995,-0.0018333930378992272,-0.057808012208277554,0.1643970337315448,-0.05174154481253399,0.09981065049070642,0.1837741103113333,-0.06391103907682316,-0.017304357279152867,-0.0027293318259799144,0.10704988539240613,0.049130977935014905,0.07227370482108468,-0.058089424385253094,0.06388822333946977,0.040855304483110894,-0.0055626305573186425,0.10596990816320388,-0.055870441690864005,-0.2155426522418608,-0.20974315133695343,-0.1332331651796651,0.05058523770763054,0.23176147068816408,-0.45682214081728595,-0.06213173503665796,-0.22031272279390324,0.08658399105906828,0.42819611854201484,0.1691360633492496,-0.32006168047704925,0.41500367546048605,0.2969936849470481,-0.07943948927734479,-0.12621566243665494,-0.4083153613986979,0.153585856873901,0.5441223668676124,-0.24583020509468415,0.03017100372936006,-0.1920179886029556,0.14047946863456556,0.9182209699552281,-0.48615642808740095,-0.19438793717487918,0.057927326137972565,0.2622224035273133,-0.014992978769602624,-0.2015808066062796,0.02965525863097704,-0.08556103977827272,0.17056913809928162,-0.02819245139085245,-0.13557086245302805,-0.01789877487310544,-0.055344504930911156,-0.05808465945260985,0.04516418541998165,0.026325370230790117,0.06806166190728961,-0.021039867725753888,0.003222504900589635,-0.017764157378741995,-0.004577673221320944,0.022711618720388346,-0.052740775934174096,0.015978150984846395,-0.008331254526759504,0.06418951676786744,0.048416102299628186,0.06194916178528487,-0.12256614872293488,0.0193004612046934,0.08620616270528388,-0.011487279027330531,-0.015631702253877923,0.042481922208393294,-0.10367841071060319,0.08586879843699914,0.018163245317908736,0.011520725791759358,0.014330016845171923,0.011151008151387455,0.015473695802448159,-0.005138492117720999,-0.005052300879755368,0.018008927839272153,0.11428194150721752,0.13516893509683964,-0.07066058372412115,0.04442213658404058,0.004857633385913428,0.06881434030514952,-0.054402542073967115,0.054886166371679784,0.007777758722425164,0.024729213707199865,0.02086335717613331,0.052863290341492356
221.5293426513672,2.037811279296875,-0.08300938853756323,-0.07482902072400936,-0.04251969110587939,-0.09699433049059811,-0.029699077325482853,-0.05259711859995452,0.016559020110780424,0.03770753124328872,0.023130527577848715,-0.14852263187938036,-0.03397701244594823,0.040172552678342466,0.06474552338086907,0.04229868800550519,-0.01792710599688291,0.017890009943043777,-0.049097875582254286,0.10025855821011638,-0.013121234359074207,-0.004049786001540327,-0.09881529483934909,-0.0068937103288567855,-0.06524616898926128,0.023313746436593626,0.23473377333365034,-0.16798608231199869,0.34044312281248723,0.374228347438104,0.03520482886270812,-0.07252704842891815,0.272890966578687,-0.36301729401109856,-0.3328453311823649,0.12106195038230601,0.07174450610719131,-0.1168037945668884,0.03396431354613431,-0.21736979616071775,0.04374502047756499,0.058099754785672766,-0.0732391113360138,0.22611845052119423,0.012326995104432484,0.0426486326623349,0.23282579935341544,-0.39696528397922803,-0.124740080786283,-0.23466029805706878,0.021044340535664903,0.5420139338267764,0.11435668127564194,-0.39931615315082175,-0.15414182523545542,0.07535506108363671,-0.048965300968799946,0.03512947547243819,-0.18201357094245849,-0.02672999571446194,0.09595055902615511,0.03263571391217231,0.011755875186975604,-0.02225000392079228,0.00014554813107134758,-0.00012531654179896224,-0.002896233008654589,-0.015502849711532719,0.06284332311430992,-0.0492755596055395,0.002129683961746987,-0.09846529238865516,-0.010217740165993774,-0.12631887773271344,-0.028422888092274917,-0.01776316438575199,0.017249331533899057,-0.023443189861271762,0.058882475737805515,0.1722389534118493,0.03295297024697867,-0.09157439195219592,-0.0565792580315823,-0.02499458977692213,0.11133037735967848,-0.022466310534543614,0.0037233553045308565,0.11152161970950163,-0.0022158947148883975,-0.018427824427600447,-0.08305917575334826,-0.01636331384771171,0.058471950049538805,-0.044559753280760825,0.05465991778502668,-0.022422077327672384,0.10623718805626566,-0.009534880079776993,-0.04502089892872975,-0.04239502395294138,-0.020499438629857824,-0.13154069187890238
223.56715393066406,2.0475921630859375,-0.12036294838085151,0.04010122047150283,0.056644304330644143,0.06113361422741679,0.027712859424950637,0.0132934883623164,0.017439403767720647,0.07740914768720501,0.029504983214320657,-0.01454896272699023,-0.043294292156786325,0.17167745885470975,-0.04063821839386328,0.03753877594307435,0.012031548279224716,-0.054808124159558894,0.07306838372098519,0.08567196017048084,0.007759524329401222,0.032300003207579364,-0.09271890261553305,-0.09399302055644822,0.10071727093349338,0.11850798443284756,0.014554744329194786,-0.04098637498648244,-0.08143254147160955,0.010370058079017261,0.04158193804879243,-0.05967700867560571,-0.021395368859763602,0.023656863749300684,-0.07794944581570434,0.1972876685595565,-0.014327362101957106,-0.07141880363921524,0.15425271613465263,0.3238940579664572,0.1169250453817904,-0.014739127312498677,0.12837074182422886,0.18534752473357502,-0.1113067784069866,0.1256236542988543,0.08477045561708318,0.060891670190156,0.05669952629391535,-0.22684247871836935,0.24570796618965157,-0.0337287183494562,0.18986488125608922,0.18739369421964028,0.31522540540958804,0.11024241999075979,-0.2425489777085968,0.18331724428914664,0.0437428382457742,0.09782450029975462,0.17438767635855468,0.027896959113042685,-0.029837446739531273,0.057645856802931605,0.050467854279424344,0.006107736599233847,-0.0006851744432583428,-0.010171473914802678,0.007093028003406193,-0.03763015632278465,0.20271923100753933,0.13246982620487896,-0.08373461653150224,0.06785333540185588,-0.11894191055003109,-0.04171384384241858,-0.0019555948473454,0.04402184859656831,-0.009904181084291478,-0.029918475239708132,0.16329647402212807,-0.009765709770519613,0.04400250768520323,0.0006994537347004581,0.12539491430044528,-0.00716096557634658,0.03668889053941686,-0.013110555932966563,-0.006025135831373596,0.04888849783701271,0.015065592592233746,-0.021353712461354205,0.03995613559073049,0.03535743661072117,-0.029955961813926638,0.005329185999241534,-0.02249440166204561,-0.05954588661606531,0.000244405820598725,0.04707893193211771,0.03705562538669745,-0.009333368204925236
225.61474609375,1.997802734375,-0.006434983204849127,0.016457511527791367,-0.01762973130900558,0.04047772736042822,0.04007117941533206,-0.008618475097156995,-0.08532329466726327,0.07928147824714382,-0.04191249192987407,-0.00541645052190348,-0.003182756489887771,-0.022464282134833986,0.050378830485835344,0.1152529747657886,0.049625961953569456,0.08913466717845261,-0.029565437777250094,-0.035721041277045146,0.045306869341282655,0.04590907007224095,-0.10647278194375909,0.010291059461312266,0.02961371745887664,-0.080562719732747,0.13920524693912054,-0.09084057814903565,0.02164346398790384,0.08991731792417232,0.037240406028893815,-0.028155363855607612,-0.37836649615371337,-0.060990798110737245,-0.059178420006335115,0.04110140313349399,-0.2924376598053515,0.12408764999797674,-0.10267328953452981,0.07957663518242972,-0.02679491148355119,0.06877509226948955,-0.06667491071114541,0.1377993060132929,-0.27922781764405724,0.06779256014486112,0.17677316024057568,-0.22729313866743073,-0.5639782324578237,0.00510065774759158,-0.06473089591713838,-0.48954295037944573,-0.02219274557088117,0.008739420313690124,0.16714102827444333,-0.1601151582930139,0.15844037199911648,-0.013216502857248166,-0.08455899838640304,0.25588242403333217,-0.19943653677986825,0.05748869522055301,0.017189315043241456,0.028926813926843837,0.0393335580626737,-0.0007441048134238558,-0.00041534123468653014,-0.0020703417378846118,-0.0026554100243130307,-0.007446534128197277,0.04049511963098915,-0.011577682325497309,-0.0591241399043372,-0.00883499341251393,0.0101972030729518,-0.16561454551250007,-0.10003262017685088,-0.12036681063020661,0.0017328789827172543,0.11078795725860234,0.009732264942736199,0.10658856602860206,-0.032901913277141086,-0.12569260296148743,-0.023574459815149735,-0.014442665957860009,-0.024809879818045704,0.044906365600622986,0.006153335968495048,-0.053497107534543606,-0.006961336857856118,0.024205095023309274,0.04402665723550391,-0.022396553887532023,0.03453533415675959,0.011901697695874446,0.029176586547106947,0.03801469556330553,-0.007497142412991789,-0.03321669756528615,0.06285683459842825,0.14779586167903305
227.612548828125,1.9777069091796875,0.15594170147396794,0.009932567326550963,-0.029824241892943925,0.12193237659029862,0.027601830255212387,-0.16985541512799993,0.046840569795680534,-0.09427062757292211,-0.010216295960848842,0.0067432884789267455,0.008276820581703332,-0.021708710393020456,0.03685632949714623,0.00787380274127189,-0.020794933743608232,-0.08136227899823657,0.15161235480390323,-0.016892329468894678,-0.022599067450595065,-0.011348040842055457,0.03967333731146797,-0.1504240097511512,-0.15864603908566405,-0.3464504367679002,0.20563782325115737,-0.01928572787674567,0.2325273495578261,-0.13679534773376079,-0.055904861239762266,-0.04877140114548441,0.18232793738160508,0.10389714760811428,0.09754295066743202,0.16614343916706736,0.0605649617765597,-0.226790543340907,0.047564288926541604,0.14438084288928038,-0.21215635677087186,0.07033808132183743,0.046013897909152515,0.20364627444401542,0.23951163403718806,-0.008082670962291809,0.42407479781719537,-0.3979263432256357,-0.07935369525178064,0.47554458580856573,0.10099272289861028,-0.04926680372943096,-0.06202816212447377,-0.11507070845262646,0.29304458756680624,-0.11005578807758414,-0.2576058147843413,-0.11356690246742435,-0.07185765822130295,-0.00246963041554039,-0.027788789955381147,-0.07766166748017002,-0.19077528242701255,0.06956349617255647,-0.04111310911590437,0.02404536179292908,0.08538082511704524,0.002496829482049108,0.014615786532921143,0.039641137623224985,-0.03396117291028019,0.04468904850731301,0.06615048539115603,-0.11022051175963826,-0.0667657197105219,0.04822939445189802,-0.09435210716612277,0.09392575582914427,-0.000371190051781821,-0.01528145864118185,0.03502197081722909,0.009852395570367342,-0.018268600529517908,-0.06327001384795782,-0.07765248878093622,-0.022858149320703278,0.023053225621848517,0.09914968586311398,0.048454307042021895,0.05761585527637837,-0.028406908264821364,0.0548251414226586,0.04271300186085843,0.02090282420885182,-0.08288256358060314,0.006469323667940702,0.007701754627341123,0.05114106465935927,-0.009338498018703621,-0.02160433123843832,0.10084974110286925,0.022382653301495064
229.5902557373047,1.9878997802734375,0.01766592786758014,0.008173177349791158,0.07079511329108636,-0.11858724188811798,-0.05549829430393584,-0.04987081819487965,-0.0017667750410449202,-0.1106988794212163,0.010689358625191811,0.03296650168015282,-0.029095599247996293,-0.07317236526978214,0.017093338656602425,0.07169610953889528,0.018224849854770186,-0.05436563260390971,0.03146662018610452,0.03298142743134431,-0.020887182370802206,0.07808322138461211,0.08163118596574347,-0.07469462396710426,-0.11640338690868363,-0.15280645682224392,-0.06253857611509106,0.00354173755351056,0.014753883701625448,-0.11546551069344979,-0.1913976845392864,0.04055629831365307,0.19884841321571284,0.06349442985558523,0.1506710097303716,-0.16594775265992162,0.4602755080960281,0.2789446377098306,0.38241174769274155,0.04851087752170843,-0.017212751258161497,-0.034108783053679925,-0.05724392926904384,0.28219410191372973,0.04334244389046593,0.15235086675716397,0.07253829756496981,0.11989615609792877,-0.06026833602974711,0.2805695751846955,-0.2614406639767253,-0.06902131057369694,-0.020492047902065325,-0.1530510543833416,0.5336970871353899,-0.19877610990491607,0.13367934031745404,-0.14871741981663847,-0.038341095815968,0.11985059643391215,0.18124310996481724,-0.4948658038334322,0.06005713384618003,0.057549359634161704,0.0021865293994233043,-0.002533160827925945,0.010258835753854436,0.00467543755434564,-0.032033062180791404,0.06424744231817703,-0.006117590702428212,0.08157012694611912,-0.03645766230417615,-0.01953559033796677,0.07374886101926369,-0.008810266679281621,0.12094413649898444,-0.028920424952814088,-0.0220455391628,0.07374061398811534,0.1340465752933291,-0.10971228327340693,-0.02548713029419345,-0.09454836687487973,0.03353875482538982,-0.021182816709951764,-0.006522980165436176,-0.040054982503723656,-0.027040625052827737,-0.019979368413683037,-0.028594199787501183,0.028161865313763287,0.024610022123511918,-0.0076134634558641156,0.017827755244764997,-0.017152049948934666,-0.011759138275821628,-0.11111576712070459,-0.021215498003974702,0.05173821648840556,-0.01785221665364613,0.002258474332705575
231.57815551757812,1.9677886962890625,0.15403376290835832,-0.017044685877569136,0.09630555606385116,-0.10668520616290818,-0.13026450626137803,0.11260123711674226,0.10039312993688196,-0.13081170337171547,0.003668193057795188,-0.007978525108241853,-0.028801600136829072,-0.018870872777893507,-0.012670408528366225,0.08013219823209025,-0.0411987222584007,-0.13615397320338368,-0.17713704941784186,0.07649164416920916,-0.0254774199791192,0.0874024941991309,0.1259026139110387,-0.043132523968428524,0.011249292884273218,0.020759970346869164,-0.202148112473912,0.184513341924248,-0.04356899875178863,0.009734651637772915,0.14917051329344702,0.07669877956651289,-0.1805806196942351,-0.4803383934261187,0.0011666396950367908,0.1644101638681989,-0.06923036252506212,0.31541110719544946,0.0802936143257981,0.010642705612280375,-0.24419136768038197,0.02340986578546339,0.19358927709187296,0.4473156466885407,0.20866215492115425,0.22701438296064982,-0.027704840282284697,0.0909588592097209,-0.10597142846884963,0.14308582628173758,-0.19655389137054158,0.027050137699654024,-0.3707207373584635,0.16037066656730883,-0.06668873574193661,-0.23675168855386294,-0.24328233255939136,-0.29214588368769157,0.12587761727036947,0.08678628005859541,0.01689347347516998,0.0562567339547141,0.054154269668824646,0.007257540035749063,-0.2366425745298924,-0.022827766250478016,-0.0481223942244744,0.06780823214464889,0.10508176695590869,-0.06497251581725431,0.06346278183434177,0.09413936613749548,-0.07812502674223107,0.08286483718932922,0.04467399019459731,-0.07175429325696993,-0.10449753641018203,0.16011339665210447,0.03250874508300714,0.0044255007378090905,-0.04558990622879151,-0.07251057686816866,0.061262825322925776,-0.012327346540686221,0.042819589415179715,-0.07450484628988632,-0.035834932916186384,-0.008031607094017701,0.000195184742636871,-0.013166237968221223,0.003486248707959248,-0.01264935777953077,-0.08053686161986914,-0.045454783067393464,-0.028502285277673203,-0.028923247349792056,0.0006581697048210489,-0.07463146400482147,0.044502629354362035,0.08409767395871161,-0.09157819597935174,0.009754657509172822
233.5459442138672,2.3075103759765625,0.006169881893940849,0.0009678899025096824,0.030337551426294386,0.09073149018483863,-0.01725831308833696,0.017026778893472115,0.02927632019079779,-0.00908247037255509,0.04135947236479839,0.017082708702251377,-0.07436795902843686,-0.07611397754338789,-0.009310263462620011,-0.03674858590694014,-0.05453861755469795,-0.024045471853423258,0.03681335286463942,-0.13029171745379212,-0.12077004346193487,0.08002901410634804,-0.0638377461945608,-0.02400722057904573,-0.0050271959730832615,0.058926075577053184,0.059431273300812014,0.0695826039920683,0.06710291396253901,0.02510416817122893,0.0366870379959819,0.09730444531779472,0.16698950711462932,0.03206575067196965,-0.002936487868443927,0.08305288411981007,0.08021621457461554,-0.04803665707683,-0.1523666185952266,0.21273020456315156,0.15174962118589466,0.10399267944457499,0.15384004834201653,0.047520717822466065,-0.004672296247839221,0.008145880569394148,-0.02361972255843786,-0.13033832373151713,0.05052376160353748,-0.4229886188654939,0.10510974706780149,0.5650983005764216,-0.08746564639951065,0.08207812865939391,-0.150950459886524,0.1665894151523718,0.02518910087101399,-0.1702326195964247,-0.09589234247742379,0.11475631588272868,-0.2200633802102855,-0.17047308940163547,0.035228299648519985,-0.07384258032697985,-0.05834650918986034,0.05526688746599731,0.004946355565208328,0.0024898686258028858,-0.05545603185383614,-0.05049664991824898,-0.07400520469070254,-0.15053702818262157,0.11828146527267826,-0.054945888989965726,0.16106900667115506,0.031825808459511426,-0.001052942045022912,-0.09693201276854037,-0.10477923275366786,-0.04489028854202152,0.02561737853681973,0.10377703980894658,0.025767327224653854,-0.12058105611549523,0.07430784245507431,0.12093828939076572,0.0033780617286059203,-0.06268011602635801,0.029303907668951513,0.014603444662308087,-0.05219259384465731,-0.00761113517416416,0.0688593899969857,-0.03838171787945627,-0.010830914035785346,0.006066779002403345,-0.01121116785435837,0.013685541997106053,0.12529323972438394,-0.14899949749580535,0.02478028448581104,-0.03901897439538264
240.9978485107422,1.8379974365234375,-0.0275828010227199,-0.12877177154246894,0.17997992058934015,0.059754586035600896,0.13918443860633486,0.012798941025520223,0.008214606657641198,-0.013067285248266603,0.040780168814190075,-0.019715226407728475,-0.06469329795112193,-0.06921277594248809,0.11274740939732147,-0.2865919158119357,-0.2681170524956773,-0.09356078841527361,-0.2116375249661368,-0.07517690106606753,0.33169527630759443,-0.05713639765041208,0.037856177755413015,0.013806091302818041,0.1593987803624603,-0.07885249332725164,-0.16453223572093462,-0.20010363547852605,0.007567119992718982,0.04565587586614668,0.2774701446655006,-0.05382944081153157,-0.09689540829830809,0.24291762240656503,0.2494766075848116,-0.19252182703915288,0.4108934081077735,-0.04987960403713915,0.1780762187563119,-0.027174726751703404,-0.33430674337445004,0.15917991848127036,-0.10941495567589034,0.18670538075654422,-0.320896693090605,-0.2060447742545427,-0.2911365364961641,0.1597652744865478,0.14431521831654312,-0.09758403161439626,-0.46256307176986877,-0.04783962863134518,-0.39597151751751053,0.25493972685351407,0.2268482142439327,0.14168800621946084,-0.1063289377990819,-0.8173319443178074,0.14977099232162974,-0.13129018152188743,0.18329658511848454,-0.2750944332026096,0.007343596391129366,-0.0031070094086973615,0.007760427020916099,-0.012049349332729387,-0.053822020827236285,0.11875257822398279,0.15314113094966797,0.033729692010511465,0.0547357054534434,0.04151529295738423,0.015227079493192706,0.014549341726416885,0.08844184716712275,-0.05536563057403361,-0.08738475027290352,-0.0062498556803688154,-0.08805369407025052,0.09366058623817904,0.05770173422273469,-0.04764956813833946,0.08103720769399013,0.043398465499170535,-0.08044060436941596,-0.0167554464841954,0.04601929876587772,0.010198575040578362,0.0725904994434875,0.005936834478576048,0.009017437477359998,0.003401018716178009,0.13848865619864673,0.04345829836581187,-0.036147491576291955,-0.10681363597637301,0.12059896963541708,-0.0366497938407484,-0.06976625440299658,-0.05150050413810498,0.06632875857425984,-0.0887919737208229
242.83584594726562,1.907806396484375,-0.08883087155171487,-0.04038784414819872,-0.030665372582256725,0.027315514533887118,-0.059035847866559826,-0.19718348917475165,-0.004168129582774776,0.041059494644140854,-0.056621837401401656,-0.09934795758722914,-0.03287027798487327,-0.0023639293233529606,0.04515273632210284,-0.03416661380253104,0.08433272384044185,-0.13549830564186086,0.09669851442557122,0.11304716177361593,0.1364657331007192,0.003367192762462043,-0.08054568894417147,-0.035154001703772,0.03511958627896056,0.11453812015158939,-0.06130253652613443,0.12029925949863965,-0.03370986414658242,0.17882510263572543,0.029512952145664576,-0.5451782613729474,0.035666118716322984,-0.07262159876951396,-0.08293109760867962,-0.016332599239101027,0.16832360378567437,0.04010532721873365,0.03283504266949192,-0.06164108746486751,0.16345483405415015,-0.865652681376985,-0.21924001901102183,0.09582519928505333,0.05987297498485179,-0.28061684490395417,0.3689129137379221,0.05390086963231175,0.6009839774957648,0.01978339110811863,-0.35440935591402073,0.05304112105026604,0.4115869514920186,0.012136723226763551,0.06428145988218825,-0.23465314861113992,0.3211942573352836,-0.47766091326902016,0.05726531221821657,0.2598411266918673,-0.0674234616889305,-0.2217103460487642,-0.012907611556317944,-0.0646225311706367,-0.0072573790370442605,-0.08191381032400777,0.0034649066991977793,-0.001483036800018329,-0.03251992521245442,0.008223958170356547,0.02914390628476672,-0.08156278639065535,-0.03032237730611309,0.027955473483167466,-0.06646155924345379,-0.016428421027997703,-0.023421740061672622,-0.03440932671599115,-0.09103720337916876,0.11533060104460281,0.13462278687811208,-0.0042299595768498285,-0.1331399294727077,-0.07529963889002364,-0.03344110459161334,-0.008808599229240491,-0.028036429091419273,-0.010693710797249227,-0.006131615458519441,-0.04595515327055626,-0.04494229342664263,0.02393320227910705,-0.046070705603742046,-0.03755609595166921,-0.02061324931884086,-0.027832895611121403,-0.024356995175519723,0.02893783213341893,-0.024604764794790006,-0.0482264293054567,-0.2515102582852987,0.061447321377124386
244.74365234375,1.8379974365234375,-0.0898224567597016,-0.004149867158053801,0.03986922674034657,-0.10680710751494887,-0.02794250162481178,0.04402990909738567,0.03126797617586388,0.054624337988072584,0.037293607369885046,-0.030683971297205414,-0.08656287496614026,0.007577418100477646,0.08457619665685367,0.09797873701878576,-0.06693303565694425,0.1225697980931545,0.10726284009009301,0.010550436553751994,-0.13241482112027664,-0.05625787829656812,-0.038800735888263535,0.02645573975068397,0.03997255353382226,-0.3351285458095591,0.02622104147349534,-0.46580246701013583,-0.06691634295396924,0.09090559010436067,-0.531835529796536,0.029977021250695575,-0.021107657505703703,-0.2839673522640721,-0.14481948373682285,-0.11828898214906927,0.08618245943288133,0.06632354295575524,0.08818971626739257,-0.2403940874570899,0.034215564771998414,0.18605843737653247,0.0032241378311845398,0.45948893659645934,0.2377274827653961,0.5279558715513812,-0.10219722740284452,-0.4115986503173876,-0.40713190060658366,-0.15643042697216747,0.4396674045753236,-0.028838528466158385,-0.2680419458273216,0.11533893536742645,0.2669879311444519,-0.31997971952343096,-0.4844410399981713,0.10860266040515973,-0.32737930964630824,-0.1700543224158691,-0.028891170490829787,0.018438974758669072,0.1207396782936769,-0.1760719987759538,0.11294128714798989,-0.01826811666672065,0.015317324310521536,0.016687491129389297,-0.04382012696333421,0.10716417398490295,-0.07133327714990295,0.02714329052418006,0.014614688342737492,-0.014118468873869666,-0.0021509115035571367,-0.08295828657289603,0.04709126365791298,-0.005675876582861205,0.06851824685360003,0.025124881585582896,-0.0535887188719748,-0.08128861396375252,0.025460847542813164,0.09947074956238731,0.053782549502108375,0.002746751596821896,0.030892033961012987,-0.013826541571589291,-0.08224540838651588,0.010629033998348573,0.06469578388552796,-0.04980063727508585,-0.008416736496679645,-0.06081484888021431,0.10491729073950921,-0.029126395562020607,0.012674842685011836,-0.006870051217673617,-0.04074591697076799,0.07204074138936414,-0.0891661743665042,-0.013569065277382442
246.58164978027344,1.9474029541015625,-0.01926058211512735,0.0015589089048354914,-0.11657384749778167,0.04673476997893998,0.037972590751173506,0.033020653084020794,0.07337438144940177,-0.014935634310551803,-0.09501098042450179,0.09314984647498462,-0.06885051585188431,-0.11835453101962427,-0.06551915453318423,0.14064981384999659,0.03644458057083197,-0.015018225747851542,0.05258740317057162,-0.14649426385612943,0.0021509635908093655,0.12228192442352386,0.213296672854683,-0.07417970197269001,0.0980421874707482,0.11693572357932534,0.05301465301512204,0.39354064387564214,0.08301585427832582,-0.006071792416340127,-0.0373292765014489,-0.0010624855609387843,-0.04591691646226874,0.08131803269176345,-0.16842244507554885,-0.26198635109320223,0.30113760831362985,0.08759773502898285,0.03194557592905451,-0.0652565794817151,-0.10771322608856429,-0.19658649082960697,-0.13802443891759392,-0.25055615642532497,0.07490684860554508,-0.047190343260528636,-0.15551661985236515,0.20429018235080076,-0.3881420018765305,-0.05515144061215861,0.19903295016032765,-0.06504585104133022,0.15020501350309826,-0.24071603073781642,-0.35917833497049,0.11083950901540082,-0.38845155837193096,-0.21430197305202742,-0.5618013504423104,-0.08473148655070595,-0.003614384167711801,-0.002473450517478132,0.0020562928704986484,-0.0220748070516584,-0.009156828778899126,0.0023554050730720385,0.014267736476465153,0.0731346543666601,-0.00526868744903575,0.08442485676120048,0.004378963622731179,-0.07875310546970639,0.06564280649786107,-0.010196072337746515,-0.05351534843803541,-0.023493525248356954,-0.01860476027050892,0.08717567751399094,-0.1813790396222176,0.14183779003294106,-0.17929667932237053,-0.09735888089342482,0.034519510763201235,0.0385480682567879,-0.016646106893327448,-0.008070461830929729,0.01129249807673502,-0.009574419833782226,0.056198434333244854,-0.0037377918245808557,-0.07054311023290168,-0.044369108797754686,-0.04250465178688225,0.014412932036082682,-0.004764506600805668,0.05013692619771449,0.00197184457693453,0.0772057032947581,0.03961711078480853,-0.04665185430146678,0.17830158068103788,0.004669898233575151
248.529052734375,1.8882904052734375,0.0009655237020636462,0.017675442780132732,-0.06457389986289569,-0.02804949575332337,-0.046370719886719626,0.024620405969070922,-0.012672054248699431,0.10066133815165323,0.060038576997389,-0.030076252479356073,-0.012691451046044095,-0.03709347105639061,0.11539309852390665,0.08644156974834805,-0.11442033935514341,0.15370794712209976,0.06221434373535423,0.10143124264934705,0.000983046526287848,0.02315745574882546,-0.035018493344339624,-0.025838705352015018,-0.022887604709908194,0.05364837149759302,0.00037853925737921625,-0.08431391272008598,-0.051021252528837005,0.21584246535968812,-0.07773782209460327,-0.09656360862581558,0.0873583836195544,-0.07287779829773068,-0.09256387621613618,0.10422034858253218,0.021989790475768153,0.1356456273708332,-0.04351494416741093,-0.05352851511628716,0.11802605146472894,-0.3691018501684965,-0.25138357854194815,-0.03165529568524092,0.2119245561923481,-0.14664759135858982,-0.14684093591414227,-0.1322889860786829,0.034191580158528044,0.30176255966266,0.11743580177530309,-0.10568310877682267,-0.13446057371664952,0.320905489193581,-0.05498977442849063,0.031105470973438132,0.07542385518438158,-0.22798000661621634,-0.06264812928448665,-0.004952659526733901,-0.14821590279095662,0.042676049375156316,0.20613488642329228,0.14167532375573788,-0.029762718255770773,0.04741614134394448,0.010613918850825898,0.013151133739497166,-0.015219005414216325,0.05625836598854219,0.04272545268833077,0.056065596657471344,-0.003059106450028437,-0.08205077234129449,0.14752912772441448,-0.04968541872717208,-0.024960455115505036,0.044826475479974315,0.06021544635538605,0.1314204293247117,0.08025393293199763,-0.14279333641542222,0.06638491692535475,-0.012166774799840692,0.007764799462387053,0.14061826088547744,0.031565982462398515,0.04009322136535267,0.02865885041321831,-0.01597965769120152,-0.023177560226561197,-0.08545133459660154,-0.012623489051963657,-0.10450385252452699,-0.008707300632986734,0.013190893365866804,-0.06185372430815586,-0.03136692742467316,-0.021809883886522056,-0.025247391046982162,-0.06053344939068607,0.05915279351044665
250.41734313964844,1.797607421875,0.051160018937509155,-0.014991545109469276,0.006623674723165115,0.009718812458192741,-0.05931944385916276,0.024426713319336615,-0.058941053630748176,0.04834165062168463,-0.03437214653491867,0.14739253417799178,0.07155659508665835,-0.06114974530905411,0.1087746943803139,0.017337882795174956,0.09239169951977666,0.04149213029106164,-0.047259715681442854,0.04388108051056381,-0.0010371652003708862,-0.08011714401734758,-0.04736950640318276,0.04616754450417009,0.04790030116463479,0.04078444135621227,0.032995941984095264,0.004568930946698503,0.012972687486501884,0.04073013345788896,-0.054057343387450135,-0.012680142488783248,0.1948723679378233,-0.09065559227155054,0.015734455055224694,-0.05292341729755094,-0.07890300098479898,0.1373320787779523,0.10203549524848199,0.06887551633442433,0.009138693297715064,-0.1749593685114623,-0.2840408010886043,-0.37231679245703525,-0.2235396887976735,-0.14141087729857418,0.1334186373859518,-0.14364351300092532,0.03465819958757277,-0.03402146051286348,0.08065581240757169,0.08605877719925353,0.1282600865706359,-0.26632326686424446,0.8507527327189903,-0.10090058409953773,-0.11495097199702557,-0.0822860201646291,0.2545471391473692,-0.037871916415216256,-0.05874181273425577,0.0025068558271103096,-0.030048986197740747,0.045338638191873434,-0.011810594602990174,0.003961614345168879,0.06137043383094887,0.07620245801123168,-0.028857441592151773,-0.07174916831055253,-0.030003961971726705,-0.008328863374584342,-0.027063468364617493,0.06257935862943556,-0.014673526713585572,0.16744527631517633,-0.010568472006355651,0.055893334033786136,0.05296397741180118,-0.07425157826792228,-0.1085071388456534,0.08233924352551374,-0.08279459597678779,-0.04410799382297558,-0.052216577536981335,0.014307527752374163,-0.049374183034647204,0.06788744937045448,-0.022431846105936765,-0.001091135830110598,0.02012858458796087,0.07077431487685977,0.05639081985160628,0.08519844436340109,-0.019704698623699064,0.04970066037725273,-0.0029274449370616873,0.040009736565977255,-0.00873290480222238,-0.0357945405963168,0.052205639427792536,0.004827889299118808
252.21495056152344,1.7884063720703125,0.0020390187055969178,0.06989804964665532,-0.14359053474266964,0.02810163829692279,-0.05403927106087518,0.020515231549775644,0.18099256758078072,-0.10412815989322736,-0.09484442086741687,-0.008973139937379377,-0.05460268514819181,0.04266535926299007,0.02147116622232931,0.11809366718772557,0.014095188065967684,0.009913362346550327,0.0758157690518725,-0.052602196142197084,-0.05449057698498316,0.048315629136774674,0.0030823769262970516,0.06754598488234057,0.004920526566510355,0.15400608404196042,0.01833959149702117,0.07486408550320835,0.027229745690266344,0.0068431520610864795,-0.15015149358092864,0.07618479622646257,0.0035432850009974436,0.007958420113367224,0.09451710589506174,-0.02716806619049654,0.2856885030595695,0.19294595860556057,-0.03472140717331436,-0.22800811277351446,0.09243510106638973,-0.07444606146255181,0.09479963579237993,0.6044573613791877,0.6774800593579589,0.10278353990644304,0.2035487574024145,-0.028308289662212865,0.3102955725288108,-0.008519863893675636,0.131266195234162,0.1164533559138643,-0.23295982001285126,0.16697326272563365,0.3098268962125409,0.10252509046501518,0.027951396449713256,-0.29794181990310514,0.03694051173240206,0.08117425756006766,-0.05312498715001624,0.015288707244060507,0.12667429671750235,0.004745582832355146,0.028265744468760217,0.0062041472598035954,0.05186003595507818,-0.011199985489928309,-0.04991979059867056,0.1692689304979169,-0.04636258780392535,0.017197359718002948,0.019765844885466812,0.040194190987332866,-0.09251178171123765,-0.16439770622076524,-0.08429486300568853,0.06045840182388928,0.12274743392981853,0.08133731417404057,0.003888692562732726,0.043429277939151384,-0.06268618532355084,0.04061905325501161,0.04893674302756558,0.02013492395774219,0.11752080566816789,0.003913605614117816,0.058949868973900435,-0.020075733357369965,-0.0021367654780552895,0.07891582442056799,0.08037871221775078,-0.0882385248003367,0.023985973710804007,0.0004738894169499519,-0.023774094285774403,0.10556761605544157,0.048837791455759665,0.19510929262307464,-0.05559761289390299,0.055381096955317385
259.29754638671875,1.837890625,0.02408122053029371,-0.01639709144970724,-0.13191164141903872,-0.017988157417745714,-0.08532886965369331,-0.09539064592778786,0.023114919241223775,0.16399362616453322,0.06877741114863238,0.0390982647705479,0.034807087437988236,0.07911771053168473,0.12655840666896526,0.03578923421571176,0.049625799318185046,0.019376349006351892,0.024567389580583375,0.06567899933638971,0.01577247266999337,-0.03134733274922645,0.0956029198552222,0.1299888319663547,0.14424397874370434,0.08482929170902065,0.024564521876779846,0.08654985243953256,-0.019288537764983526,0.18828234196397547,0.08231089108482689,0.4454343762118145,0.05605693062881942,0.11973350108019998,0.009054189867910442,-0.029728448535761884,0.15997376113852094,-0.07981164969751471,0.11940796346690548,-0.051039383440188615,0.6377798969339395,0.19665321380778358,-0.2535807793639026,0.07092619887382409,0.22907863925041652,0.03335367228992987,-0.0931690145211571,0.08247300425531215,-0.5714369748725967,0.19443646180793875,0.1359253588553468,-0.09170053548757956,-0.3988325435008702,-0.09716652810001297,-0.0805571244143554,0.09318024594364027,-0.23170894743360743,0.04596026584289614,0.034745534736449216,0.09117532793251176,0.1505966274499188,-0.013123175944312936,-0.027331341421358686,0.023381359662516858,0.0019329515866587548,-0.06460548636275391,-0.002070484399975831,0.0202015623449953,0.041569838742796336,-0.05364862932086727,-0.021019058626659558,-0.02991901509956086,-0.06761819544857177,-0.046260853531740434,0.02041036958887368,0.1239466890848372,0.012442366187091894,0.00032400045780323674,-0.1402416146149443,-0.05775474265830464,0.013698342901480379,-0.10969632020533697,-0.05144830758340119,-0.0692668087815654,-0.05009152020040234,-0.025083299367297453,-0.06819592615240669,0.12627698976538151,0.09352913224667303,-0.014346205336239762,-0.010039029670703085,0.09729107888778787,-0.0021362683291301972,-0.038890820436819414,0.06593503744016607,-0.11076117992378262,-0.06780458362070543,0.011311854518088759,-0.04766723079155566,0.020935437924799925,0.07804383880061255,0.11404573200795401
261.13543701171875,2.027801513671875,0.12254944651369559,-0.011062779055325765,-0.0318478326575325,0.0658426654014263,0.024402754806360838,0.028802565147375964,0.08606980049917416,0.043415517345171406,-0.01987198129178079,0.023461808425253236,-0.10234549360809195,-0.06566097142924066,-0.013953746784682437,0.003258985397083631,-0.06353759587934624,0.05664643437787401,0.12371254856096853,0.013691492536531333,-0.04124107820135464,-0.040299820934004936,0.019726600180686785,-0.10850511587518251,-0.11115756489027259,-0.07698657657823052,0.02709408182322003,0.056152113336896035,-0.09075196662304978,0.07549412095488146,-0.039442628709724065,-0.06992454762342588,0.20244810735309066,0.2009765111374506,0.02368272258320768,-0.11080577602350178,-0.02848258171820177,-0.01239757102265928,0.14211767883804047,0.19049450158876852,0.06307198100677172,-0.12434260390587777,-0.0012896471630726727,0.213988107401633,0.2712469668316362,-0.3963624879128324,-0.0784315852295609,-0.1564426357470554,0.11449847003466801,-0.15497780439328326,0.18156900771495993,0.1757924112348995,0.010135837407682619,0.07894368126907936,-0.24204850820669105,-0.29233458524348943,0.5238741379684555,0.20712994278629804,-0.09576398282983548,-0.009818780719256251,-0.0005026956697041784,-0.03306112608266586,0.07239934642324772,0.008780802309743128,0.037598659486210495,-0.07744755569738015,0.06836158053468137,-0.01196442530310384,-0.03118563873729022,-0.05783560716797438,-0.08111085822122605,-0.01537876080569724,-0.010648963009012236,0.05280610052320849,0.10551464308695846,-0.052397399565964856,0.029888706290867727,0.05767545736811462,0.176551650168522,0.07784230150510256,0.03934904103247361,-0.03255753568209732,0.1393066220606345,0.029760685937367838,-0.019518324967839187,-0.025095182956786442,-0.023893166538281198,-0.020143319490866014,0.015815840769615837,-0.037981270502559616,-0.007679817228014765,0.038946405495190926,-0.06291757083333273,-0.006107620417932631,0.027840157327334084,-0.06714788259088511,-0.023254534991006166,-0.04168131336112415,-0.11159458020992971,0.030944513327107792,0.04459905969715492,0.026847180938374016
263.1632385253906,1.878021240234375,0.02447031371209748,-0.07326141743858512,0.006013964955883484,0.15950530586904743,0.023054125583286313,-0.06022383547087312,-0.059168331828288054,-0.14267125516563123,0.05223828866798978,-0.04702015188206678,-0.024243194582756176,0.09838102324520859,0.04506051690223062,0.06289671772997556,0.16745108588314828,-0.0021837627793319086,-0.006235816724900831,0.03885623561855933,-0.05345181356553114,-0.13515458883618434,0.03603077124147176,0.02980793891139913,0.05110651526746318,-0.010054903274211522,0.175586349901147,-0.014713652932880166,0.08316074186602931,-0.1356016463137997,-0.062040313437362556,0.07584621524639804,0.03465808324186921,0.02584395460669717,-0.013159631834725329,-0.20653874128864144,-0.08187351426784614,0.06742260490479245,0.036714698297761944,0.0641637194803206,0.034202553630553745,-0.07647810986670746,0.30639127936951577,0.11255093337585535,-0.23643001043932757,-0.005393942465318839,0.329929635403034,-0.09400552880435399,0.007256806115668167,0.48175715168295796,-0.3726892052165846,0.30805104598573724,-0.1209173248248178,0.006054418714866908,-0.41842187499592054,-0.08911959786284183,0.19542179910515722,-0.08275946332454737,0.04286443408065212,0.053601741618046914,0.04325735507174833,0.18755590103609526,0.17772539467540957,0.06464279000906503,0.04439143366954842,-0.015393779823884774,0.008588544338351179,0.011802001064559827,-0.03691017489224694,0.04847836789081939,-0.03528253790012614,-0.1738936280356512,0.12553440046193648,0.024245579330459024,0.12082150014591062,0.08234769453970148,0.0357003661410523,0.060898049421856074,-0.06659290936559799,0.0479306943868406,0.028201387473955095,0.04109982043589646,0.1617921125709633,0.11784904249988642,-0.09517703254366489,-0.07144422143344543,0.029857246830590437,0.10312893853709089,-0.026442901700434143,-0.0011232461614168565,-0.003221242785847494,0.07979810739150149,-0.04286896682617228,-0.027670385100777732,0.008765856052616703,0.055295635338501285,0.02130929356057709,-0.029543400041043343,-0.012172889897714987,0.08773981699829232,0.07889250779866597,0.043225492935309806
