start,duration,0,1,2,3,4,5,6,7,8,9,10,11,12,13,14,15,16,17,18,19,20,21,22,23,24,25,26,27,28,29,30,31,32,33,34,35,36,37,38,39,40,41,42,43,44,45,46,47,48,49,50,51,52,53,54,55,56,57,58,59,60,61,62,63,64,65,66,67,68,69,70,71,72,73,74,75,76,77,78,79,80,81,82,83,84,85,86,87,88,89,90,91,92,93,94,95,96,97,98,99
9.3302001953125,0.9193992614746094,0.4550318816797365,-0.4711988268821396,-0.1348172667957956,-0.0869819288508151,-0.005743513100514307,0.03907301929976702,-0.12765925091556926,-0.058675001885986316,0.09714269054927062,-0.11099751478166027,-0.062055490279133305,-0.04547439258987805,0.013908741109595758,0.07960867272525411,0.050193183127572656,0.0506161609130225,-0.04579383794589464,-0.026661990827887824,-0.01456946331588295,-0.032279529031536955,-0.035150479717290115,-0.06642309673169935,-0.004878593853802754,-0.05379788070726841,-0.10989786424778701,-0.055434242988378644,0.015396081923952112,0.06756003376201411,0.00900966950626838,0.05602682909409667,-0.06383095842596238,0.0260551500046073,0.047211976606760436,-0.01325517272974635,-0.05627553201575323,-0.043111798185008654,0.09033385947177283,-0.03593416308326954,-0.07576718876690126,-0.07912009377094134,0.09625878194599216,0.024555298521923,-0.04413091834430331,0.026047391334805572,0.03577543137557797,0.0032998856656921926,0.06656440712648728,-0.04105792788026555,0.04352251558088918,-0.0666310772383277,0.06828038294934419,0.040845041871400464,-0.03713398187458826,-0.014499385832493956,-0.007476363552515285,-0.0713888070703731,0.05272484371167579,-0.022710592860084207,-0.03699669297620264,-0.071473906096448,-0.04952119680062743,0.0031660725969852727,-0.08243981196001454,0.009044101342774478,-0.03858205398051771,-0.12175625480128409,-0.09473502632004265,-0.008480623490976896,-0.01418301495968597,0.053788544606125144,-0.03133069692303293,0.007717211891150488,-0.04457299581439294,-0.020210528251780407,0.0241302809340771,-0.03441375557186074,0.025992702537430464,-0.035256549507201806,-0.00542995591530724,-0.025789382002823564,-0.05693306748165061,-0.038354892181918995,-0.150278569424885,-0.02100934761847023,0.034413170024007206,-0.5031613123533502,0.02959134066326724,-0.19609440169668169,0.6139789591978411,-0.7693197599059478,-0.7284095102300027,0.6415079238753224,-0.6802390250292972,0.04732935402839272,-0.4797568719234166,-0.5787287401634486,0.3351385046415336,0.03137059003050933,-0.21558400970443165,0.05541745321548186
10.24959945678711,0.9385004043579102,-0.21128339024198312,0.26185765088525775,0.08322369178569246,0.153032591638252,-0.02208403486047555,-0.011340790609508775,-0.028424868973336882,-0.12891834590934823,-0.0689177102406637,-0.04940750620032915,0.07053976210423941,-0.07120316871370859,-0.08120030975238045,0.03568852571114951,-0.08078563577397214,0.0729069128140981,-0.08425678041688524,0.08311660572404587,0.017678205689892836,-0.009493344524020873,-0.027549262810555704,-0.018627177040110948,0.03821069769801258,-0.01987754205407684,0.009762112260147896,-0.0024214064613241972,-0.03663662272760903,0.05301426809404157,0.13911577760090463,0.21759443015840244,-0.01687959907976152,-0.09880291717772079,0.088975109665699,-0.019430063159095297,-0.004508790535458939,-0.035254535221500585,0.08785281375819691,0.022847162956887233,0.06058974769601694,-0.06855423726150521,0.01587863503378462,-0.009145022747690374,-0.0020566624493845165,-0.048853442672011874,0.05781794099802887,0.05338734655519803,0.054779783008711946,0.00686118345149767,-0.020360908003161628,-0.041394657440071536,-0.06635630931245438,-0.0618773274617424,0.09984542646408079,-0.011166266258659088,-0.004342432584066892,-0.027565046791514704,0.0036904317248003214,0.02585918027803391,-0.08742789385499435,-0.02164163141976054,-0.04871898263580235,-0.03983839067241249,-0.0033137705974736528,-0.05647659986475834,-0.0620969601973783,0.0001955999443004927,0.002543368808262385,0.005546872620182289,0.023822662852330305,-0.04381153230388888,-0.025434304146429634,0.03279518418750457,0.0354306552897579,0.07562120565521982,0.022242435697428523,0.00248163709157576,-0.06423766343607774,0.011129204016761799,-0.10056701422501643,0.008092257699205593,0.0696921473787358,-0.08039239898197147,-0.05083461576845601,-0.4760506580546165,0.6335208382653911,0.08839053748388576,-0.4477984801331905,-0.0418254963316312,-0.023309894915124973,0.47253150072714123,1.129245676758906,-0.37525323732525523,1.0657815168656417,-0.7141520124819135,-0.006923546635370398,-0.16044551709379534,0.052161797235760615,-0.25940641709325607,0.09027152922009891,0.10263169812645268
11.18809986114502,0.8795995712280273,0.14121766664355778,-0.04739700586021235,-0.014061955326790412,0.16307996183106083,0.10663230821017501,0.009885996402276859,0.056687253016230385,0.03866544989541598,0.14370654033584923,0.042225893957473004,-0.03777188114482213,-0.12309776100999059,-0.10669938224193382,-0.0680257409320023,0.06257279969796077,-0.012238660249533913,-0.029983743899193026,-0.028511477330160337,-0.03596812181748054,-0.02898671020757497,-0.001273490762165615,0.004823462501855389,-0.008407099082023473,-0.013299561849567168,-0.0055754268775844,0.023572859809458127,0.0007042523009570747,0.04026970106547732,-0.03318977341089176,-0.042755337165266576,-0.050377718039070575,-0.00820750085997712,0.03513977344640776,0.01509621830078221,-0.0468070191135298,-0.08517505150000097,-0.010183684578049697,-0.06288678443333201,-0.02208823806501031,0.007737191609012116,-0.013857428231841908,-0.010248644917572224,0.003512366296055165,-0.04782712558123353,0.03562592500217881,0.026762108836476436,-0.052297655003955446,-0.056288367763686536,0.04735951570230667,0.029097491583761608,-0.07245500201923126,-0.07113629696515013,-0.00977972690261696,0.01448106866654737,0.03560759455792558,-0.04809204882271273,-0.0847190885472824,0.05255860192510955,-0.048732003874568074,0.018053367088188964,-0.028602896927428893,-0.02552397223282072,-0.03473918891374684,-0.049201141608365855,0.11282391763246437,0.07282642967318648,0.04935592073617252,0.06475179315624698,0.0362106134999328,0.0030570758531151647,0.04845922371778333,-0.022474428835547417,-0.05227407022387791,0.01943542908780273,0.0043143093814301745,-0.01638642544195778,-0.005018281493399002,0.024566564876017927,-0.04298402466995835,-0.10628589579537084,0.1002771063968051,0.12062910564994475,0.03163021397488053,-0.013630550070110155,-0.1628478886906926,0.08251555459821615,-0.6757283127546139,0.13522680889946936,0.32071738693689206,-0.029222435775329784,-0.6717705774585483,0.06564278303612076,-0.007696804966963497,-0.06296086957136694,-0.06796252949291318,0.1580060397182754,-0.08554326757131679,0.4276943561937937,0.20441503585116244,0.0594594044830508
15.133899688720703,0.8989009857177734,0.2999211517323857,-0.01639170993156773,-0.04090813286859771,0.019699133246105647,0.01972417590893831,0.06611990654323471,0.03837039995280103,0.13793013251081085,-0.0524000900898144,-0.02233473553741776,0.038434132363703785,0.019629603802192218,-0.055965152135292975,0.03712463657226369,0.010712429700903128,0.005486779982840917,-0.06844300436193848,0.04793823414934681,-0.10624219760940438,0.25899528152153034,0.029212710861892338,0.05314649900413794,0.0813763608603616,-0.0037588565517351147,0.07512993443708531,-0.08043866803720573,0.06582249730800652,0.051253190379496674,-0.029489839379560314,-0.044423755671425695,-0.04225932970925019,0.06112362405773315,-0.06044553074378414,0.002379778941914248,-0.040260313994708086,-0.00016856521244679873,0.04246177960295868,-0.004681357951946685,-0.06291950302036284,0.021625291201944175,-0.016735940894551445,-0.004762038765000843,-0.000858038755900431,0.026073589385947882,0.04260405976710316,-0.02163636661823679,-0.015840936929814434,0.0012375265678272766,-0.032219343413181334,-0.04841396799452692,-0.08637057680410432,0.015506805008254687,-0.012080132215294938,0.06035773331826653,0.022906221618786644,0.04204688814252825,-0.025501840687528674,0.045291364444317334,0.017784411904390535,-0.014020352768483478,0.014913585426197785,-0.02485550104367308,-0.08391175436309753,0.0010950037710792428,0.01680221465035892,-0.01909384166272518,0.03213176433596233,-0.04149627446525754,0.013432780735411941,0.02238080670090293,0.022809314349124258,0.036493616524901,-0.03521147952817485,0.017125344883800978,0.01992890156387088,-0.07653271335461191,-0.018682062272847633,0.03426965625770627,0.15371077738393527,0.13709251077743323,0.17525160101117343,-0.1222072711569033,0.054871285842849234,-0.42338891916775967,0.05563810575864325,1.0892630849337264,-0.8350417651332693,-0.5774132480423126,-0.22478128545289894,0.785310890305238,-0.6346684612585651,1.5499755891678058,-0.0026243917323867418,0.21795802392121705,-0.18680744230565802,-0.23896957166632732,-0.12346633000388915,-0.47965134880626265,-0.4732546158128804,0.0600132565106144
16.032800674438477,0.9194984436035156,0.09982636776982767,0.11041742854396984,-0.058789864601712594,-0.19216107878246752,0.02220696825910295,-0.014357054335503248,0.12956740807055905,-0.08692552569295661,-0.02391103155070648,-0.005846323903338663,0.009087070065633548,0.08412636823042328,-0.04977165179801168,-0.09969837873347227,0.009009836534031708,0.0481580096212402,0.019238107121386048,0.013447189556704696,-0.05202431041608625,-0.01839636371272989,0.018661326649888857,0.04689685279602887,0.004575641406383488,-0.07828255642605633,-0.005774394721100244,0.014938367072191837,0.029882183919071843,-0.03157152735772903,-0.0802391708391489,-0.033469671050278184,0.011610851016973345,0.05563872637004477,-0.014429715584876511,-0.05729709278048956,-0.04110944965707731,0.05790442339290962,-0.034392967846053946,0.1621173527918005,-0.023662022745538747,0.03341477820804629,-0.00025909461123703806,-0.05569940860938879,0.04256257267002375,0.048982157633597825,-0.04388669520622034,-0.041952266148583765,-0.011130882430190997,-0.019616935025930562,-0.015774441838198403,0.018414546882393246,0.008088013205688555,-0.04111082856069926,-0.06722224357078346,0.07383588159954767,0.002408415674932006,-0.040798964816639575,-0.031326565484773645,-0.022674662875762995,-0.031281073997387575,0.10052291415545347,-0.07091466606491581,-0.0028330739530782,-0.04233057166486425,-0.019931214742547592,-0.09388766051586449,0.06398550804045872,-0.06840446321622115,-0.07572755901106032,-0.019954113889950015,0.014429116661146622,0.031880749304991365,-0.014982748809448275,-0.03820556585063443,0.032911084486198686,0.02239446480690202,-0.010096906206004709,0.026734261586959397,0.03898571351610723,-0.10718537736444111,0.49296703831635913,-0.17238065291363636,0.044965372734194486,0.498808994715008,-0.199145995948613,-0.6427701305432677,-0.39890910580094374,-0.5643602216194651,0.6604359601885554,0.3255950869950919,0.13856791199359944,0.28899062144389087,0.2052875962456156,0.5903670052485978,-0.8056800550475391,-0.28657192077834104,-0.509042930890794,-0.259656731191491,-0.029970224177504015,0.04110542855637454,0.34956705798168525
16.952299118041992,0.9787998199462891,0.23873969844168502,-0.021370327859254426,-0.0024237382939548023,-0.04769085041952291,0.10696881811155169,0.03660884585071355,0.04259397097760801,-0.024513197418676434,-0.029726254277960967,0.007589494650209812,0.05742128959968449,0.07863143819879763,0.09036994609919625,0.06777761717447814,0.20419446901073002,0.00869637723177818,0.03316156065904121,-0.0777803723842169,0.0066398490765588875,-0.06373383668529564,-0.015488682148752313,0.0475874119668334,0.0023860690761093,0.04547865970722271,-0.08211283541281356,0.005871952691115157,-0.07260772249125066,-0.02369101988709177,0.0646819178651081,0.05691464070677879,0.02441136939489707,0.0019672238817861794,0.024548736456225132,-0.022161581826631728,-0.009634751996845149,0.04296869883646144,0.07984595940980674,-0.012928331292803815,-0.014847667287812037,-0.010154635155985508,0.007925915439665478,0.02196600546207415,0.0377868376183348,-0.051800048901259034,0.017601945277617013,-0.017428997653460513,0.043157341677954486,0.004904873216295215,0.035639081394750874,-0.021830977423925275,0.008933127081813909,0.0876876723855505,0.044326377537683655,0.003969328560253074,-0.02570957724212277,-0.01498154947082107,0.07153107732960026,-0.042865202248527356,-0.06439280642171571,0.025346887634396714,0.025517392050418045,-0.01653970642271787,0.018244412897787443,-0.031120598632757894,-0.044745153109385524,0.08644173819566119,-0.057853125231994894,0.020865536564707292,-0.05777394476762072,0.06550377183960812,-0.026152219818154934,-0.06313960727293252,-0.03711843306038377,-0.061327838138250046,-0.034250439696331576,0.06659384695770286,-0.024792740072371033,-0.1286241090634788,-0.02824124880068478,0.0228056285564992,0.06933843693109248,0.04464115178886696,0.11220019837218702,-0.282442992064346,-0.1084260824139452,0.15847939179896656,-0.8194818779982751,-0.32177956230844207,-0.08790466402414038,0.1519604460871877,0.34707524989761607,-0.4205085740786665,-0.18859550745323767,-0.6698719949612237,0.23220571347151148,-0.3761437878715809,-0.6600391035299523,0.4224672927692777,0.1430420483655364,-0.11909519060460796
21.63680076599121,0.9089984893798828,0.06013353852618117,-0.10246824181576851,0.2760918316721403,-0.0919934666968564,0.06496597875273054,0.06778117433291453,-0.15822535205688695,0.12273443150595156,-0.03916434640540137,0.015441258668294142,-0.16178159163844785,-0.06913004758803884,0.06762094793890067,-0.12255231229564105,0.07382341793766105,-0.04323435793533002,-0.040913127431551594,0.022312279426591173,0.024298992816945534,-0.03896158159773766,0.03547272302063725,-0.03709312022883769,-0.0005721912979929903,0.01270147566602288,-0.011853882249901235,0.017190067400072086,0.09250506849304273,0.004457005159780895,0.048466729947318536,0.13198748387341136,0.1140378137471866,0.012846767837965633,-0.05098753678253377,-0.06931592712981076,-0.03031719052302139,-0.024244404682572475,-0.09500235152687364,-0.04950715073658461,0.02417337034438225,0.03199886806481426,0.011131807978517413,-0.008611860683494833,0.0035362454143771094,0.017557802657780883,-0.04039318684257734,-0.03200265498833728,-0.04889530513499974,0.028687558728291162,-0.021242921238775733,-0.03892524055033297,0.07182334527778127,0.01013009019159283,-0.004135020332971718,0.005306629355647095,0.0019767154571249633,-0.00422860303266788,-0.0026521121872690734,-0.05931115380765337,0.06446310710091052,-0.0009841023274637468,-0.02010892110406105,0.027286690097771283,-0.0032970405350413456,0.009808730123911754,0.09481714465486503,-0.07709460638287219,0.009700524633576952,0.039893214283136684,-0.014840188353354057,-0.06490996839045067,0.01381436747450441,-0.020599111734789455,0.024104272590884122,0.026990373079431085,0.06051541790852216,-0.04018583942211752,-0.015294072296174015,-0.004627594945728236,0.005784085390331017,0.0139853910341802,-0.09217312346100241,0.1723080820527283,-0.08661180296253917,0.3467329054211735,-0.40691321659685586,-0.479095166889632,0.17751972477939867,-0.06212859040748914,0.5710637802944418,-0.022772302687092155,0.18034992586216853,-0.13169861950777176,0.38519215867471635,-0.14625031577537217,0.2617498137876023,0.349854024798246,-0.1034410332247634,0.14381789598881767,-0.27547711199149727,0.39037221708300224
22.545799255371094,0.9194011688232422,0.466640071911711,-0.2237446438216493,-0.005156474672661528,0.10215075307618329,0.10362684007706639,-0.11661209007288792,0.043104854862793,0.04572920356082649,0.1454160848641392,-0.10262461126446883,-0.07010670021847801,0.16482798091913267,0.09648199401337822,0.002485292359129686,0.012279024035142467,-0.0415731745864116,-0.028468362049241067,0.07327627971211911,-0.05552365548137425,0.007643677539219783,-0.01155194834024469,-0.06941732924834551,-0.11108978771456932,-0.06091558198997654,-0.02684637684717104,0.0028381303158063705,0.04836941533794789,0.027411240885279096,-0.05662743866281834,0.05151841264827518,-0.0296542949344865,-0.0198582462829838,-0.01525336667653434,-0.01632292332027621,-0.014420504783362513,-0.025086026725942193,-0.07825251361830307,0.03339513982056677,0.08180422264907643,0.03527871359589523,-0.0022980445215040907,-0.01353701442501141,0.0376900641336918,-0.050426341315962936,0.0030453166627459945,-0.05019557344202201,0.03446025586207071,-0.015930893030575627,-0.022798952431487402,-0.03264642189116405,0.05743418273339371,0.08576417532009975,0.03850877582072355,0.017517886071322257,-0.05522599306817014,0.07118455736002724,0.0049771396297344,0.031640845081098684,0.021113558648374164,-0.009652853334889048,-0.04311370209930545,-0.01341395100091261,0.05001187020845512,0.0003450339475031608,-0.08978964782998486,-0.13043767623940494,-0.01221128627750969,0.01363803511713084,-0.013601479232996394,0.010196163880706825,-0.0005827800168391652,-0.06852103101664919,0.03678945687793106,-0.004071884779517235,0.022894270910872986,0.0018838131448902944,-0.014342908273754514,-0.04706881786215937,-0.002812176726696896,0.037850682666735004,-0.14422956507148404,0.2791002537721539,0.16950868774575922,-0.1349030114101053,1.3256112766524275,-0.2714434087381044,0.03575947712061585,-0.06869890512709279,0.9352788315621453,-1.3140713142889975,0.6076876602124596,-0.10515339942561011,1.4093627862912532,0.4340245271735733,0.8183574803014796,-0.45493624029928365,-0.17126844133264382,-0.6249131174445322,-0.13543414714559807,-0.12647406106674533
23.465200424194336,0.9088993072509766,-0.10301249907632828,-0.012577629522447606,0.07321129169789338,0.05406216055651325,-0.021393885561970333,0.03614246959464274,0.01587812596998618,0.05450639985964662,0.005385371831114214,0.1387871463344802,-0.0342066407643194,0.026188668444416998,0.041838899552429365,-0.04307767994930768,0.11297015505627706,0.08285278811058987,-0.03572217154186182,-0.0024894875789831005,0.019675755430495382,0.04429330703272651,0.01039438633741814,0.03434438367023111,0.025422850508175582,-0.00036615456171253623,0.023349672326911947,-0.015289894708080905,0.03206890608138545,-0.07744419609784278,-0.019869881807702734,0.013712552170617134,0.0035206167722185338,0.006679716166219091,0.0043961072109299365,-0.002432317783679016,-0.026760412954394464,0.06722078333388799,0.05341110135902005,-0.0658449299227999,0.07525060296446852,0.04480625787357498,-0.029866055853083256,-0.04223460935038231,0.011338139393723537,-0.08337112427736913,0.01991200754639739,0.08748900127692068,0.03304087617373872,-0.010429066082558433,0.016920164287909906,-0.03555617314680255,0.024307624186447264,0.010553280821046337,0.03789897950312161,0.019770961421571268,-0.04676172850128353,0.002071244076747719,-0.021515424182091167,-0.01254794658359324,0.032473990635585225,-0.02949519887391293,0.020328598472755047,-0.02715142827980694,0.0349425486274022,-0.04252544933645729,0.09196207236323767,-0.03344341094171932,-0.01879497938237228,-0.01995089666340864,-0.0045119268943337055,-0.026972182850231834,0.055864667063771065,-0.0754729393265679,0.025748509550501873,-0.04119003206609964,0.023353271671549766,0.00018447802203272034,-0.026004453454798036,-0.005080670868545712,-0.042291298125973965,0.006255918648435013,0.07026475757779285,-0.03287534896837719,0.6766381133961705,0.2739041969709475,-0.1063016086116784,-0.7271713405371913,-0.4473395122374079,0.014636873650964036,0.16392503934064528,0.3824620760736711,-0.0007473072320227855,0.09532766768003678,-0.23908709331835662,-0.34909695237573085,-0.30050321544406583,-0.2118855086567642,-0.01615498024534229,-0.04735117749935296,-0.5643699408076581,-0.04913492183389459
28.17009925842285,0.9085006713867188,-0.42342927737087277,0.4611658860693333,-0.13428554624906158,0.007714757481734371,-0.05271027876232536,0.007859964893041,0.1083498532778959,0.04018262054226989,0.0893343269317694,0.021465625020073303,0.09263973658173974,0.033257181814738065,0.08549340605951589,0.06689628823899735,0.007887141215444532,-0.05241030731875898,-0.006775126474257945,0.08575282383616996,0.009761852409343658,-0.028055729493858338,0.04310430330109208,0.009065703876924184,0.011381841110563331,0.024768987898065253,0.030293526069635583,0.01536853621506662,0.018441201032998275,-0.0668976606120687,0.013332960090489036,0.0014930343981107083,-0.15192498693105028,0.07375796503653483,0.023068426990853493,-0.00929263241297949,-0.09568079359416393,-0.08683636016299347,0.04544170507723656,0.05256674511006464,0.08395213442648052,0.026389405266882018,-0.14082263340303394,0.018388769155806898,0.061734927907100653,0.00025786458795749173,-0.06588933728558001,-0.05026037029024266,0.05217367335704974,0.08072814789189796,-0.0852993763747856,-0.015646005307846815,-0.06848553277566086,-0.0021661196561488356,0.0007945571905010542,0.03089831934305231,0.017206150771935925,0.05279661804891729,0.02163129020662954,0.05455519015053145,-0.03507827410528212,0.09750661374010296,-0.013137907370100592,0.011290217756407626,0.10822177160311726,-0.06108710823976539,0.02239839567009299,-0.04066323036863801,-0.06010353700850352,0.05645092875083297,-0.04557403904167551,0.0638974546801402,-0.031059699167273386,-0.09936177997191677,-0.06813154261300805,-0.008635335696304501,-0.004648004724886113,-0.029803157570807516,0.010542738447197858,0.014831416408063777,0.08202733884551415,-0.02117295493340812,-0.08105925913160983,0.31950728775781606,-0.2791973437754569,0.10792030509563794,-0.8970137166689174,0.1969819059036672,0.31111333739144476,-0.43268307173033077,0.919762461381035,0.4706283768872575,1.1649385465628723,-0.4635035988145929,-0.8250078885287193,0.5888142478702574,-0.546208215387057,0.0691308855036506,-0.21452585353364823,0.08411664532689905,-0.2696409419946738,-0.11295173510550946
29.07859992980957,0.9692001342773438,-0.3441309323272194,-0.22609281999030445,-0.029807405807168164,0.06416179172742456,0.07877416276036163,0.017224578424608852,-0.15660482149258473,0.029454292391515827,0.08286123244626278,0.07785756490132575,-0.03534277323209947,0.04494954317260052,-0.030254702996414425,0.004559532465904746,0.05062092986358871,-0.12068222699652077,0.04765313918752748,-0.0006225912840102663,-0.0056634067117207745,-0.041277856159287314,0.015396209733043195,0.07360795826103837,-0.017558749681365966,-0.012196235643710997,0.009318442537982157,-0.004428538500986396,-0.009992831044625873,-0.007740148919542105,-0.036398602005791064,0.056525614827814055,-0.03662015055877291,-0.0034052841138887966,-0.02284282778241215,0.021424312632751692,-0.04971202195656028,0.043972932641553025,-0.05935199074791391,0.018441342505963083,-0.0017991655319343762,-0.025003281181535175,0.04526596664153233,-0.04182051988778721,0.0749696051736198,0.006310100337460012,-0.016299302072410236,-0.016716215135886187,-0.0639532697702668,0.07129031946432268,0.007157209563780255,0.010120918600483688,0.01880826965938027,0.014855386852338198,0.004021389317793684,-0.06572250192643164,0.058914212168177105,-0.05028272501994347,0.06222002887822956,-0.04751547698899635,0.0370013713384508,0.035498604072908,0.03777795902041907,-0.05681922040407933,0.04134791254152105,0.012228182529764375,-0.09508164993651042,0.02480504140345294,-0.03476201850129858,-0.0991088055375281,-0.0018360309224908153,0.0619220928854228,-0.051661896298155,0.031127406315353205,-0.09465746460439774,-0.015176637222299963,0.04375228460885308,-0.021357260835312825,0.03333842110325225,0.12452892055261655,-0.07168976520132511,0.030773863227075905,-0.10766187287558145,-0.10786743124198658,-0.0215528656976955,0.36881537393718106,-0.03160823730217552,-0.32884392670111473,0.27007521198750234,0.4517783230150454,0.18195868860167325,0.5853943739922464,-0.5497992753654553,0.9069466184804786,0.562370993369591,-0.365071973099801,-0.47887469608070266,0.20957698216057527,0.10241012609671685,-0.31905572337562904,-0.029204965237883337,-0.14171493674890684
30.047800064086914,1.9775981903076172,-0.1093055664708262,0.12379705623431402,0.14476787808854805,-0.08602127754101133,0.11459028975075818,0.07082341383933813,0.020440078682719957,0.030842007178596642,-0.03428863080725356,0.005554233183356619,0.10823519668328552,-0.06970188255986025,0.04781446755612323,-0.0026397560217337,0.008268461595104888,-0.028566177339181847,0.05191756626309173,0.01302589515922492,0.003923972094042041,0.0019024789577524702,-0.021238778350928966,-0.055177986778742,0.03215753940418359,0.01025356943444541,-0.01755239303337607,-0.017355573241747423,-0.025924605409680578,-0.04499483561939695,-0.03221090078839527,0.0032914484266245575,0.0041564474973369145,0.039464381761898974,-0.02323679098608088,-0.010571798730920364,-0.0009173843294838779,-0.013395321938894363,-0.07664950213562438,-0.017306261015844863,0.0025935687153395793,-0.07743627539106068,-0.03799633520514503,0.033190192788339165,-0.00374386064930457,-0.012050073181508993,0.0033593797075412487,0.05006323540957888,0.010571768676805433,-0.03148343294507921,0.09026062219324893,-0.01606305482944962,-0.05874699330028067,0.08373247082805405,0.023930691610209158,-0.016266472420040146,-0.05135472723335861,-0.01287018756870054,-0.0013457658019957325,-0.05099158778421755,-0.031056540216779623,0.027632314470512634,0.03164049055986625,0.051666373861282866,-0.018127801256227996,-0.09568598892975702,-0.002015357030270462,0.019318793773164096,0.02644355901302195,0.02891014616651298,-0.011589800415765142,0.006159541904779445,0.030434630103529352,0.010107099037901066,-0.062149144754739004,-0.03482630405243763,-0.00429487223976881,0.017738657530126954,0.07318661602381869,-0.0532179343601256,0.006419017289678575,-0.07939382138004021,0.110094737768722,0.13548489330115726,-0.20951407357549354,-0.07368611367831863,0.21549883210529505,-0.053884714244631274,-0.17376970715361967,0.24122554591412465,0.3113876437716308,-0.010775688617788437,-0.1743252113128897,0.15528593895959977,0.22418517706954239,0.36417134675305984,-0.26615807153067944,-0.3728233232282245,0.09060856362705541,-0.40197724976321364,0.40873672726149407,0.4652458687012359
33.76359939575195,0.8689994812011719,-0.12510949264958612,0.17966923033815987,-0.10525133737549533,0.17063454090072694,0.03128086096673763,-0.06248442812744489,0.06298951691662957,0.03363402958574502,0.10338371571623027,-0.06718011959023433,0.13187739868533496,-0.11790952948069185,0.10536790309019042,-0.04430782836408346,0.03562878165663422,-0.06572309002600264,0.10253638343357221,0.0029111738894611813,-0.03465325185205205,-0.04781665920410046,-0.011322841032827493,0.0017612708791344502,0.0038251625389160103,-0.03658964027042602,-0.017405256468580335,0.007782875664292513,0.017490647291326798,0.0574349266173845,-0.012103331406347676,0.0019668520648196235,0.06558222438860417,-0.02500106844304991,-0.06492814871770154,-0.04058011661669331,0.05192722754189255,-0.0119669386016871,0.029027085180069377,0.06014480152793933,-0.03780412985242703,-0.05156939538929697,0.04596969879038984,-0.03866006436801346,-0.06198105138572976,-0.03172264358900189,0.021256535634349295,-0.04713193085719439,0.007958509295641564,0.08673363835889425,-0.014858648450890653,-0.0410336384199521,-0.05558890483850209,0.04252392418054242,-0.06291737005816349,0.03835310311432198,-0.006964578577371223,0.04877254371975883,-0.010034337574191508,-0.0587165890822479,0.011708632101559723,0.01899632788997327,0.054043047934694353,0.029138878212148833,-0.03997600260445906,-0.012168192375367468,-0.03933658437222012,-0.011536613141849925,-0.016404952104987464,0.13042775306567464,-0.039172207236164464,-0.04625001165649172,-0.03125424055227245,-0.03126452959790732,0.04347909150523614,-0.057231815749597105,0.07684961937369127,0.01062975575479518,0.020726823966981944,0.0372562711142109,-0.06261960312318038,0.16804656321829275,-0.11696889339522883,-0.07386335364440362,-0.2967270530657613,0.9481090221224723,-0.272376002462289,1.2710524475734493,0.011835100978691698,-0.2846262744413064,-0.8851799692382291,-0.06214585769273279,-0.04404131919508179,-0.9544954675862427,0.2423371876539842,-0.5109463735197622,0.3095244597456364,0.5056914611303025,-0.3037196229716083,0.22784977936322087,-0.1902585750503708,-0.0608846952990561
34.632598876953125,0.9489021301269531,-0.11423922190530289,0.19278681491484534,0.17194573685236214,0.02419395638767563,-0.09774042879224733,0.12624661297844536,-0.16956482826330807,-0.01264403907496414,-0.08242194754320731,-0.022843466832074336,0.05958132062544949,-0.12568039526273583,-0.16901412080884523,0.09401723931860172,0.05141438919181522,0.2366115758432073,-0.0995867934623468,-0.0035220827851385403,0.035567881583216346,-0.08800109799751148,0.09086190583992584,-0.09457545735799028,0.06663540770007366,0.039293397380766364,-0.05596153626624757,-0.03593317232277626,-0.008424007745341843,-0.02928296330446474,0.05059642816000095,-0.049106404354877745,-0.04091449258644432,0.007620544851868542,0.003426418549234811,-0.08579078061040542,0.09007164391212868,0.10893226929684419,-0.12051567052473028,0.04497055729814576,0.007415372619112796,0.031582724799756566,0.0681662812843764,0.018549780330686213,-0.07976086302519635,-0.03966558102798212,-0.026693464215960187,-0.033622177305557645,-0.009337594790539376,-0.050468441412110855,0.016771866749187514,0.010979512353137544,0.012335851585640219,-0.029601186946518265,0.05213825759346546,-0.03911355173470138,0.0635608810100132,-0.0673888959067473,0.013396423373004389,0.04002088249544426,-0.03443305800338915,-0.027997101932357906,0.1630128196575219,0.010732909804273542,0.1428088550886594,0.009047670049547946,-0.36461101157801207,0.027111826732870915,0.02262997962829407,-0.03851756155195085,0.06579870964975955,0.10238795017793534,-0.006930584402642501,0.05804059872274027,0.0002574970677123573,-0.007695233761326754,0.06423944583910056,-0.0292700854474147,0.021089427489787167,0.047675667966753404,-0.028815981140133753,0.004004118514234408,-0.002380257827844815,0.06801097809425442,0.2890562434028745,-0.005894454873781969,0.41510290789164,-0.1798317629156656,-0.42172030047335257,0.17967212821969383,-0.41013819014401726,0.6232259916456018,-0.4594403869726328,0.042972653948468414,0.6886653635958511,-0.26115763091373495,-0.3902046195344531,1.0021762681018473,-0.2982874419822642,0.15743161557620822,-0.15145717576687193,0.17784765331658917
35.58150100708008,1.9085006713867188,0.3197078988632599,-0.06748069434465923,-0.004343476267059936,-0.16751393252529181,-0.026225993703675725,0.10780665421703242,0.08823402274128538,-0.09987216986205211,0.04935333914168594,-0.0475509630980369,0.15589878336913535,0.012055506125815765,0.08158344095555337,0.0684700844877133,-0.032500257776564484,0.12691577498419618,-0.006214901664285219,0.010675594075225128,-0.02368449746063856,-0.02058014628380826,-0.02057895222924646,-0.02245980579782491,0.03468870274412592,-0.006995755693168452,0.00542535239019471,-0.011782144071657499,-0.020392611728249466,-0.030427480689796726,-0.057775590983276365,-0.0802834800027511,0.004198427726177584,-0.019690918431235962,-0.17164203503498304,-0.008435535510100043,3.7361065935145876e-05,-0.06314162905845404,-0.005377729591810464,-0.028153906476315646,0.057873982885871623,-0.09187454778681955,-0.000527164682179486,0.013808395513608034,-0.010922029979068533,0.004148066995836584,-0.01583661048443291,0.011348822697925847,-0.06632653939506328,-0.05737135064948069,0.01263025621168383,0.05585941534232798,-0.021039726833483003,0.043756642750850686,-0.0074426646493765125,0.010519796561771759,-0.08931112149610534,-0.06490142050386707,0.03983023834239475,0.04436667919138883,0.027720456313327056,-0.02829617220105988,0.06961172432492013,-0.029095880339946263,-0.009168414983219634,0.035916841880743865,0.07287354905038246,-0.007982078451021604,-0.08708953573751578,0.03885937742139765,0.10398827564906718,-0.003880676158747369,-0.01992060220657477,-0.055903357668592946,0.004151838541025515,2.9185642995570402e-05,0.05140352004835402,0.013894474486677619,-0.023106371137531972,-0.06400510559331866,-0.014113665524536863,0.019253194514448808,-0.03196736979010349,0.029247543478037076,0.1892453068896354,-0.24345033976712022,0.44524995253591027,-0.322784548233221,-0.11118226118256173,-0.061558110435521535,0.8565117534605435,-0.6372314489392344,-0.8596060690623646,0.7864415675706954,0.8328707961294481,-0.5910452929811468,0.13961477363081334,-0.3460145248910845,-0.2947945077527506,-0.11279920234840485,-0.015765752531508873,-0.2516969238610479
39.23740005493164,0.8791007995605469,-0.7163140681036395,0.20345592177633998,0.4256359531236527,-0.4270986167389898,0.5348391173624849,0.06615921180105283,0.2557677448083135,0.05525276371467433,0.05196004879576378,-0.08383747196516461,-0.38517862905204897,0.4671191386613439,-0.0341364590700558,0.07526666969258713,-0.1705967884582191,0.5627317042374099,-0.3608045020359284,0.03745625746962114,-0.02373300055738285,-0.02746143383334817,0.03314359407224647,0.0028196209492583058,-0.030949163823863403,0.058033986485484426,0.024815943966853313,-0.01515764438646171,-0.03476547447823341,-0.011308244578927434,0.04497869732667352,-0.042934937284477434,-0.04889687128900624,0.011241705920968396,-0.03675611218710465,0.010658257174173312,0.034531173391381065,-0.061057499892569686,0.06953504299361547,0.04842516657718053,0.07949712840506201,0.0022077925514574007,-0.02938145155991194,-0.02816775111939978,0.001537812975937164,0.10492482082521351,-0.018235534700271352,0.19795793340995663,-0.07153860199561098,0.012467121466434687,-0.045721941717623504,0.05732041697159972,-0.043115477257515814,0.01733111724109542,-0.019215037421515285,-0.010270486243984057,0.03773522493350445,0.03700691901930431,0.027222792378570417,-0.01321998787957136,0.055318214644246674,0.0166043728312692,-0.05272499926125459,0.036623382722533765,0.021767307297561177,0.06494981728256947,0.07623920082180712,0.06016946568867099,0.041445597481065286,0.015841735257668976,-0.060820792949596705,0.04948471021763199,-0.04659764335800176,-0.09882365035985245,0.02428394917587405,-0.01161843051485817,0.04716548454910449,-0.05293331635933246,0.10536388648210065,-0.018604517326035696,-0.04071998690091203,0.07865503688645714,-0.18523993292904695,0.248463473799611,-0.07201110551081517,0.13519487549949677,-1.163451750308695,0.43188348229030094,0.7867200247766848,0.04362140111760715,0.4655441638897318,0.13068634859984737,-0.39651574630362263,-0.18877762830245215,0.9869390842353308,0.4334034344962364,0.3944937193009208,-0.5126424990254754,-0.5917884427588097,0.13063572046352276,-0.2605498466386424,0.011615235073733104
40.11650085449219,0.9091987609863281,-0.1372559172908277,-0.07007248666725405,-0.023123344935320027,0.0462843832140465,0.08610728702917664,0.0544563453714454,-0.14645496863677082,0.030265082011906114,-0.04290298431637047,0.033334631649621416,-0.05882499141469205,-0.11622385423107535,0.1147242129785035,0.01373881113387242,0.022976550250471874,-0.10708849578984811,0.022734711177383012,0.0724538450477358,0.006003446543326532,0.018732009611517775,0.09135538041672947,0.06939226366544635,0.05836778840578489,0.015044284302244436,0.03337794572176525,-0.09735002421543645,0.07252509703303786,0.015970794117350598,0.012382556502518202,-0.012832417897599924,0.0435337511626965,0.0408395201858289,-0.023306416389780583,-0.013444639878828596,-0.016649758859871914,0.050813626984313506,0.026625664669894338,-0.009794420401339647,0.004002296884252979,0.056368149396631956,-0.05713933314569292,-0.04550176721209921,0.03240931089185338,0.024605709144275664,0.04941628004048996,-0.01398412324498012,0.041690836696205526,0.053120679978610724,-0.00834568202023754,0.016207716747499643,-0.00522028842102722,0.00018727811566599667,0.018611788363106643,-0.08145786997659613,0.023205513370004007,-0.05906631455649457,0.03995428081063243,-0.043234260921584,-0.009525731035830595,-0.08721783785170305,-0.03535012151880546,0.02411334026553954,0.061242525076871265,-0.04173894396185423,-0.07254596840790434,-0.035451380829619274,-0.019640228327223713,-0.02224553948034472,0.0033130493338265976,0.005892483156831691,0.055966311866566906,-0.0457613917834032,-0.02847201543023512,-0.02544218268804625,0.014411371482631288,0.0012993003611630714,0.09759127838874135,0.018929572453559224,-0.12950833974324397,-0.11977391401816895,-0.11392817708746603,-0.10970432834356839,0.43202211757915393,0.5037043663947433,-0.48932911073118646,1.2260321499343483,-0.572740131780806,0.09792983308302577,0.11836702456812395,-0.3996879752327745,-0.31968227735839605,-0.03536428705243415,-0.20460224774073077,0.32372995275022565,0.607559066080626,-0.25472584350522065,-0.34067202202789404,0.5532138062128553,0.8433866363462974,-0.30111604647717766
41.025699615478516,0.88909912109375,-0.2975892689199943,-0.4820910192335369,0.16178521382345784,-0.1351381795074676,0.11391937472604784,0.04196846748127206,0.0513531082968451,0.02434802838994341,-0.06604301467291837,-0.010058115751434588,-0.025236583265099782,-0.15440527472157403,-0.054406728130002115,-0.05428840561089053,-0.0663387234480091,0.08839033457864293,0.035275805976962296,0.05836197315635111,0.028052827216360224,-0.013126767789923069,0.007121556837341424,0.04120154874946607,0.001812717768940638,-0.016046240481330815,-0.046152116268665604,0.009192196075557782,0.019624763696595705,-0.07895434683038846,-0.015817186881817404,-0.004605738867663795,0.04369207525981505,0.04929985099501727,-0.02679530481998614,-0.01896631149108771,0.039055034747773984,-0.02994495775353315,0.009339300428906716,0.04411944385344963,-0.004086153282984755,-0.019518838710110918,-0.011407915765328736,-0.0012409203882651418,-0.0037724337371136574,0.0085087314062979,0.08364626333521022,-0.022508773795606733,0.0671446534377321,0.03540842501182135,0.029917716509016343,0.01670683902592978,-0.07906428645096376,0.06848727457237751,-0.014617966965878658,0.01733469360358201,-0.03021159291530462,0.055431373804772664,0.06470956938758589,0.02851997383792193,0.0321250797078181,0.059081528548079236,-0.07633636236774612,-0.048656506839011876,-0.049891081510958925,-0.0756117197507133,-0.005964817285007575,0.02671342572341405,0.008647218564332378,-0.009461470748582237,0.012236024079699665,0.10501387967478659,0.028222513878771803,0.020656247775186057,-0.02581170975715559,-0.003781372213400949,0.011872414264354524,0.03647152787857444,-0.08071687821616687,0.0295320080566626,0.012493410306618796,-0.034408505237011146,-0.10509131350288714,-0.07790163864745284,0.27201055419325887,0.44758181340261327,0.02374952555255408,0.28770012459968636,-0.6805948098782332,-0.8188667758527686,0.0076684481459652,-0.6874658151260449,0.4971316992542819,-0.21373864588541397,-0.08625942493888591,0.5864001916800197,-0.058091730464878207,1.1371221175570152,-0.24440764299357468,-0.599258483335143,-0.13342585470480356,0.5804715398084859
45.64030075073242,0.8992996215820312,1.0470239518020357,-0.8866515163522483,0.45207530777549815,-0.22843693138448593,0.20744057536201468,0.020069056841825687,0.017436070895402275,-0.10530950240970478,-0.004988798388586332,-0.04217965292797942,0.3679804404991642,-0.1893087394821076,-0.018949290590924463,0.04352666651948632,-0.06301567521044149,0.027165772753344437,-0.1218996314146362,-0.023274658812550256,0.004488799811408178,0.08959159490380976,-0.002738491892751914,-0.02158319418519703,-0.013337815358406507,-0.021976348045960752,-0.04649948622622331,0.05875133442749429,0.2266062939943335,-0.061968140450867654,0.024400710340650514,-0.005782962091595302,-0.059869592495811,0.013121494647240686,0.004489385540872215,0.007041491309954871,0.032675412728413095,-0.0006138751330034594,0.01567909313726977,-0.01580736513992551,-0.03032249707403924,-0.01888850353940962,-0.06743262661161561,0.012720312660500813,-0.048535289949723344,-0.022056408584965548,0.07195039724240035,-0.034753236042975554,0.007113978293039133,-0.03560168316715862,-0.052663606678149955,-0.026887886176601504,-0.03281275668047052,-0.0017351949677166085,-0.03880514207371485,-0.010101865277422357,0.06438220137890505,0.00021114441274565354,-0.026768402995325957,0.07198535882211354,0.009571560194822401,0.025245765417168158,-0.016053710355807653,-0.05495712130295556,-0.003125857397441388,-0.11532221745961524,-0.11163161959890802,0.055939512889472506,-0.0024753614879328423,-0.10725824498715786,-0.029807834577919703,-0.03391690896721368,0.05825059880067468,0.05437971550263992,-0.00740564207013597,-0.034238616123659346,-0.0654418698864099,-0.005104127759055156,-0.0067642506488036795,-0.003831716848205201,-0.02065941421353626,0.2165519935896293,0.2066462854032154,0.08263362919992717,-0.17503709216489202,-0.09392335035412365,1.119222386345557,-0.037295968010468666,0.6396177177118089,0.20856870333828723,0.8793320506677657,-0.4858135186172549,-1.0866591908528132,0.44751113240500107,0.14391591581801189,-0.6030409795753282,-0.07303775523475535,0.06141804923097941,0.5975863338857647,0.5885433561788127,-0.6642913847797206,0.4313114593388152
46.53960037231445,0.8992996215820312,-0.00024634802980205706,-0.15312621127388293,0.276723077520746,-0.28744005022471736,0.07749347457098253,-0.22799792594389992,0.09325583203160626,-0.006044500518405726,0.04947845934679441,-0.031668707327686695,-0.068808574677004,-0.0967781484185473,0.05599542015436151,0.03726721935649351,-0.0818677025193594,0.024537917101839963,0.03599739433471787,-0.04575120934719598,-0.0037041442995634955,-0.028318751679775725,0.006800568675759414,0.01002309049822326,0.03217548035419968,0.005189545223279343,-0.07285872435225517,0.00017366281636156666,-0.03931938315934547,-0.004301379445347527,0.005935125265420588,-0.023052004628315283,0.007291727647539583,-0.06647407673117449,0.015561066595813279,-0.03003964045278359,0.03724630100420463,-0.06760314545360128,0.05588598378937038,-0.09543841809469245,-0.0019354928807194804,-0.03458068835801981,-0.010665692601198686,-0.051763375544325835,0.031912018644315865,0.013162893972495912,0.020240523956862214,0.01324555255599175,-0.03808221706605264,0.011193647156200054,0.03656384421092414,-0.03014573591477622,-0.017548985467374635,-0.01679475918005915,0.05037124842837771,-0.030516297606142495,0.03527708500474869,0.015966920206070392,0.04498906980667701,-0.04770083817427189,-0.07089767416201517,0.013409787557401617,-0.035218085703026036,-0.007097362645600864,-0.004001851188513872,-0.046551132686012436,-0.0465275276208062,0.049037362451186256,-0.01369490121466821,-0.015163241993495502,-0.002025668482562689,-0.05138253917546139,-0.09482729812110863,0.023181842685200748,0.10041418871581295,0.039105529054349074,0.04575328808687215,0.0011092046859966815,-0.008100686682679135,0.053450752407382666,-0.08254654664789549,0.045120235277196996,-0.03562185473881612,0.1909477723222076,0.09027080786868155,-0.2439909363023113,-0.07943266383411128,0.17928778259371303,-0.8953622971444053,0.11311514026460373,-0.8038427884578838,-1.1692896582472811,0.33885649787240035,-0.16708841162232344,-0.3632266836283626,-0.38840053691922943,0.21579039625261762,-0.15316375712350785,-0.3418493960103771,0.05315662191366985,-0.3378710251486742,0.05530847958278
50.285701751708984,0.8786964416503906,0.7071577563084859,-0.12976233956936487,0.4111997620323252,-0.009239049824904652,0.11155384781090338,-0.0978704055119117,0.0017988418216905028,-0.015162987837159601,-0.1496585444043671,-0.01439527177694994,0.07297237118793098,0.07797523584659341,-0.02933971416849324,0.04727022156236272,-0.09314385503762676,0.03024797908281764,-0.026394440994926317,0.008319204278709327,-0.0066552921396339434,0.055499609723716536,-0.024422990622459742,-0.012467858583639108,0.012444912024439623,-0.03216171283803742,0.04624450716048821,0.03250692581897524,0.12115052240848456,-0.01856561684220575,0.023133304247439396,0.08364038413212747,0.04303614220807494,0.29722521089920495,-0.03933886684276405,0.10281143444659632,0.01102172720185747,-0.034912011197857584,-0.07847873734817801,-0.04772211872186279,-0.06361571488509532,-0.023170740149958947,-0.06155416280384331,0.11864832771882111,0.04564836675743679,0.07786911432359182,-0.01420182979679779,0.02086425956182324,-0.0617738649355036,-0.015861118219921064,-0.01642520590310321,0.011788423215004867,-0.0014750308630550324,0.00897462137209283,-0.0727789268346537,0.0742901276622284,0.03298641676543073,0.044433989475142,0.05350595530392198,0.06393465767401958,0.0678589907959263,-0.07047026547006166,0.017635918154408896,-0.05773130668386764,0.02516860981534484,-0.06882450724968542,-0.06678117820413682,-0.015086259485985788,0.07602520840915417,0.07485400779905589,-0.024509474016068247,0.08548784891873801,-0.023631739773781288,0.005317003307160663,0.0039047702316614315,-0.0013897519057776305,0.022437621214168993,0.05209389908600393,-0.021847453594137783,-0.0040275654235204725,0.05044181989465367,-0.10928419141013768,-0.03806813572343012,-0.14955721259046065,-0.03907911898863395,-0.06647101302587854,-0.0180359379699353,0.8069221630778288,-0.11794301105544758,0.6129642462561284,0.288648313140043,-1.3244693785795507,-0.7777801631668715,-0.37828326787892413,-0.6987231202827271,0.818123240036214,0.6175492751073652,-0.2559387217785027,-0.14790632932659614,0.08587153236936212,-0.3485916598732776,0.014021528935548921
51.164398193359375,0.8790016174316406,0.0647554925540747,0.24066325229858673,-0.22072916456244282,-0.08234162886226534,-0.08034478794823469,0.09182378426221362,0.052831711800772695,-0.10118452015618645,0.11707068633663806,0.09317710310704304,0.004318804414653311,-0.04220567627035757,-0.015654627486618063,0.19251722687541442,-0.07105659623826474,0.031013171205486703,0.05300583393065141,-0.09654821726602632,0.04008537368180529,0.22068388730755317,-0.04826087523603845,-0.3623119723504729,0.3477830839168044,-0.04245661166716223,0.06382268681415294,-0.07790479460371792,0.03343352169547002,-0.0493809769255937,0.0773722300897419,-0.043208607022623635,0.023817428164595988,0.1123419681425268,0.10579092733365042,-0.01211445318789616,0.0199085295930694,-0.043744338914575506,0.031143528414138158,0.004699020214810612,-0.0748258414291108,0.032589601382277074,-0.05506868263886924,0.02505730163546702,0.07326379405356906,0.015751180083982734,-0.026097447672552416,-0.038407324922712226,-0.006176161109252332,-0.054197934108286154,0.05573357809284373,-0.0849735980928753,0.04814948584071284,-0.08595647318772143,0.022778400014295316,-0.0747419009747946,0.07037525696722052,0.00593643641090516,-0.07897291533135385,0.025182166422626957,0.0032253746191616495,-0.035826645039019556,0.07045508388070397,0.08185299140995847,-0.04471462299066097,-0.026262874131698706,0.07853155601601727,0.0005531307350570974,0.05652837178852076,-0.08269288977153286,0.03723110655006759,0.03438572612621675,0.001136565644007784,-0.025468964867982988,-0.01309388460846686,-0.017554233802148992,-0.05958475365646462,0.02998817091202587,0.08594342165711329,-0.009252501397096385,0.010678077425622975,0.0999370705689631,0.02827436618101402,-0.12927773321022748,-0.21177709027672798,-0.28964861066739783,-0.3018487227281987,0.46229650112288906,-0.5104159019752864,-0.7607190172097694,0.271247445031929,0.3900319372989439,-0.4391040030322132,0.1111233840260239,-1.2519592008759297,0.2288476922436645,-0.1756451822080423,-0.3647139042473504,0.48312139442076163,0.09527021278923947,0.24808975885337797,-0.7292564245499338
52.043399810791016,0.9295005798339844,-0.45459369932426874,-0.4022231430848046,0.24091146039031186,-0.2317619440555703,0.05067243620655601,0.1321421016664392,-0.09302151621999763,0.004717138856191683,-0.08279225553320532,0.043092516159741905,0.0038549709693713637,-0.04606945910175449,0.044095405864984775,0.14956848378209764,-0.07726669560429769,0.1308053262792433,-0.024860349082084954,0.0929312615641067,-0.07076639202019612,0.2512220200647092,-0.23195019034107084,0.11626098084755229,-0.08290943394439126,0.08111507661193192,-0.08478237518625373,0.04982463491616485,0.005858685631472696,-0.0064669039058514646,0.017227795138299275,-0.09159267286160568,-0.06056340119516712,0.0058937125963966774,0.013016266629155861,-0.14938894291381347,0.125729028288845,-0.07159869247024546,0.017771329782552234,-0.013182160804855972,-0.016806092803912553,0.05691717652177608,-0.022158140965701723,0.01753712446534063,-0.007199045922157532,-0.003904583498233829,-0.08710487551457749,-0.003656143279933091,-0.16700183766567558,-0.03976020952111159,0.04490620976489311,-0.07164348936519319,0.03016577108050525,0.022966878166099956,0.04090327889647708,-0.018195978110657707,-0.019077265541963026,-0.02615082953865629,-0.05061511153287313,-0.015445808726703321,-0.010470693664472314,0.018977468335469334,0.06742497383264513,0.0074888819695863446,-0.07985086930115222,0.07262049734562001,0.03973097252037588,-0.028380158566682023,0.017641862921541837,-0.0004021832148894053,0.04440936731059729,0.0851400348649263,-0.01040711116555532,-0.045162788910746925,0.012521989225219925,-0.039732473068425235,-0.017838699801335223,-0.02784332771275222,-0.029440169074159993,-0.06595338498999825,0.03160391547617532,0.06349983193030108,0.1488173556367107,0.08828217265296952,-0.07860734651134867,0.3582087267215352,-0.1382257547803626,0.46969972651486036,0.03722823465101496,0.4804007296277838,0.03438922157468949,-0.48174391153213986,-0.5183398374944349,-0.16573480486844766,-0.13416693696073406,0.17213911932254497,0.9355517408729812,-0.04503770154929208,-0.06666798651527728,0.15324842889955637,0.2947528068491916,0.2103245744300107
55.86920166015625,0.8489990234375,0.5828995376127006,-0.14370423284601774,0.37979233487153174,-0.1550653850054894,-0.06672975222700588,-0.05079102469597051,0.0584429884511174,0.10779804429989887,-0.1491609973745756,0.0022175672860910737,-0.08631703454989387,0.044300066030637825,0.08158207011647839,0.23907210916817745,0.05203960742149217,-0.008944639272436243,-0.08031492931413775,-0.02311055902992208,0.030835157927616926,-0.002082705939327211,-0.005272464328153727,0.004348804111354742,0.0069744207358813735,0.06596027972555797,0.13511710025212464,-0.02016764266621332,0.14075121157346074,-0.08356798137489803,-0.08925429795243918,-0.2077355629268013,-0.08848696031157446,0.060644652276069744,0.004779311991106044,0.09594235660602647,-0.11956191104920261,0.13678524821868432,-0.04753652364441008,0.0871485672973223,-0.07668366477950188,-0.046519752651556716,-0.05134759526100446,0.21999789361530406,-0.13008725245852604,0.003192880238166912,-0.04775575274858332,-0.01988667346541561,0.005287620271269935,0.022355122782516626,-0.058876341489426075,-0.07372968652323052,0.0208126245719017,-0.016948404906409545,-0.004501062896299868,-0.0013018407326247025,0.10008831377819324,0.015299437091740038,0.025855968966770112,0.038839911729620126,-0.08625518955343106,-0.02166125563812472,0.043129954927660086,0.027560696780693523,-0.07530742213098188,0.0727494472819515,0.05021798384897919,0.0016544077322490011,-0.05498815587733242,-0.06222572604138215,-0.03370090654705478,-0.025851608299677836,-0.07844899663819419,0.022734073020697656,0.06930384460562651,0.08217798686521441,0.0015655447766865342,-0.053266064314312495,0.036156968786471545,0.0032852683956549333,-0.010291188471809081,0.015609015427126356,0.04218595668328996,-0.07486765710506957,0.717837853132385,0.12724647375096018,-0.07677186089119548,-0.008841889942146491,-0.28153390764512803,-0.34942725622860493,-1.0382672822537065,0.7938750842292677,0.49000478278615134,-0.26492221410132755,0.3164243795969971,0.5897007568011139,0.2837462791195725,-0.8420487343250846,0.5317229440461899,-0.43994744532684277,-0.1948951458998564,-0.18092280654277365
56.71820068359375,0.869598388671875,-0.37697821893378314,0.11840922543307443,-0.44265260791125693,0.09306777540789105,0.061636972725824204,0.052370567516560634,0.07595087931549875,0.033750988158674625,-0.03796413847664745,0.1902915590245396,0.004366431597262993,0.011853729292231526,-0.14329012766389684,0.014651718215026102,0.011218617531665158,-0.056861773901952406,0.1823789292800732,-0.06597910030997475,0.037359459972087214,0.09558685655443222,0.031718528907693916,-0.029126923464013216,-0.0009619910126104293,0.02365332364241248,-0.013604474965631596,0.046003112479671544,-0.032303815510835866,0.05189844256910413,0.0027188335143515418,0.03005172456866627,0.0316622029808179,-0.027610119693245474,-0.017003328584935147,-0.024582789208486347,-0.03320659304049993,0.017406394276508044,-0.03204754209602694,-0.06464792719901637,0.03275453443548519,-0.002916203490108238,-0.02521144120681406,0.003237928453340394,-0.0037802777135842727,0.001562751890931678,-0.001953325084761051,-0.004743708697201198,-0.0509051498363837,0.006419294094629661,0.039168376411390385,-0.027144105036301054,0.0713497968147599,0.025823299151910728,0.013380873495106416,0.031038871470258016,0.04112669681457709,0.031953741775830775,-0.052125982203303486,-0.03673730094139771,0.03090490417556699,-0.04369295855857049,-0.011197993112622324,-0.10247534253696015,0.04121298901085939,-0.04100938379350863,0.06836133270464957,0.018625471661384986,0.025592851316659053,-0.1295028842258679,0.02287710368750086,0.04008786532537585,-0.012786166924531515,-0.01839147550499893,0.032540629704260846,0.020790185766107916,-0.02485730517047486,-0.009235461598262369,-0.0034373653484695544,0.02118382256394015,0.06721646089305965,0.10144537215943239,-0.12270733383427095,0.015592964984684779,-0.05310360728880088,0.19899754681342285,0.8390917639961131,-0.2062742123140069,-0.013322453237041565,0.03539740955365912,0.3243934609535573,0.6624200273583536,1.4897592005913383,0.6714743529346803,0.32401912604940786,0.41233443782527424,-0.04701862801893545,-0.7693417920658688,0.361457946055052,-0.21725913584657386,0.83948503339077,-0.48430086768255387
57.587799072265625,0.8787002563476562,-0.4093028447097169,-0.34928618002324463,0.13244042541528073,-0.03939603849828381,-0.1398817059977627,0.21380918778391583,0.1369306146461843,-0.008821098850686382,-0.1580112046541721,0.15658026737904002,0.07435141801374878,0.12618360943558762,-0.043786020695045995,0.048457491411330884,-0.04392662591909589,0.14281139890299385,-0.02502862003401812,-0.02956968024981424,0.022604519974681592,0.020495377883297083,0.0514695804664044,-0.007318493785226631,-0.03446250544400922,-0.05936612218088074,-0.0008910819995486867,-0.010151025872182431,-0.03533162699757423,0.07387826418025406,0.02393267445439738,-0.0026309953924087415,0.01575004547158179,0.014773307268557082,-0.04777767727911261,0.010924728560563797,-0.030032532823637884,0.091055551063391,0.011148457465373093,0.10615606522075614,-0.01735173456307709,0.06809225513355216,0.0010051405398287597,0.06914203278303346,-0.0636640432818021,0.07406156417676572,0.00816082089520454,-0.01906924740501548,0.00802738378540746,-0.0035169349021592425,-0.06924208664359972,-0.027898016604431274,-0.036331423861054396,-0.021905318894147374,0.024353088729141454,-0.057507995481962455,0.041291391126211885,-0.08672302137217876,0.009410761842576106,0.015031815921601605,-0.0360475710076895,-0.029749771682883452,0.06728092986217524,0.020115329151274175,0.046466557131492336,-0.037426654643537054,0.11359147331350535,0.053389988345839766,0.0040430550834023625,-0.007785350392848282,0.04067813725376041,0.07519371649181386,0.0013787514900971609,-0.07680686367096429,0.034833990583302964,0.022973919642089915,0.048134328730672825,-0.03233741732928594,-0.01599124417725902,-0.02156744370864534,0.05774546739939437,0.0010330301358359717,0.2555063439646074,-0.10153308933838108,-1.2431555905189335,-0.4006080820283973,-0.11401538944171212,-0.247208402437408,0.11641297271898869,0.7270829789129272,-0.1393909529510189,1.1998369747759263,-0.825860563549619,0.2979012742626117,-0.5508858743904472,0.6600430172909588,-0.24534203654859127,-0.41236827680956734,-0.02152037922680472,-0.0038971923654181895,-0.17550059965333192,-0.009806666554832345
62.3026008605957,0.89849853515625,-0.20959551352119377,-0.108676394328093,0.049641586450806977,-0.06026214084385913,-0.05396585145804007,0.16783755359514568,0.04720392822900251,-0.025430322654420023,0.04985681181032639,0.007140940698423567,0.14897301290174106,-0.12381581695036069,0.05065793723871215,-0.24961937327193157,0.07078530306791925,-0.020767679906831055,-0.035007017649691455,-0.0739033433020032,-0.04854375815072582,0.02437460188777023,0.06358552358842964,-0.038351442611982214,-0.016329660291768786,-0.052759872899913095,0.012343726447967883,0.011506871522517096,0.028891550799938055,-0.010458959140923723,0.04532933982724584,-0.01667033544539087,0.02469011779605841,0.05065024864861616,0.011216206332791754,-0.0352950863415304,-0.12607960533994655,-0.00745030351162268,0.04017543515918118,-0.06300265364762703,0.00971548095156658,-0.06072701303118444,-0.02085288608641055,0.009321000864934037,0.06026690347466026,0.04783973168937024,-0.06744785827289383,-0.022262666699927977,0.00021634655160240185,0.04452784901634584,0.14089723120791242,-0.0865003276051878,0.07153703778232436,-0.060551809903960675,-0.011053187247163317,-0.04785590870759343,0.03638344321267613,0.004205678893243539,-0.019127320557985307,0.00696532662388737,0.13318549435775237,-0.08122540853963761,0.059076633283081374,-0.016831653038098072,0.022592559170029933,-0.08410975724296435,0.10644527216501326,0.013757176138592356,0.02226017798361747,-0.05524079732777186,-0.041108385955143746,0.014094452395857451,0.055430243174150684,0.0020772702945272854,-0.010712835660443242,0.012085081667318287,0.021758409906321916,0.02137789582735593,0.03872287279913042,0.09113262757059179,-0.10757241402054318,-0.18872543725701052,0.024204216481567606,0.18984481128936276,0.23577050490638862,-0.4304262876838389,-0.21267090759621085,-0.688438975034415,0.07483903158972854,-0.14180920418820311,0.09653268331700882,0.2398966253743527,-0.4500000856931872,0.36463675871229284,-0.7370245096852273,-0.6631850746030777,-0.7150891368798185,-0.05714376705491325,-0.3393305135520145,-0.3960610726207837,0.2027881820358902,0.5388705800986147
63.20109939575195,0.9194984436035156,0.6110694115399401,-0.14634265108262964,0.1104254969259342,-0.02700998308388871,-0.015533153131556758,-0.09606844021203964,0.07455869191355617,-0.07406752359497153,0.01725347929451027,0.11526518550831305,-0.005189745459303355,0.13686531181988262,-0.014155132038743879,-0.02623531922673657,-0.02938306983357329,0.06888535248915215,-0.05095676032570995,-0.005813019637672058,-0.002817834320239102,-0.018578235315169986,-0.0016115448959707897,0.007963717786247453,0.009149311810434293,0.005117893259697415,0.06255805412918639,0.025713494495233444,0.023720881467681573,0.002458824281811384,0.020856295690933446,-0.018534130531779977,-0.05237618702343655,0.015947423972295198,0.027514999874272257,0.03731971876267169,0.019160949290802698,-0.025903360058548562,-0.02645089649109109,0.06289508068152094,-0.06578751324552226,-0.03087987484847246,0.09797913145461687,0.0553056951654131,0.045119621743626416,0.034118762095773955,0.08459692119913655,-0.08995510548404585,0.029772500782212413,-0.06719071739178255,0.09233004555125987,0.038281264088360495,0.01676028673825501,-0.05051523079946351,-0.001432221415326204,-0.039562815027375485,0.04618778111917265,0.01643506566508681,0.021159529690261133,-0.03912591972409397,-0.052032458349860186,-0.03501118273393343,-0.05694690113032583,0.008775761091193171,-0.004884594208515532,0.057850082253917974,0.03292492007526278,-0.026598251988305007,-0.018697998272517537,0.027245645625454742,-0.03641763752402002,-0.044342836396345266,-0.09956866195147573,0.06799789286221444,-0.0012156600927397416,-0.00803683938008378,-0.041010112252879954,-0.03157385092760712,0.0167728242992174,-0.006778878156822238,-0.05888967962569337,-0.032263366601683025,0.09488718932576531,0.017235484514122025,-0.5734947782472342,-0.6392735171554441,0.1653660925861772,0.037326776793233984,-0.5913990047734831,-0.33901168505668455,-0.06989259035823743,-0.19539466541592965,-0.47683420944532046,-1.2123542686533684,0.6238926857452857,0.09347175636527999,-0.20099641384626601,-0.1315369367994378,0.15278130947326585,0.035039599646428055,0.23867661050409855,-0.06439646809490568
64.12059783935547,0.9188003540039062,-0.15849704094215183,0.007547951648074425,0.018303029595283397,0.04205722072680517,-0.1464624488476205,0.033170059062628494,0.011841713080955982,0.08572578779817047,-0.07908607080210792,-0.06096939630351275,0.0606542949364153,0.07431436845925328,0.007326784146507878,0.11775787613736656,-0.029286651092644514,-0.005022320296927039,0.11190046352569724,-0.039590305155236594,0.09665656425815823,-0.04318279858770915,-0.026855049272314118,-0.005330248450985082,0.00855048705917989,0.026341086206985217,0.0012877062695374323,-0.021456442299068103,-0.01706176712419444,0.0076781598702702104,0.029638304937860266,-0.06520358101307304,0.0015788086747077841,-0.024129595500718547,0.02920512437046021,0.058871741390259254,-0.02300820148692445,-0.10989218471088014,-0.11819322338904005,0.022411494872916014,0.03440538934327884,0.08043935650608165,0.02130102006872847,-0.047134970180438,0.020901452154682983,0.0088213808262172,-0.019461958982613714,0.03008018174399122,-0.02831232093786242,-0.02923304934416449,0.029838214193694937,-0.018771945904546984,0.024092500165552977,-0.040060400107087904,0.012553645973409827,0.04370607051166475,0.016468144713341737,-0.007199866977075128,-0.011680442964185106,-0.0003498226580358945,-0.006360310347660537,-0.01891298785429002,0.027001647377381213,-0.0450210869933453,-0.003803038742872862,0.09990660920016176,0.06401753527928675,0.05047508942305974,-0.09059623055467636,-0.007802693739202969,-0.06755536452160223,0.0062604566974393564,-0.046327049774931364,0.010500327393384246,-0.0049787252885483795,0.023484243527505753,0.0345379509754016,-0.05867153904231447,-0.06372944055071622,-0.05921313473039007,0.04451357948619138,-0.0898219006578802,0.24556910013913874,-0.05043845018055643,-0.05198660661142117,-0.3447652502444039,-1.2060048488317328,0.6116201043616857,-0.1478000666816225,1.0341198394797342,0.10636752293007903,0.19470886497975212,0.044303870727250845,-0.2507737212546526,-0.08756410386397695,0.1308423568779183,0.031201568717614175,-0.027684384590143746,-0.12698624006869697,0.035026389993022294,0.2847781330525277,0.25638027194906066
67.78600311279297,0.869598388671875,-0.04366565788313487,0.09550681821923841,-0.1244781812994005,0.06698317543574674,0.12004847779164367,-0.10568123250750795,-0.015765906244023686,0.005571106843610944,0.024287942127877084,0.19342916518135997,-0.14271060587220574,0.06445969072306192,0.03963008422404792,-0.03199418249869889,-0.11991991620126226,-0.04436285020304113,0.023505064287938422,-0.06309979839580115,0.03367480692350059,-0.010127689247485382,-0.029160282336341985,-0.029305334485645228,0.04913738996448785,0.05213977157030447,0.01085846959178424,-0.03410726283645965,0.03112829303318182,0.04212801258548429,0.05166194655437696,-0.05784777050435179,0.01696401237340672,0.027244150914098812,-0.007569173436720883,0.07084142402508571,-0.005926959004462787,0.005387558523932107,0.032238686046837405,-0.06640887840603789,-0.06840065928518206,0.15386561504478796,-0.11334637411722089,0.043713565162256336,0.014931294779117477,-0.11923487346602951,-0.023206084327708223,-0.0023172942143468043,-0.002975730547504725,0.028986372032026295,-0.0820238087616641,-0.005865663629652633,0.055859501932550196,0.026334171056356097,-0.017266753538005837,-0.023450837600279904,-0.034914816429471585,0.054565497302260825,-0.042241259885244395,-0.001059758977330811,0.06061056560140395,-0.003201507320912093,0.03706244911845183,0.022573116963386923,-0.016873136090946993,-0.02225525349970746,0.023807686105692616,0.001800371621915195,0.012373825085303993,0.0688158046626663,0.04382201301290595,0.030627939904841833,-8.20291430562066e-05,0.0654459189917686,0.02070165255739199,-0.009577141519518786,-0.0022988502433272636,0.030148001678703906,-0.007125453549934055,0.0014216882731782057,0.005826136663340406,0.028815250561918127,0.10532897754146353,0.3899142802696313,-0.2587680834043864,0.30207954698201367,0.10573878801993447,-0.645795884246289,0.2739594953493821,-0.2526533118759667,-0.22474264357514312,-0.24838835979848073,0.07572955319221389,-0.2249944030849727,-1.2057305260584088,1.065413328518492,-0.08169611834923818,-0.22699353013886225,0.3768287900651332,-0.21553250419533432,0.5637304215414651,-0.7795365103111586
68.65560150146484,0.8889999389648438,-0.5754938721387769,-0.34027897245187694,-0.11300980620881565,0.027606972433497155,0.008827830793115233,0.02892960305078917,0.15897473300187467,-0.09282802622020868,0.03430459143805902,0.11540258734139475,-0.025945052920244405,-0.11798681791678237,-0.08741564507849824,-0.06140749633619527,-0.010575514302789484,-0.028078714195233057,-0.12580672128905712,-0.04762855071398857,-0.08982621712096307,-0.18771914834604303,0.06849119675694257,0.036522873364432384,0.031461608582938345,-0.03494792566324071,-0.06329441075922289,0.1533957034829174,-0.13942011966890427,-0.07352981888578161,0.039629004592097505,-0.03621495950351712,-0.04968408740204169,-0.07107352747391169,0.029643708567638847,0.04425803534381467,-0.02916718676884496,0.06727200237639744,-0.03859452353067229,0.11907530842974888,0.012984100304075749,0.00760991635172691,0.0009977165675518391,0.009747798579498273,0.0300096650872948,-0.009918423325131476,0.032404759003285065,0.08159501443992687,0.0267630189741116,-0.01765937785066625,-0.002276791854433414,0.0054521979787259004,-0.00020738878162773321,0.023493680321130347,0.022866828072602062,0.046876107240255996,0.05903847920363812,0.020754631854832423,-0.059188527816551186,0.06129267419861806,-0.05565876619888355,-0.0019023795642068991,0.07877959797860445,-0.019543722531846396,0.03717921608060091,-0.04946002500906284,-0.07342617818173598,-0.02022710884113335,-0.001420966485266205,0.011514320368233513,0.0324306656314636,0.020659173050142254,-0.026485199793079714,-0.03851193416240262,0.044222340679978205,0.038773990112135316,0.0024447495998254076,0.04293109775594016,-0.03522775997814874,-0.06941309181667243,-0.00924960695723122,-0.07163607727916098,-0.05240734975568056,-0.09120424234396336,-0.8432798225586985,-1.0658542753786517,0.3460106449482076,-0.9480105740047142,0.11251358870408017,-0.5858567642713466,-0.4057809954743349,-0.37839041568652954,-0.5998602058793044,-0.2779793207674057,0.4997511764684925,-0.28652644124581506,0.8317475536171162,-0.35179486145966793,0.014969008524369849,-0.0714998393659673,-0.1396933446576054,-0.5854785075471
69.54460144042969,0.8790969848632812,-0.6913043431598833,0.0020531532551841467,-0.11298444237334429,-0.015857122293432974,-0.11921595478102487,0.022458001002217606,-0.012395995707336203,-0.06305402696798963,-0.03564044649968468,-0.14208512647004165,0.17454851837002916,-0.013632969808034912,-0.05003412422288463,-0.12904236883846257,0.041008343944516676,-0.017198404521254394,0.015481738490858384,-0.03815702857171601,-0.008975046593361142,0.0008021912663735322,-0.023206315773036376,0.026147859889909225,0.032688501133698464,0.02993579941229085,-0.018060486862271984,0.05022202514558262,0.052150772024290894,0.029542896572793593,-0.01130470322948511,-0.07525289297308548,0.07191233506679418,-0.01791457994713569,-0.0244287259476918,-0.11471108869297023,0.11352582890935635,-0.013907319158867712,-0.02682827933516617,0.0249755362925428,-0.0072433503425465,0.008874462244728121,0.08904178548923906,-0.03630308849972019,-0.07523521565628102,0.017625117939875395,-0.028199683610348133,-0.00501185191533314,0.03997933439814752,-0.012417800327565585,-0.017427209146724795,0.03130299128267819,-0.0105507842072264,-0.08002261615996945,-0.0050958866622036955,0.057410399297381495,0.024882717049399074,0.06850748322885417,-0.051421873688624116,1.8029865815057805e-05,0.01329030109257798,0.006241356883335162,0.09096108313694076,-0.00537554454897262,0.004283490436271499,0.06106017782524434,-0.049168151333811735,0.027006139511595032,0.05298449727851514,-0.024890304763896868,0.03592071408981868,0.014605089618255197,0.09054719407793765,-0.03341409484573936,0.005613065574719506,0.021012596082842484,-0.0004732783526775989,0.012142181923344465,0.00825806597406728,0.010466608869701967,0.0006618058177084438,0.03997586042578548,-0.08635531657694745,-0.007010066073243962,-0.19726242826268656,0.7669990248005494,0.026063728672994675,-0.6053439243250556,0.9559819206088231,0.7140502621345433,0.1979202608725864,0.37955648729828334,0.1675593844612262,0.7537259251801322,0.22640689985310597,0.11865917421943023,-0.37849432514393383,0.3289257009273085,-0.35728766764376446,0.0340028771908263,-0.0645859879037161,0.26754023632602214
73.42040252685547,0.87860107421875,-0.16869188883994501,-0.0690406258765902,-0.21617841176011374,0.02348928459617835,0.06014582517702496,-0.011918512840581312,0.03210991660009688,0.11458869881747485,0.05401657644600351,-0.013252121915209388,0.09524673817883075,-0.04219069749188961,-0.0310916604317915,0.1736520496285444,0.05958193231452992,0.0523839992131045,-0.06392241645824319,0.002907550054783237,0.04723696867410364,-0.06261423301827224,-0.009994863947639246,-0.0393058641656649,0.032815651486700466,0.0058785179334083035,0.03543274513767147,-0.06371414329755612,-0.04169703386624932,0.06594520519299317,0.03601463986706903,-0.03387375057019087,-0.04340790626294137,-0.019075196681848663,0.06501406998157394,0.015298559982564255,0.06332017573396148,0.0031828837465216007,-0.014930409530074185,-0.02677677140923443,-0.0329034401039786,-0.001370664056112618,-0.07279728245096777,0.09046023360434675,0.0028848510136492292,0.06266158452017973,-0.058333643689699746,0.0645778984137157,0.05116609312026234,0.013839777735745892,0.054032000146438816,-0.011911315550400196,0.03116616499510994,0.05166988280511144,0.01425581471152437,0.06569429734737621,0.04828348608293947,-0.024611761749661603,0.010957991211606039,0.047337680441251084,-0.08998184620169217,-0.035388906978416824,0.004568542591859592,-0.019596544485300446,-0.03601156417696061,0.03623932546310702,-0.0061816859094687565,-0.0378103654552978,-0.008432452538272236,-0.010837127893493276,0.040465049868880235,-0.0685194056183317,-0.03739629640024066,-0.03067097807271645,0.06631406270901258,-0.06239300186567552,-0.057002647695503054,0.10182108286968827,-0.040985522183457315,-0.021560235724225538,0.09430310276766073,-0.13908244455970065,-0.0663483401123188,-0.4232852104517637,-0.1474846135814232,0.2566468826323231,0.17524411649749486,0.2458354768038148,-0.06345766643494882,-0.9137789081990758,-1.2177881558071701,0.3612431051018532,-0.8292266841235229,-0.9774354660483054,0.9458482840009428,-1.3806469586695533,-0.005370347331215386,-0.13711869091055326,0.20006065766854242,-0.40653216881113863,0.3569376760343836,-0.5117471639109252
74.29900360107422,0.8990936279296875,-0.3076704187559156,0.2690316984958888,-0.0701768022872146,0.03696271108753376,0.011487243389058266,-0.09725500769066435,-0.11958494814488115,0.00944293402977514,-0.05048478417811524,0.0954214584603207,0.02312959846616162,0.196180244631938,-0.031083374834538345,-0.0317949269538412,-0.0738176406873834,0.19295803881785437,-0.0983062211290133,0.051471308752922176,-0.03333842838874754,0.06905426642014108,0.007207334700111478,-0.061767971425491126,-0.008195898793779967,-0.025099093407498524,0.07098958156330594,-0.0015600288601065415,0.04165485242720572,0.0005842341498715053,0.06016745080218444,-0.03837522909605951,-0.024593837333723115,-0.02676494023696452,0.042438194063347326,-0.017686788203262208,0.10774396631396013,0.00434511343730055,0.1250082257599924,-0.011078162309015233,0.040572508940954106,-0.004696942609709057,0.04196176792410363,-0.028356913890169613,0.07103394384893699,-0.0937044174721414,0.010844564884180737,-0.053894595560389266,0.016021295448954816,-0.022702235339565408,0.012751562365909713,0.012945456843294751,-0.0007426828070513768,-0.07867893480218927,0.06043442278155971,-0.05955158341051349,0.061544209087159685,0.004814502269422254,0.034611060605436186,0.09927246084490869,-0.03438636496182812,0.017609738759419003,-0.05824658000887207,-0.03590176590155444,0.010846028742760763,0.040858773299054484,-0.027366453940840627,-0.008824479741697616,-0.0696218145724062,-0.11664848274986586,-0.01474642502078712,-0.030435030186268322,-0.0400770258795177,0.08193716105324861,-0.09165739854808568,0.08894676946944692,0.01374964774663694,0.010015322834616957,-0.0027583011027074687,-0.08449900727401875,-0.015070072876294563,0.027960640286634326,-0.0747068384070579,0.024243144999313238,-0.6257574388242017,0.02064700740041371,0.05396746194287343,0.26922936728269165,-0.38440852437151646,0.38268133490510775,0.16615560986668118,0.7640631312077596,0.10776334031361151,0.18252747250070436,-0.10358579445414341,-0.28745367592433463,-0.13978987744176055,-0.2730324797125397,0.12426008561353416,-0.25384428269562664,-0.10992178524572341,0.13710232976229075
75.1980972290039,0.9587020874023438,0.14479340376803973,-0.13236722980669,0.09769689224980568,0.10879847229950936,-0.07279622223232401,-0.09076289090787304,0.10140164960913618,-0.07861327803653832,0.0012220938864026393,0.1534848758051524,0.002736043421173148,0.1731070222312887,-0.20017767345154036,0.10671995434120721,-0.110690266191118,0.010308230047332667,-0.012977567955731684,0.0698123909844504,-0.01488451887809045,-0.08020011607353736,-0.005721313240571154,0.0026060189590043636,0.008653657603087055,0.030737343994309198,0.07739697400568053,-0.008855092189525654,0.006113949990502881,-0.07850853158786233,0.005290668881273667,0.03813570193904205,-0.006814359187238637,0.007966548962077172,-0.04369731430003969,0.011403210194100531,0.0020658815897180854,-0.0409978259285099,-0.05822425670114249,0.05219166888695712,-0.1044430903922557,-0.05601022842690839,-0.060494269699634874,-0.029653897186795928,0.07151930605079185,-0.07417557746821703,0.014556334080007038,-0.013434011185023395,0.02953787942917032,-0.05774946868449221,0.11529025286206612,0.02969230456245385,-0.06138334000372145,-0.023873852632868446,0.05523744702846737,-0.01811024214668515,0.0471227021279616,0.002256654934210671,0.03688831160641739,0.030444287004831816,0.011769616807512512,0.07504588597757561,0.007581710966927649,-0.013288449589565241,0.034699285518310655,0.003408003685232544,0.022170092306438613,0.00839149689109878,0.008574945476256519,-0.021751502387211925,0.029453255610562085,-0.028914425716456832,0.009185716096086345,-0.08377624034699936,-0.017895274158584766,-0.048185762723196884,-0.017933761487104804,0.05776034996274928,0.04895921117748058,0.01015666879210632,0.04395896193945716,-0.032580828548943244,-0.004695402216296402,-0.1763749231196386,-0.16862999071146847,0.11417116907161792,-0.044754967082110436,0.01957615546906119,-0.4173251634872285,0.6245971089213534,0.9540236602544753,-0.25486228232319064,0.12554029540854522,0.4638866792672938,0.31680203993287026,-0.5033747490668925,0.12728130159680554,-0.4672388501922624,-0.08285954980443705,-0.13921102980973285,0.10754912313336458,0.3149675784720736
76.15679931640625,1.8282012939453125,0.36761269078432357,-0.14086259573084778,0.026675263980984507,-0.05885088507071128,-0.07136929942154838,-0.06228683943597633,-0.010932855301695656,-0.022279608275887625,-0.016491253374437118,-0.025174292769077587,0.027814362546919304,0.03492289067698536,0.23515921502586506,0.1269841469360185,0.07762639994781272,-0.00980034520960748,0.012765065907763523,-0.06077048602691927,-0.10054346843297232,-0.09185713695187357,-0.08541454550337486,-0.022111468787455176,0.04054666909458481,-0.008026166935894107,0.03976272443563791,0.050187014382913085,0.0019846920579263765,-0.028021448949150124,-0.029456402926480652,0.015483690785986133,0.04300835658737405,-0.031798498087944285,0.055624543529840094,-0.06697868341035784,0.023168785783866528,0.042360869260027446,0.028958398654528844,0.00542787625882199,0.0058341460197352014,-0.048712097596912626,0.06653019972757475,-0.050561593421621975,-0.01604699542669738,-0.021680668567252537,0.013453385748111803,0.04128951477077205,0.022384475996940663,0.017282651875898457,0.047679368553066204,-0.005611574068715396,-0.13088862356044903,0.24513674627132437,-0.04700596863232357,0.010862500964861507,-0.03089376617923694,0.009358829933790728,0.07271484622697998,-0.0817890928482504,0.04800071852008409,0.03187162319781634,-0.04979041955668563,0.03741113075733334,-0.04726686626680095,0.013185518950733291,0.07616649507138493,-0.02042707213697061,0.033451090746669285,-0.016465598063912477,0.0025666444042687434,0.01937615563799681,0.06937796951707405,-0.008063127363395654,-0.010424895984943661,-0.0005508462371856654,0.012152920525698586,0.07713940696746549,0.012345177418214972,0.08058961913264055,0.08288603359759315,-0.04518621025302427,0.014949314076822814,-0.19523456858279611,0.4996750406481635,0.018406121091545942,-0.16561368230702292,-0.3300513146980941,-0.2683340127736236,-0.21760487427741418,-0.7362032276264677,-0.2517350551784846,-0.5510963914342155,-1.1546126378979786,0.47510337267786573,0.062378021834519216,-0.19664195031888143,-0.6394172683503359,0.17720511685891469,-0.01721396816819637,0.06717801097764885,-0.20855004950487072
80.63240051269531,0.868896484375,0.42655445760396793,0.05047717402556347,0.3306526408828787,-0.39265085416646833,0.13457361953434704,-0.03875302341795198,0.052426272464477744,-0.04690619530331436,-0.006254337934807271,0.04643360098292155,0.04739365369470692,0.06695300541052712,0.017890506337306208,0.04301496792528539,0.027945189904241594,0.05283127074871305,-0.05401801772745802,0.001920444563023638,-0.04019750887699127,0.042461685392274816,0.0043811656517515575,-0.00953474307877715,0.0544630428606858,0.005571219621634049,0.013170775066240266,-0.014980090039394295,-0.012323196713476248,-0.020894649142729885,0.019490953796497637,0.03671394204517561,0.02686469354423511,0.053513074187133386,0.008964381618731376,-0.010437085537153112,0.03628800476929565,0.01013870374586504,0.0967961972069547,0.07368869069574971,0.17634043717643738,-0.0044637129467717165,-0.021269120153018996,0.06804564244335634,0.02402242815079056,0.022825356179482288,0.03190230618198799,-0.01820662023859739,-0.048587026851230064,0.0003726341741094076,-0.03674673670952914,0.05504360509656496,0.05704364440714669,0.01833664270088419,-0.0230906415765801,-0.009122646133331436,-0.041192375467783454,-0.019050820798575605,0.006542129037569233,0.02256340219309269,0.021171013699952085,-0.001348184730580869,-0.04698365204705212,0.02540373473493215,-0.00829601863642768,0.08727406035045672,-0.06810423077618175,-0.015010384909635084,0.0032810340714315572,-0.001614379264760513,-0.06160147549725718,-0.03812613773509568,0.06126449581948715,0.016427930788885915,0.016540464968886587,-0.02316944003087807,-0.028494866636605113,0.04760443847875005,0.052924534487326994,-0.027793635014348395,-0.10512471764215742,-0.2771479902910874,-0.34606173526232625,-0.7069417745799296,0.23601604469922294,0.9235322075106064,0.12707819853064975,-0.9088642677291446,0.12281172789685382,0.05812530545563718,0.3327101342157497,-0.15130035589754645,0.7429109766084097,-1.5913369730071965,-1.2813999516903014,-0.9236300498776269,0.20405505055273832,-0.07282940755428627,0.0851185504766072,-0.2049237776435702,0.2583376492655415,0.8405698674457012
81.50129699707031,0.8990020751953125,0.6431691707405311,0.24008739889623804,0.14873061718888886,0.013899260228072915,0.09381152644891207,-0.1408196334829014,-0.0007426276505386558,-0.015266644729260967,-0.04836857119071801,0.00839877807871041,-0.0385898554872799,0.00443739306680499,0.046295099466266726,0.03881286118492309,0.012004860064797354,0.0791147915950857,-0.0754195876081481,0.021994066353887252,-0.06041672227536693,-0.0030211823335841363,0.0013066198435341446,-0.0023091507854935637,-0.0011884027245945838,0.08543001610963885,-0.0019135472757485365,0.016452406579891523,-0.05584719160100552,-0.016393628481345495,0.055236720853054644,0.07321378328647835,-0.050088344575807894,0.1034940730125651,-0.017175814325168497,0.002155778693094355,0.036438456278239564,0.07622133220347416,-0.1002349366048795,-0.02756614459951083,0.041234156294724295,-0.017495598608414417,0.051328659648531685,0.043924788386738606,-0.02608547138536675,-0.04544726912885814,0.01921746778162052,0.03223489464197113,-0.031909627929720415,-0.029547861320053645,0.07826961063309393,0.09217772577090179,0.0010857673713890736,0.01940951732811767,0.06833163561509975,0.024891694108061226,0.015021246383100165,0.014870997485434963,-0.010436214561410254,-0.031588052777567294,-0.08211090287108445,-0.03317096147156722,0.0502703626250775,-0.025687695531241932,0.018658980025046585,-0.04759137174478017,0.00480785884537108,0.01690930531693566,-0.04235090864549512,-0.04740393720851829,-0.07184582066678033,0.018689981484493946,-0.008100285403268404,0.008351860363359465,0.035747312375763195,0.012507381639203747,0.041986999245453516,0.05927159282232208,-0.11494957944731742,0.03237631013165281,-0.14129214419806063,0.06488439880811361,-0.2560347343447121,0.23633237838907023,-0.02218755568757207,-0.627193784213661,-0.40908625835132856,0.9364071842083069,0.48338689610249047,-0.457973300213582,-0.36291801185761785,-0.225044602121593,0.7708303824379045,0.1466457279425296,-0.23825889348026488,0.06991615410189664,0.8523311312968878,-0.31811079684376165,-0.06849508983686091,-0.433539392945782,-0.12231611090219509,-0.44321810611334045
82.40029907226562,1.9879989624023438,-0.55472167249134,-0.08067500797642749,0.09673780880916373,-0.28082632320304957,0.11737222748132821,-0.06341998382621677,0.009382566915826401,-0.10313986106019465,-0.049835172633926984,0.14381094459724897,-0.12103907611783414,-0.07883025537589997,0.04652630553949501,0.028664013973821043,0.07661350274225569,-0.015877765562910467,-0.004241177544870283,-0.038589572017943184,-0.02885026638128124,-0.08188254187017469,-0.013507905111630643,-0.0069721456527425075,-0.024206743866698285,0.021355502398241286,-0.011708615288926295,0.06777448363580324,-0.02420073120304532,0.024578467503599905,0.015861789021542328,-0.03149940070718882,0.016774842537324974,-0.05874844619580165,-0.0540310333168697,0.042482732177885604,0.0007383991777556095,0.07747415414039409,0.07951138790180953,0.046551368154586686,0.006795150890613017,0.07375737737975181,0.08303905510998703,-0.012800902380842975,-0.022564031745966353,-0.01717901541071217,0.03671194813809491,0.0062230958753167614,0.05581675652766484,-0.013121987141105663,0.10434705450788712,-0.046221199142753924,0.07259608969939386,-0.005680548019795471,-0.08862111479108366,0.09460581891433019,-0.0848563954600331,0.03013968660142747,-0.011573581461723492,-0.01723373411182879,-0.05191470309368713,-0.0034248473538815716,-0.018587064510771238,-0.03051475543130374,-0.03565221265124362,-0.041917321259955814,0.0023941919475126,0.002399930397465763,0.016307308912507826,0.05299936699578139,0.005985451935288618,-0.0634709663593786,0.019910342025453213,-0.01039883067547687,0.048408216392320035,0.029959507897735847,-0.0822762364434696,-0.011750049112704141,0.008728721148455848,0.00667772511965631,0.06353699912705835,-0.11981689576868834,-0.11894885409487913,-0.49578643925160404,0.3449605268995342,-0.3500578292454668,-0.2795980975909522,-0.35156513560228475,-0.17774951426508692,0.9385206597766822,-0.12763889040214976,0.4720543572827386,-0.4816700381055742,-0.0796106033514396,0.444072589115305,0.21481232350235877,-0.021472573785845585,-0.14473969976285356,0.11428660527204967,-0.09049787709649422,-0.006191791719668332,0.059794901620705776
86.23609924316406,0.9193038940429688,0.01585314235407243,0.2927961307063002,-0.2508378422857594,0.06516378768302235,-0.035226921429933195,-0.023729971085581787,-0.02947744109958843,0.047353836471851665,-0.08812575390563404,0.005890457969587053,-0.034213814692758915,0.0684448449127592,0.10487397674101676,-0.10515337318837242,-0.048994057783609046,0.11974682076905156,-0.10098423903026982,0.2956121768837349,-0.37128052529197164,0.10719949638625098,-0.04067113082825518,0.058041651347258076,-0.019344729510329967,0.11241148503640545,-0.18439912340637488,0.07014009543562928,-0.011689855429712594,0.05276775021375902,-0.02934886300889597,-0.044480189845936845,0.005984327794744544,0.0013876897749226101,-0.005531504820604382,-0.11118356673101575,0.015570999895604846,-0.009074050441136397,0.03859601532624838,-0.0345630629820556,-0.055246445035749644,0.04968840227934114,0.008129348805610698,0.04553241170665801,-0.09206006721356044,0.035996892332220025,-0.0030823674163386675,-0.06521611102829326,-0.035918633922042954,-0.031924144132586166,-0.039729600042217365,0.009094388057321597,0.010191930021540556,-0.05465339700353533,0.017197371567043297,-0.04752891468531615,0.011692775665553441,-0.06422485540646453,0.04815981080886512,0.01787827086322681,0.013182120195248365,-0.0200264346314993,-0.015116971099961088,0.07219681171171202,0.014568353916899934,-0.08769283847904752,-0.022767629334070123,0.03320692110970958,0.10435657631713109,-0.027177372835784967,0.07701092452904242,-0.07106173227848825,0.010287818307580802,-0.03667872845065782,-0.048055743058342724,-0.03002351705815892,0.013873380139080365,-0.05854491976657093,0.023879244786681304,-0.012900896317335098,-0.05770435876538411,-0.09173819339138865,-0.11874691611530344,0.14823441957989475,-0.015099686511162676,-0.10853304266591735,0.05031644814533802,-1.1186970343699383,-0.06102841392588748,0.08715573758758485,-0.5968547910269232,-1.2097175212406013,-0.33856025074966534,-1.0675250288520348,-0.8512135739591665,0.5673350077483728,0.34189826811051904,0.026868053158550925,-0.04953784822115191,0.09432711939025865,-0.3338694659588279,-0.13226752070200326
87.15540313720703,0.9188003540039062,-0.23427798501280445,0.007002611680344429,0.19851685559056775,0.0234520055923607,-0.00671874005994576,-0.1726480488041561,-0.04757656899776401,-0.04622624484657875,-0.10629275336541469,-0.03973154128204334,0.06146140104984432,-0.015859620524088465,0.03639461259032483,-0.02714737065754538,-0.01908421745923246,0.08293696397431652,-0.06633722216663472,0.005070074768802951,-0.05339043333850839,-0.006747836836153641,-0.0400785925225598,0.02303642359900747,-0.04759474242958421,0.06909781972321598,-0.045611664264853344,-0.008950082797298822,0.06257186465987363,0.025859067656794688,-0.003015903420233647,-0.028784077285242377,0.00842544449139016,-0.011769995016668776,-0.10052867490564744,0.009009995652920818,0.03934760870831182,-0.0008694746392027234,-0.01498858396539057,0.034957578172345724,0.05668573659340323,0.011266890345809319,-0.022956062202398996,0.009010295579376756,0.07724791670871549,0.017767070267959848,0.050483213786946306,0.06729484631385499,0.031284283637888016,-0.061388022112365284,-0.04658535426919874,0.014360060112518582,0.027812748911873058,0.02666503044229336,-0.011740882324505125,0.03419330414119976,0.002452628439078201,-0.022742017839850692,-0.024801968581697628,0.0334697503815842,-0.03672407622455681,-0.026283456256646527,-0.03974151252709407,0.07773555720794152,-0.17424070677949965,0.6672903606658995,0.06307990455266735,-0.020967762966997854,-0.06494359652761611,0.04066391397905915,-0.021125248420294892,0.03400081515807185,0.014683936742631604,-0.0366198217006303,-0.017029899826166532,0.00514206644102939,-0.0019966991683935784,0.023300857111416447,-0.010157139133177367,0.040036465171158046,-0.06337817888746121,-0.0342537545921666,-0.2304470334094935,-0.23783450320820188,-0.33756290536138756,0.07706631560630645,0.4204693858775454,-0.27892728455610705,0.2542594083930836,-0.12823484036229066,0.8845890896375881,0.09229629830593511,0.1481639889763777,0.009354294821379117,-0.855645033820933,0.6501820251811026,0.45948246489529393,-0.28909886484201747,0.14743885762498865,-0.9939209290609087,0.10441826000355159,-0.19255590385206023
88.07420349121094,0.958892822265625,-0.19365754634972038,0.03473545536930197,-0.0691916216991082,-0.10162806866544855,-0.07913468764466221,0.05659435961827881,-0.038233091938523506,-0.03577877941601672,-0.006881067978002984,-0.0030177088103424607,-0.07260957809763877,-0.04413565974311467,0.32481044546269544,-0.34289760813528736,0.05033705444320387,-0.111026324414427,0.00489886689144562,0.29532251495196093,-0.14402100252663205,0.32520570917074565,0.03669557496890531,0.24896891708787453,-0.4780275381261476,0.3319211164339122,-0.06655112764990542,-0.014875154875866527,-0.05459970768067296,-0.0720123196322611,-0.0015436353663528298,-0.035826546420731575,0.04336596726930047,0.01256668485365692,0.008315909598097894,0.0037828789115684006,0.02757136908535074,0.036240673685246826,-0.0845850583599186,0.0710895236350686,-0.0018074047282257547,-0.041226947179544275,-0.05579645618331362,0.005621846641719186,0.09785316457876571,-0.07584695373709181,-0.01393509313704189,-0.029693352027907308,0.0632091162890006,-0.046541574124753536,-0.024706288154663213,0.0025209528510744543,-0.009360209798626848,0.01656675581566488,-0.015881405617927224,-0.030535224512563835,-0.020362429970420128,-0.02088299826450993,0.014470857225692198,0.0334681507478239,0.012897896357290353,-0.04703983012803221,-0.024746732932970545,0.08219855940229875,-0.002619922621186252,0.014053877015818,0.06265711351580842,0.0620379827849008,0.011911680533717398,-0.052960992371657634,0.022252663523745442,-0.04728043095918612,0.018711730031043164,0.015528954862203929,-0.016639218293364823,-0.027624119102553725,0.013762499238173626,0.09547972855915024,0.05715496939243647,-0.059154818542340074,0.09662124547066264,0.07131929455129409,-0.10298487743996163,-0.20983712638601065,-0.13900259382044336,-0.1620314681632768,-0.5155305653466424,-0.4919982706579074,0.7218580736149404,-0.7048552184997307,-0.10989072426656904,0.333142859061603,-0.3892752926243499,-0.4670925645040203,-1.2366280733722441,-0.2351610524185513,0.0924749804363074,-0.09080221275852227,-0.20437991342729783,0.23623121201937597,-0.24507158023148196,-0.07102582369624423
89.03309631347656,1.8781051635742188,-0.07806257726052744,0.026246836250419917,0.04502913115585752,0.11309085492778512,-0.04781023521784497,-0.0008492531208574051,-0.08426240207808547,0.061920126004769815,0.07383285786761008,-0.006431004526015605,-0.0018752664046449534,0.020666023345581017,0.04627543980120262,-0.1214063489812002,0.06078913746207743,-0.07955528508295459,-0.009441791760991717,-0.007757402470940956,0.05200391691918578,0.02439985936214988,-0.0045486998551151235,0.0008788630017791126,0.004014622308125078,0.09909625641492528,0.010090210413930243,-0.042118740837274855,-0.0036834803701585386,-0.04672527694489853,-0.0009498280352449179,-0.03035645037324805,-0.00045149480476738883,0.001517973830403185,-0.005439629990143826,0.060019144249113275,-0.029699505446993867,0.017654765273539694,0.04314662544554403,-0.016758194266968215,-0.026116741328073435,-0.04038464637365411,0.017198692794004957,-0.0013224323062547005,-0.10601496994577879,0.032631119631504654,-0.07184143827257836,-0.009201279413615135,-0.05918594101445726,-0.0058464743835078825,-0.007724967586788263,0.0014988358017967206,0.0230552596905995,0.008723703441118731,-0.018251798117836077,0.07438669337947347,0.04235105603906393,-0.028395457477140285,0.076350193185306,0.08194511901678506,0.04040669701618978,0.0718135087445278,0.049794735849164044,0.06745650107723478,-0.015730088760573732,0.03385215914587379,0.0016844301295907659,0.01904273993278746,-0.14305171231089836,-0.00480797536791106,-0.0013238363419953783,0.03849029325662004,0.013361832685296641,0.12082382220752025,0.024486464798599138,-0.007543273945406537,-0.01864377558386529,0.010257715228389572,0.07473779525330275,-0.022424026436078912,0.013284546012947379,0.0025234611388644007,-0.04519345152399305,-0.05638535431051239,-0.030563282041734103,-0.18260900893043058,0.020782648671738298,0.18596386589232622,1.1169676988974402,0.496048956400339,-0.14040581924770976,0.20782422458219396,0.7278958368339796,0.30881213946500574,-0.3293442887059479,0.10423952721413743,-0.09541287186493691,-0.13558432580340207,-0.47470305857712897,0.21231632423640814,0.09210436915352668,-0.02517487546869787
93.61820220947266,0.89849853515625,-0.19794292265915733,0.32022837758496725,0.11973776241658603,0.15740052760286205,-0.19636875678249957,0.12860553628049903,-0.003147031515070387,-0.06754957174932623,-0.05569208343797848,-0.04751408330057148,-0.021661116144925302,-0.17002035860738726,0.1784494800192004,-0.2169037979638763,-0.06735258447944159,-0.01079710540106834,-0.05134298154254299,-0.0373561427495725,-0.03630409555182129,0.0482607960649248,-0.05855578396974055,0.06428454371508238,0.051712844056064494,-0.01528041609348603,-0.005183159562268052,0.007620887979159489,-0.031504609177158915,-0.011426273381212201,-0.013682787819387475,0.09641617543078962,-0.005300358446959655,-0.0477433806921017,0.05962611230968913,-0.05334127553633687,-0.013486846542014114,-0.013027532674593457,-0.015764327556920286,0.0588177417547851,-0.03791274446118951,-0.017077169331137936,0.12014764256486885,0.04621583237545028,0.07214881470969356,0.014730188859764973,0.0019468163437790197,-0.02126357400586613,-0.05295865332199996,-0.06181817304733004,-0.008822073089727527,0.023101038200114502,0.038758577115249084,0.01904786751988752,0.04792909964445485,-0.010827088160827697,-0.03865531045607783,0.029458415968922375,0.04610527599332079,0.0028523346438504814,-0.06403286202859607,0.018617571838832857,-0.11190994235253428,-0.09996102814109281,0.04897324781905075,-0.04863496924985218,0.009357786642644101,0.051700707062141034,0.059713818815834686,-0.036813786607109454,0.015600012403083754,0.055710974170891187,0.05192067913958009,-0.04960376565985644,-0.017907392189575166,-0.015772733059590843,-0.054350195506096766,-0.006769600184552721,-0.06371325758348657,0.05240480132956821,-0.10369368980536271,-0.002296872813545415,-0.14348926099867038,0.3942321680275072,-0.1485230854785622,0.004240761151161107,-0.033321153602803244,-0.7425676787305611,0.6538815686928776,1.0972971894659678,-0.0913281485098271,-0.1967932922793967,-0.4979625115929912,1.1401904376653238,1.3469495535947889,0.5587505872508205,0.34074826820947923,-0.11519998960381847,0.3561052673270056,-0.9164728287146829,-0.1825435358131068,-0.17856014310778126
94.5167007446289,0.9294967651367188,-0.05648592481929414,-0.20115234646928137,0.11513529133631036,-0.2169018867067737,0.13569773307711705,-0.1482367217181691,0.02108988338958015,-0.08228493808589817,-0.09281699204899635,0.1345488021266007,0.05701945213558554,-0.06925698707921192,-0.03625358040849126,0.11447424431795356,-0.07696466909190455,0.05237403108317038,-0.08470901359107934,0.04094131220378712,-0.011876237526838153,-0.0006821255391782112,0.025686215834202414,-0.013027112499939085,0.09127985855872749,-0.09590357700273228,0.11796393600524331,0.006337486283740766,-0.017904076695439322,0.022557344215964493,-0.008370939696153122,-0.03254166978558245,-0.0706022857350079,0.037272492510574795,0.025610649775854262,0.0027764279939749533,-0.005042604909722529,0.0213816720838509,-0.01642996657099614,-0.02534165226875706,0.010868831022774441,-0.03580948015621809,-0.07160606370057886,0.040512193434325224,-0.008133949282417154,0.0420423961914791,0.017354097382733823,0.018820619118706167,0.021292875119410366,-0.053369014455874435,0.054499151592526454,0.10220378378686576,0.03749054335708208,0.034609866751603255,0.022191686765978727,-0.04477800553621381,0.010434249003732316,0.0033629172225827994,-0.04552637885749325,-0.007585823423214358,-0.07284452620956604,0.07399456270386652,-0.0032421790357888038,0.01867043905166077,-0.08307534942317775,-0.044540319313894794,-0.023091299406512247,0.06641341789158348,-0.022446725728342876,-0.04089020854744572,0.04081435554296642,0.03190312948134914,0.0436100435886478,-0.05508694696660031,0.008826916810624814,0.0030873634815932194,0.027482560577717932,-0.024282829514592052,0.004707926085662808,-0.09537346830376316,-0.0840217817026914,-0.06956779614096617,0.009602394545356862,-0.026834146193366916,-0.10143196103586985,-0.10262299847964299,-0.5488638249222949,-0.5562587199533187,-0.6964648180052264,0.208946127525197,0.23664932039062891,-0.455354824967044,-0.10295157753165762,-0.937917972755622,0.6895428961936044,-0.3992676907871102,0.03471956303759087,0.23738088152018536,-0.3237337237919273,0.18389683307412466,0.00027017732128817307,-0.013231851638954822
95.44619750976562,2.027099609375,-0.13632519501853466,-0.15382023984261115,0.0694583705214678,-0.15676624573217315,0.0707983959107427,0.07391313384786612,-0.011696181616853159,-0.09226267173665757,0.11376989945017692,-0.21300889842248505,-0.05797782423464332,0.019677622168215544,0.05069278006194611,-0.04857207806806739,0.025003277440991144,0.008074235803737263,0.003738437959718706,0.040657629290662974,-0.038697030542225716,0.04358118688897971,0.03219132830795454,0.01279332820325323,-0.0318968796473844,0.05582506254383793,-0.029839450040542746,-0.0026137827755344603,-0.019796376885355297,0.03072728841141377,0.023653116693780167,0.07352734252459862,0.008840405405625227,-0.05135468277383551,-0.018035132104110743,-0.02046911949964638,0.06313782782671187,0.30532028769211417,0.02662771592797382,-0.045131806375647975,-0.14559141439275414,-0.04921074453037909,0.017662693110570542,0.036203453552587285,0.006916063476740505,0.003203853584853922,-0.004435280410470893,0.05601077880808658,-0.04009881107970038,-0.0004686148113592706,0.047911242638736876,-0.011608693748914056,-0.04234400182133612,-0.01892242620060345,0.021892751388593663,-0.0009363944676941166,0.07220134747295995,0.03754118830947963,0.029525262638617256,0.028447094616940696,0.028854180149041928,0.012616017608080315,-0.04760064428833247,-0.11748412745403383,0.029080161944887363,0.09407038169628915,0.07947157064892238,-0.009983480361319207,-0.02475853327510213,0.024307817374319654,-0.03703549520511953,-0.004668027934463905,0.05826959703037658,0.04288997565648586,-0.0070925396089313725,0.07209795646076503,-0.0006443638702314463,-0.04500639219600312,0.07844440928962305,-0.011691282183970331,0.027813780289025116,-0.0764360614955994,0.07626203120589843,-0.13094043907815098,0.19374136509462964,-0.132564212796189,-0.15682567129397898,0.27591124078814055,1.195022416592971,-0.17450484110809755,-0.1417981907275395,0.3146228066100692,0.8278525276047797,-0.2852296215879043,-0.045039823307282026,-0.13062825724250043,-0.25781344288296437,0.08980157801211931,0.4418515347733408,-0.3623504215703091,0.08608334133385621,0.09584740790347068
99.3019027709961,0.9387969970703125,0.8030506121412382,-0.006304174279882521,0.2907982392678762,-0.16123806425086512,0.3657498991431802,0.49503143528856297,0.0638264324140268,0.268882206451662,0.34496191456684094,-0.21225240193203654,-0.10690149377540653,0.007957440203217812,-0.04963687604205373,-0.07330721198512223,-0.008619775083130832,-0.127270612057077,0.012237996241060613,0.05189956849282987,0.01823240828323118,-0.08083032501427699,0.030501863046503055,-0.08351387728498037,0.04512612489339273,-0.054202914233250264,0.014662265549325326,-0.009127994891825164,-0.01898774075293459,0.07456103328757935,-0.030072036043924406,-0.03696242711505026,-0.0642884309966594,-0.027059596259365677,-0.026773149415335058,-0.008336941307218917,0.012465927579315934,-0.14624598605782954,-0.03761026442064522,0.020608382946185846,-0.08091387084499671,-0.03865920109521584,-0.011047898927426398,0.027731174411363482,0.03815396949160797,0.0015017923036956685,-0.0103753450820985,-0.062245535788810806,0.04386268941502369,0.015913598535805325,0.04818083020988188,-0.013322222571926418,0.05919858492523269,-0.021090635716063746,0.015654838303288954,0.053562970630051415,0.021059233929975427,-0.030706525522969295,0.0008381655287105771,-0.01986675969489119,-0.07043459125536117,-0.058497170715808074,-0.012456209540457421,-0.01484265396074964,-0.07506952668813772,-0.04239203728617941,-0.03312553500686417,-0.03729100563316035,-0.012826135993760073,-0.01522310170066555,-0.01282697819659153,-0.005550933983382548,0.045023882868964665,-0.010090774047692135,-0.07165312541601421,-0.06132353378577491,-0.009458923133212727,-0.03802824277213538,0.003384899069558257,0.015971793644938566,-0.00878816192958113,-0.11895464941681738,-0.11968980690906633,-0.11764138992359523,-0.15934030755250453,0.22250124577661057,0.06874050677233573,0.6525072887812677,0.0004830110999054227,-0.4593946083716064,0.35187739020849174,-0.26764149426210593,0.27287336611139396,-0.15832018399701822,-0.7916271210696079,0.3989313054906124,-1.1226157698270558,0.46268858640649385,0.11523996795114522,-0.11389982899312963,0.06054528196229219,0.0645266165442688
100.2406997680664,0.919097900390625,0.06951501763619566,-0.2345669668989208,-0.03894147813229842,-0.03535691268747004,-0.096549155698119,0.052883259540388874,0.04604902600363652,-0.016122266073113616,-0.05231214914043614,0.04496836418712469,0.022713679440737267,0.05559128501620371,0.03373782980420208,0.0901201737611374,-0.016177761292537094,-0.05934605396224853,-0.06611206796451297,0.0016122913606136866,0.037057505655414706,0.03869116419062843,-0.029270260698794168,0.005246567292232375,-0.024562807710066005,0.04973592206121983,-0.029439473477687064,-0.09826916745423864,-0.00959261389583724,0.038296139346189174,0.015256068244909183,-0.07963814153571847,-0.07221216155996928,0.007244197194142654,0.01279174467574988,-0.07384358668422171,-0.03055227960278222,0.02915635333087053,0.008443113394072027,0.09661357689102268,0.00404562060231567,-0.011750966785353003,0.022298231706717533,0.03218033667939792,-0.04767820221613392,0.0023586576307013333,0.003746098372266679,-0.016274558875005406,-0.003843453389276323,0.026801143017080063,0.12809726142912387,-0.18459946065551766,0.018869875026540965,0.050759210078353816,0.008631980207061775,-0.008739313945983453,-0.031546362784118986,-0.0006158082927797473,-0.015512812950503116,-0.012059703520755072,0.03155166884212551,0.06524219765344656,0.01613012217761438,-0.05005588192658024,-0.041733074800838973,-0.013894544416125615,0.06930938162066622,-0.011197156976509436,-0.06684937570254408,-0.017015230816078458,0.008260889485526687,0.02698520746983838,-0.03811548056442584,-0.06926901094236666,-0.007867460062201393,-0.016130898149423388,0.028933249623215654,-0.055366479319423526,-0.016757854953170986,0.00809972218498365,0.0014942351855884127,-0.005151610015629897,0.046885332260653105,0.13800672435601535,0.2254387489242059,-0.0012379825761305863,-0.3226941633716483,0.21857910295236216,-0.30335566231344446,-0.13089385898739433,-0.0950575418217409,0.8395336063900216,0.9683774726508296,-0.14601258630071612,0.48761851924724525,-0.8407119859149506,0.3854752091812278,0.045244206869510334,-1.0933384939415143,0.8648312307684398,-0.3461839468175756,-0.09479331081822756
101.15979766845703,0.949005126953125,-0.23677170769101374,0.1108934865222953,0.020464272572309556,0.1942212252441494,-0.3402840167154418,0.10388216695634439,-0.0483990168384343,0.23504779556002076,0.0452954860267663,0.07683256869930041,-0.05667556646261687,0.06651852653798883,0.10391056586857214,-0.05071340373861546,0.0678907402475351,0.001377676053511783,-0.011838705672737567,-0.03719175973989823,-0.012976366989777943,0.021967810845170327,-0.04443091871186506,-0.024702759717813036,-0.037829813082136274,-0.017028407494461863,0.012363117657796983,0.024879998021210097,-0.0374861442047042,0.00120577113412129,-0.02389394288665795,0.07274413986546555,0.033661482782759634,-0.0841773902415825,0.06738815926356183,-0.07497437002154703,-0.013849302049610946,0.06033441836675195,0.003969630415307565,0.06148806247531553,-0.03182485462270717,0.0035297159017513586,0.003924148257061281,0.09519282588142045,0.0069755046529232645,-0.023610892098715794,-0.05406282425930862,-0.0921460161936022,0.006196609799833259,-0.020204406036146788,-0.011544586901064646,-0.06530579560137578,-0.039556810906030644,0.04084995392136269,0.041254964661965446,0.022152770131445017,0.008552368279144294,-0.02608786850726881,0.012472640272329841,0.03293244895577249,0.04707683441939482,-0.06188485444583722,-0.0583829218640941,0.02594961437307456,-0.007898167047725703,0.0047995840090384045,0.04162361083502477,-0.07384968446066803,0.0002636520478574364,-0.02382788199700083,0.030795203090100413,-0.024534027369129435,-0.011628038834568158,0.08580021566350353,0.028772603831778085,-0.005089706293030148,-0.047108711179050085,-0.0009358120278132281,-0.07196719834800636,-0.005672561643585358,0.00778659375062985,-0.007102762090060269,-5.2990597688561125e-05,0.05742713843638248,-0.04941201652364816,-0.33857835585751095,-0.12263533646263775,0.7852213436751884,0.39719425219732746,-0.32551853512683204,-0.2787747476725328,-0.0414706609300349,0.24029104998586606,-0.15079311636673284,-1.2255751975616649,-0.24451696704580644,-0.8067723657555508,-0.29513976695704924,-0.11085245080460439,-0.19287871456615185,0.10861840861648205,-0.12890617143668187
102.10880279541016,0.8986968994140625,0.006412249545642623,0.006531641607253173,0.03870409318733056,-0.036460589910400854,-0.04886503147147896,0.06344152694389213,-0.14845591580105422,-0.07349171570236855,0.06184926954900658,-0.056231662988024636,-0.039726910073793704,-0.024566649431536056,0.011749450404017219,-0.0005030220016013616,0.017886058972792395,-0.009269848964363765,0.08047051986876662,0.02845985287645324,-0.011544187502623496,-0.1146002856278423,-0.007091921897778237,0.04052386506608378,-0.036400385392894016,-0.002585514355542405,0.043885906515207206,-0.03186865536615364,0.11312680265346212,0.0007442049837988709,0.08130154067235992,0.09322773808163531,0.07076168382748386,0.014186190878209411,0.05812718428342505,-0.04139851170203904,-0.02199789361992243,0.025554883383066447,-0.1709083580506507,0.03206260870687676,-0.08763654102699767,-0.05608047880822024,0.09804066329105054,-0.07379267987160987,0.07194588315538226,0.03702580898549504,0.03420484975930196,0.013589732327829306,0.03003877710928818,-0.038428038343463436,-0.027425875352615252,-0.0056833362084938825,0.050333145138457526,-0.012252374973503333,-0.0025048838899970963,0.01344308698572405,0.021889877289987265,-0.09427581579824855,-0.04192105577150379,0.02315473776843555,0.07477437108156693,-0.04925326096760425,0.012764288150728767,0.06010167079067083,-0.08819522955482714,-0.021879081741272878,0.01700913109664871,-0.0014190836949765605,-0.03255953404039651,-0.011010058710703378,-0.053476820429371554,-0.045125069289900586,0.012551160988357542,0.057247929487027116,0.04401834866264864,-0.0017890445375550853,-0.00015399674726059628,0.04193956366638482,0.022622452024720883,-0.002682973149173218,0.07312565221701983,0.1427912604247533,-0.15310676668023782,-0.07979838876563976,-0.0267686571010786,-0.08348131300592865,0.28119013902824286,-0.12678484735463108,0.8093110716401624,1.4972608607397668,0.04406880702131283,0.9338978447976152,0.12908330692613793,0.9422557786261331,0.02683696918453843,-0.32007966917191716,0.041812229214320526,-0.044426268913625167,0.1875309436609784,-0.08544739822996654,0.2054386220818572,-0.2679583392280665
106.96330261230469,0.9189987182617188,0.0914357285958276,-0.12561209734097498,0.15216764336143468,-0.019649399317093807,-0.09853290532944492,0.07313073820740827,-0.01162604734186429,-0.03174001533721248,0.044433688550280355,0.036905068010089095,0.016839094555815094,0.012069329083999124,0.049492014708837816,0.03056302217087601,-0.00169111103805401,0.017948479251180947,-0.0544249204111419,-0.049399825364499377,-0.055010331092536155,0.0012277437037217067,0.08719393206207254,-0.08927756836211362,0.019470925142781318,-0.015752411958680948,-0.0006724993430339485,0.056344322213776964,-0.026506522605286964,0.06901411831892573,0.041174364758243556,0.11517707836683773,0.07710184272619572,0.037360046719621884,0.016344375886824677,-0.047120344886584224,-0.0005901140098004617,-0.02097743564956447,0.06228616064708571,-0.03252662652330543,0.01841407233970639,0.018930956360602273,-0.030295888862783234,0.035735243895928005,-0.014294203147569254,0.06700868198917116,-0.055233954217466776,0.08058542385287158,-0.006220726206650696,0.05144502080172367,0.0014647944131375504,-0.016915549719291597,-0.0317465093496041,0.04789739567436612,0.03390723972631706,0.008907852336781392,-0.056454412546454474,0.020862997527707053,-0.018951831712459538,-0.008533071669750147,0.04295738829809915,-0.007189434012318113,0.04142438253807072,0.01895141579878573,0.02450334675024833,0.026226045769940885,-0.06595055433328767,0.017258176227002646,0.010406597058011842,0.04841199416570075,0.022919444547720554,0.03167448441117186,0.020500667356182035,-0.0031372350052631948,0.048852169849964655,0.031953730774988934,-0.06873801837576615,0.0038405990548054025,0.0020968381183052746,-0.01700156071337207,0.002693736851069254,0.10501697792894822,-0.02654589130126197,0.40550058656454663,0.09344958427969383,0.09243527031217093,0.9620619195479234,0.5185893679209252,-0.17162482204236815,-0.7300350311366363,-0.5676226653078296,-0.671683497181924,0.35968326001613127,-0.4960963447974366,-0.03489698353580134,0.11021324659597645,-0.07104056351980698,0.1246884570308025,0.27545650972098507,0.25080966650625947,-0.3042877529921997,-0.184491342282998
107.8823013305664,0.948699951171875,-0.022400861429246355,0.11273127157644057,0.01839640363867827,-0.06167674517206792,0.09233519015764766,0.1301954648385539,-0.09734491107966159,-0.016048825517565236,-0.13287304474687403,-0.048023773645372594,-0.007746171036359848,-0.08157047474949781,-0.0989204523779798,-0.15149408411590237,0.05440955673461041,-0.01539803151161654,0.025012948857757174,-0.03533422535358492,0.0022089966944735633,-0.0005532128589264269,0.01278775442762342,0.0032479420567628923,-0.0002757179830193742,0.034791164919808285,-0.008037492680319303,0.004216221013655825,-0.05207285764644701,-0.002101807776163975,-0.034420897367706996,0.03522694482875854,-0.021535855783925244,0.014355399987059161,-0.02126318039464085,-0.030550876445925534,0.01916124846438393,-0.036894811828568096,-0.01995877535530137,0.0005337085025082788,0.07091207573599548,0.04098390024690271,0.06151765844978662,0.06470476226426769,-0.022192464354879413,0.026327131330538753,-0.0500801700172066,0.02808109078626998,0.050832906732770994,-0.05109850939109904,0.04388821371830147,-0.02507628957593626,0.019213668810303224,-0.026089300504584436,0.007877293833541618,-0.005243953938958104,0.02519578412669704,0.022230963266232025,-0.02962634293463453,0.00887228174715939,0.0054931032281216735,0.0031049305304555394,0.030820853185981236,0.018179934642214166,0.03148662986498417,-0.025638555000506217,0.012744628026350211,0.013420709755354547,0.0639005547755293,0.031865642258679674,0.0767637644542571,0.04789694822146075,0.01979647254830865,-0.008272967802024564,-0.02972219727824607,0.012789498665402698,-0.017233600198821475,0.0039039211622997174,-0.004474934233910549,-0.006814330945715712,0.05663775977645999,0.034759756181066984,-0.03476470220956743,0.05471358470796429,-0.0007955924293853306,-0.28963591266079336,0.06837996687671209,-0.9655784075833843,-0.6180301188298374,-0.046849343240123936,0.3307856876538373,-1.1491787667516031,-0.33859165977774863,0.7747330441021772,0.5755771076636991,0.3929787143524854,0.437682425186892,0.6481658017847208,0.35707818604612396,0.07674389021102385,-0.0142176300252886,0.08698064014820321
108.83100128173828,0.9292984008789062,0.2052303565162712,0.05612684529450197,-0.012347996147302798,0.06043095178713208,-0.11906916945989807,-0.06525208435135599,0.07795391108021309,-0.0041082178487918284,-0.05142092586851214,0.08077222782899252,-0.002556907888758212,0.0945525161287644,0.0328756283790705,0.051718002112873675,-0.17694174450974487,0.02328084558163486,0.025197434755926878,-0.047878759941102675,0.001175376160373534,0.03828434411463259,0.028477514932174246,0.06860559057593986,0.036020992967005505,-0.01885682507127208,-0.013577628854690098,-0.020797666794532387,-0.06225497885770761,0.015981862410838474,0.03502484536535658,-0.0700495338095904,-0.05021675691028826,-0.019975260311976464,-0.03210018954478139,0.0015023688840234077,0.017302541836167813,-0.026877345370881878,-0.00790638024262664,0.04157663269466563,-0.03213149280891539,0.023040148421865813,0.027509912245200795,-0.06891055096309254,0.04471131216952931,0.003986117852704942,-0.012723142302088087,-0.029267210954163597,-0.006016288068855666,-0.01805339504985451,0.051266048084481854,0.00556850913948125,-0.07484744340826925,-0.005866237806179312,0.025809825870253014,-0.04110051866180363,-0.009838603691975693,-0.01297212808472814,-0.016579776305010098,-0.03644642775326906,-0.03625770702444432,-0.04129375311492998,-0.057334994280997593,0.03969402521920554,-0.04384266989818385,-0.017736636461583462,-0.044538944923752884,-0.04537607387330068,-0.00803686727565757,0.04300036618933676,0.01645955527214423,0.0007013710251296233,0.05607026675967887,0.07945397228629617,-0.03791358283298418,0.016934933385374447,0.04567881831155922,-0.002587961934233845,0.011616782561673648,-0.09772261852308306,-0.04028551616736037,-0.03098694668329918,-0.17080330691852083,0.06086422567962987,-0.10106543224838278,0.013567350446596571,-0.2925885290663712,-0.09810310260087479,0.15814299154878925,0.12244990125362921,-0.017759729158185675,-0.40496147811773103,0.23548384728258412,-0.18453024434294873,-0.3700689517955678,0.22249669186024063,0.41653361843579395,0.18227142491657586,0.036179383906249085,0.16880070344527612,0.11017082340371012,-0.018069528963458786
112.78700256347656,0.9385986328125,0.09327837038108411,0.0817684329668838,0.029514243687379316,-0.021997616456190465,0.05131353337346614,0.041167305228168735,0.09302086812763584,-0.06759667215423965,0.024392793717984237,-0.08953335372749602,-0.0020622118336571177,-0.17359074031422494,0.02705789499867875,0.07155560334171708,-0.020252084555285876,-0.05578642099357369,-0.023869597985904545,0.031194305650761672,-0.02059037669701286,-0.1380143512444791,0.008128341878117012,-0.0015898508844619996,0.030292811251251554,-0.014437217556622783,-0.018151645091706307,0.013639000378939531,0.009638589935424484,0.012694065677617276,0.004299154294886145,0.0674119545479928,0.0471208385844005,-0.12141032450661866,-0.01152293661838126,-0.04194526922510988,0.005479643926374199,-0.05684025413285643,-0.09661014124461045,-0.008277180202699654,0.03294942285777756,0.032663259679553865,-0.0163988296824783,-0.0016176816390665381,0.017428971511193627,0.0006926057266904511,0.07862517086032905,-0.02640776788683423,0.05137877855931949,-0.0026468537772724177,-0.09678460258401536,0.07045152802585053,-0.06057615645499794,-0.048981266001434653,0.09376399450718499,0.03283913423258687,-0.009095718886132913,-0.02324766902825528,0.010803339253825681,0.029397892056533072,0.06135604118000266,0.01730154580684639,-0.07970988240627778,-0.019833634283940423,0.07560772119382737,0.004309176123801408,-0.014178481798153612,-0.031950169227089764,-0.015118731019720208,0.07435014983828322,-0.04212935638518185,0.08083620279180156,0.0004704740551180267,0.0295302785991565,-0.029818644889980216,-0.05088783945373367,-0.048290817721738676,-0.00287783238229132,0.026976600783519315,-0.023053099754539876,0.009828492205114631,-0.022973675592857755,-0.003673059109029388,0.04267682058554922,0.1692491357847905,0.009102494295276237,0.22096698322873148,-0.06330984377946514,-0.37882201041525443,-0.3460205872602142,-0.3274679077074464,-1.3738133042040992,0.1058200584709882,0.18566682726380826,0.04367079850802558,-0.6543518217196488,-0.007140642782215965,-0.8060800427200052,-0.1898195585039007,0.15400163371165598,0.37495932328487097,0.4376326344017569
113.72560119628906,0.9388961791992188,0.34644033168078664,0.040198307429857943,0.007385330098973235,-0.006665571712026558,-0.08617363454635027,0.004815246411846864,-0.08594303988957479,-0.07546742795263632,-0.013178989203924654,-0.06931342168262716,-0.0018624765592590133,-0.02451308215754791,0.0863833447504594,-0.002650384370843935,-0.04585837922805222,-0.007028087497738297,-0.023587219615856442,0.02631642789822716,0.04139381811016211,0.005925424564894774,-0.0071091937340382085,0.036080902173940756,-0.10221259880559268,-0.01657986924118568,0.03540298933544201,-0.009562468918880115,0.020976586545831538,-0.022939799108057872,0.05917582903545137,-0.0016933665159697096,-0.0061651222167538435,-0.06433361805280355,-0.024749161153533417,-0.002125896771727201,0.03509943828099077,0.06635629575221355,0.006206997556578884,-0.06016601899419393,0.0023021275290079665,0.026354699662774442,-0.050080587706013896,-0.06275116505020026,0.06034251387320895,-0.026111827367594532,0.02713949352548011,-0.0742790636568273,0.07728440823454402,-0.15358702818752953,0.2270408863976814,-0.06573392696618718,0.025807776068055552,-0.12778800116594147,-0.005992118974773629,0.008113492839747617,-0.005370045763247469,0.04493668818097583,-0.02520910887048891,-0.031431549084112054,-0.0075117259275093926,-0.02024541219306188,-0.0013905447318966271,0.0898075824834053,0.0126230838614141,0.045932524105927,-0.025481424782733936,-0.054853742588452506,0.027377833915287697,0.06948542637964877,0.044598047052761,0.07853721690899272,0.039634502460424104,-0.08102772005395897,-0.052245181631724424,0.013457554486665586,-0.019653709559995427,0.04606432733675532,0.029283043966778777,0.060282871648334166,0.10748891754076363,-0.08829146896020212,0.1444813830236165,0.040633040948128675,0.2564088819880819,-0.2835552894685536,0.1096760071748929,-0.5165492010155617,0.24954618576996007,-0.5312225223652054,0.5068806554529665,0.4599590699270469,0.6578126056836068,0.3366247064895173,0.9365352231296671,-0.08308610518465952,-0.22823909569520148,0.27493590691933056,0.03458598736114679,0.10300498470029777,-0.04247958438216933,0.06019286641309085
114.66449737548828,0.9690017700195312,0.07192954206439978,0.013509421789729636,-0.09419016462705879,0.06847311346854013,-0.03831473228360088,0.06608080855835179,0.0018654266178364724,-0.12943715336069772,0.08005334698914933,-0.0017523112283933046,0.03196036795797863,0.011919759060093248,0.11191354867749499,0.015038126723643137,-0.013840668736540893,-0.062054807583346264,0.052068912521719406,-0.07623423581073728,0.013533125146655473,-0.004950674513832425,0.03444548317451647,-0.019064864931983533,0.016896918336258573,-0.004297979992622112,0.05039595856107562,-0.06534902474698433,-0.019859001505775284,0.07335599017803979,0.00687206475340193,0.05218144716707743,-0.08248957002850486,-0.06444738050320047,-0.06353509428052329,0.0039380515059111165,-0.03297603059137806,-0.007154360273313206,0.08087504143080682,-0.011416820314893533,0.0064028147145252946,-0.03704624515570287,-0.09985589709250493,-0.0038962869251276695,0.03045135405113864,-0.010080343182528092,0.008789258489680072,-0.06616847986175542,-0.06250569426953162,0.037312922873212216,0.013111427243039006,0.1073305923956674,0.040977366823946135,-0.0024076662722302966,0.025881435894768316,0.007111312868158994,-0.060101581326814035,0.02637043921980886,-0.03959102090109093,0.03769654312773385,0.04445295916418547,0.026265100487349837,-0.08120915049021815,-0.03556126277978863,0.026273451750490343,-0.002090756630713911,-0.034004903226955596,0.00642051617262495,0.02615370034435314,-0.026069493100928237,-0.06490361193811442,0.021088354559406424,-0.04208158824623125,-0.06271592952820859,0.016149563406714352,-0.06589129638274985,-0.0983805724423689,0.03691557278165814,-0.017307117393181585,-0.07766082079941823,0.011945037216337363,0.003273254459080109,-0.018976583866427844,0.1842625489194386,0.07203152342769228,0.03837462336734743,-0.31348515396603494,-0.4928277342279806,0.07570625025567154,0.017732194989613308,0.03667291847415363,-0.43730002006301105,0.7261167256029201,-0.9107688506711846,-0.2463273615327417,-0.35493795836496456,0.2123741748074588,-0.2038887028048697,0.3803445704987679,-0.08814932605168294,-0.7546042034625222,0.5412490782315303
