start,duration,0,1,2,3,4,5,6,7,8,9,10,11,12,13,14,15,16,17,18,19,20,21,22,23,24,25,26,27,28,29,30,31,32,33,34,35,36,37,38,39,40,41,42,43,44,45,46,47,48,49,50,51,52,53,54,55,56,57,58,59,60,61,62,63,64,65,66,67,68,69,70,71,72,73,74,75,76,77,78,79,80,81,82,83,84,85,86,87,88,89,90,91,92,93,94,95,96,97,98,99
11.147500038146973,1.0692005157470703,0.02696235842287749,-0.16247614346571304,-0.40475886701729263,0.13610813575939934,0.08337672592016136,-0.2072041460460858,-0.032927729501619984,-0.14546043514355753,0.11610667905182415,0.3683040227745224,0.047952860885467866,-0.16235771663708454,-0.022215741257824335,-0.1765246206210144,0.11708729866630592,0.7724458850670652,-0.04707261378020937,-0.26856721713101384,-0.06224026510752689,0.06465491398335264,-0.04378679473151201,0.227420563727005,0.18844605582703516,0.16133061513779945,0.11045287063508265,-0.048203336094488465,0.06087902830223424,0.0010783570477257143,0.06509414264859452,-0.03353816565304239,0.10386956641097195,-0.13989465557188385,0.07020694681556486,0.1372164918489786,-0.07395979597595902,-0.18066175291829803,-0.023524209658359472,0.27788304782969,0.05438137908780273,0.10083151415584583,0.0954295819423936,-0.21115568270137636,0.056929341810995106,0.14006396300446874,0.19349407513595587,0.10302749500324551,-0.3665213512447436,-0.16808808904756833,-0.04331292644476588,0.0013275302539607768,0.05153650950950741,0.029692481729182513,0.01323404302773503,0.05342486573226281,0.10404698705403867,0.07332874383420429,0.03337173564516982,0.03915914138957144,-0.0918807374272462,-0.0056032284445149926,0.004795435953647674,0.00863918798185808,0.05490475225711028,0.04465392123402756,0.0217043514881641,-0.06795318995134382,-0.007714111579583011,-0.028365383578350514,-0.09334606035654137,-0.040208311195675174,0.05298623623742859,0.037410388106362484,0.003534385497026251,-0.03268801445473659,0.10689939189819575,-0.046422537126118636,-0.006783158352346437,0.011160248184912458,-0.03520218329708888,0.0009535578419966725,0.0037315452880295067,-0.019886618190770797,0.019180451888573147,-0.008322290847453801,0.0038753734999086146,-0.04020358298940983,0.011448772917014939,0.024389819249612865,-0.1143475637950468,-0.19076299363025562,-0.06869032540952837,0.24778552583120023,0.06605757382343512,0.05504307203123565,0.04809758991578824,-0.23301473811816045,-0.06471900663479549,-0.06465930669547781,-0.012557270447300194,0.07993394709524476
12.216700553894043,1.0886993408203125,-0.05878843067449696,0.03441850161525083,-0.29348589693050336,-0.6430051307312532,-0.0023239451547588663,-0.1936480340688054,0.10967518151575939,0.13826804674670137,0.4229170431310315,-0.049124383932882126,-0.05811646189433205,-0.08107240534342461,0.2143560501270267,0.3279893770032529,-0.2770934690145635,0.10298745516302975,0.24535926788149404,0.24896710056081806,0.09275803927213283,0.17268742808095122,-0.002688487913654748,0.2596188204169031,-0.21860921851573217,-0.21411062076013096,0.052078224362689954,0.057852687092157164,-0.16287817970578994,0.061241750765584815,-0.12321694949044415,-0.0020684492304436156,0.06375469190893153,0.046085042015769385,-0.00842262749736432,0.22330551551177757,0.022819727826311052,-0.15169018328449901,-0.010041084977382875,0.009186130345454322,-0.010333236677561666,-0.18092070263713544,0.06798057653642642,0.03187559853982301,-0.188851405796254,-0.017638615674207162,-0.021134984089115377,-0.09803646348073161,-0.01623702610112748,0.21120162687077593,0.0178082014436897,0.13228029318906018,0.2308769809892427,-0.24351833952561822,0.027738665902902436,-0.059240202998566915,-0.002151460068113127,-0.10364355065266027,0.020496781149893156,-0.0004429977553994998,-0.027738071754311908,0.019665734254219382,-0.016597772688503196,0.05329745390329138,-0.07101289219190034,0.03275012724629155,-0.031396644217657955,0.060866835314044875,0.04206766051392359,-0.07404257438452697,0.04920067064387752,0.03238398959815331,-0.042439766257859585,-0.025679845213376053,-0.012133591427448104,0.010107847597991498,-0.025889292972284504,-0.04440601436057189,0.011868111338052609,0.002695841993830901,-0.008780530849209604,0.07743449349573497,-0.0730677005847999,0.037516398835834006,-0.015835175420216816,0.007560071859896376,0.08874861200343098,-0.03408004455749679,-0.05142874058459052,0.03267099687584306,0.22050656579397762,-0.0733676883816924,0.04748441976019054,0.1037555142301987,0.1266000761912833,0.17061947334776784,-0.08968189769014814,0.05242891205534093,0.2101920536042139,0.33337376456944123,0.07906671700332624,-0.027615190510758135
13.305399894714355,2.2875003814697266,0.14043204822633681,0.3580930209255446,-0.21835741260647462,0.22882372486899966,-0.4947034586901119,-0.273581642897607,-0.08614585500185376,0.23753709351402244,-0.2630590041802616,0.3970744871525089,0.08894822720528363,0.7129361938474064,0.11773434410018215,-0.4840620006293866,-0.051236077066524145,0.1387283269187098,-0.14840274947201954,0.13118853979001166,0.03318128417482881,0.29972492341155016,-0.2383244850250746,0.0423475428405022,0.13154082544283416,-0.17763636607860153,-0.2817403933592876,0.07042118574083793,0.11692612688346081,-0.006332281332822515,0.07378790367396162,-0.020609270522107752,-0.14472329224798694,0.18291935492552888,0.2218424338962094,-0.08517917602694602,0.18492900279445826,-0.40987335899208266,-0.23910766909617118,0.0984039043692592,0.11210013122493301,0.45702952711811273,-0.024310657319550594,-0.03948260261756636,0.2617843571274562,0.32239555646540846,0.16990286268476543,0.032372834450029725,0.06378347478888786,0.09960356288978911,0.02946750790125634,-0.15998552833101934,0.19386075675855086,0.12545811972631057,-0.04250915942035796,0.15247079397612756,0.00836915309903086,-0.06140520842306296,0.011961011013365885,0.10813384395960698,0.05526849576889806,-0.050071160019791214,0.019142644765340746,-0.0397013627068663,-0.06284689602460167,-0.06727737601706571,-0.07522008462290228,-0.01803506714959338,-0.02548113808915196,-0.04932501983007901,0.016671206771922468,0.014555210838994243,-0.00914658600428686,0.018759354428058605,-0.018750138504295664,0.004548293799426655,0.015576167014035162,0.10366388815877717,-0.0779477064579557,-0.0010515002460211036,-0.06544573778046207,0.0026889185288618616,0.005220877066318842,-0.0003128382870607263,0.06419250428970284,0.016647705439716533,-0.015526329991825166,0.012959488504948788,0.006842639058554532,-0.026256694585310134,0.002142474670578297,-0.05773906317588383,-0.08534753890351594,0.42987981923130963,-0.27206554584478043,-0.1006737274313443,0.06009578748905496,-0.06205783050846395,0.22688449924813975,-0.14337541075381352,0.36143967092113255,0.17412776091485788
17.82040023803711,1.0786991119384766,-0.12338403765564881,0.014546340229198592,0.06970999664650152,-0.018241757963436217,-0.23287864703859384,-0.13638859947107654,-0.26566059834572875,0.3854112079820016,0.1379735854564042,0.29878486705445134,0.25488277161772527,-0.337025151693329,-0.2822623789725632,0.20204742805300166,0.28212909289853955,0.19498069953195957,0.24888352855421617,0.19934225568279845,0.0053321538833201705,-0.06968685710021674,0.15049387958327268,-0.13508074802496733,-0.08252543455858737,0.04160103171017983,-0.047652428501882574,-0.04773884462319636,0.024330922868674807,-0.01653124038511622,0.018907118885025796,-0.032455503420087836,-0.029052077251096216,-0.033901023141963235,-0.04048926593455242,0.060527906527867194,0.09243947125291768,-0.07248399991160895,-0.11683016275729097,0.0005946505707064598,-0.12392673465363985,-0.0463127410701476,0.10893618406442417,0.0014984792753834787,0.05638393738727223,0.24698320488003944,0.0026711136512104178,-0.13128351481305428,-0.00280424246257406,0.11981410762319375,-0.10930902179487885,-0.08283857135895613,-0.003616116826309107,-0.07190602721355376,-0.002419149540074118,-0.00912312861022968,0.009508806580961362,0.005351212256908235,0.020585946249180608,-0.009203570186678434,0.030473380525304773,-0.014762788318515178,0.021696803742150897,-0.0020995305806547878,0.0236501956298116,-0.040046534900621905,-0.05548739899400018,-0.0015840894951519408,-0.004291270019903648,0.1158279231285525,-0.070129288805506,-0.02874550841533261,0.02138506782119777,0.005256059048008023,-0.04161207801008596,0.015174543061647899,0.0722902202765784,0.0015722578531018653,0.030294443735426294,-0.0060356457599484515,0.043520638946187955,0.004689274890561008,0.00932744177734928,-0.03463554508322616,-0.0630660773983355,-0.021700284402300422,0.011216066672579664,0.059131044332512483,-0.04303910004476177,0.019818547330767863,-0.06225406685073176,-0.06939418568831517,-0.0005034022809884829,-0.04827884849436082,-0.05199613353755239,-0.22234840536428196,-0.061045888121888714,-0.04192409775384951,-0.02836225818297925,0.0117161267351407,0.20004473247688695,0.05147508798918535
18.899099349975586,1.0988998413085938,0.20266735547696832,0.04058290051573922,-0.19534566520479202,0.3977627283386172,-0.3205682595055298,0.35785629806745567,0.28146569080388495,-0.16047167847318491,-0.31321901880463493,-0.42287392102364396,0.02225879292651095,0.20532874872041398,-0.14199053926407987,-0.46416803899972786,0.33751621113778146,0.018252016118255075,0.05822810517851028,-0.09886049551709755,-0.031464679882593986,0.006108191928825949,-0.017379764131895643,0.08502082945820956,-0.05049244291403594,-0.03431511989761287,-0.016474028565919636,0.12125237166812737,0.026241257574444798,-0.11433704172777162,-0.028513012071195033,-0.022195407439955964,-0.036421766937638274,0.022290360902722735,-0.03434460718390901,-0.0967585548014613,0.00822943779995567,0.08210384695597826,-0.04813035934939139,-0.0756028729234825,0.2071562330744232,0.016666629560216924,-0.05003011399985342,0.13551366790066124,0.05956480196141123,0.0027813667878749237,0.16614158324248457,-0.05644375826962183,-8.502713096156808e-05,-0.009596746162235421,0.038979195770732486,-0.23080607501257486,-0.061754618007809986,0.02846887407601699,0.06506848705577856,-0.004903138896622167,0.04780391627027972,-0.06569937903772871,-0.01934512429667302,0.055962945121666274,-0.01686202762265723,0.054946485097330626,0.0007677206446039442,0.0500377076763807,0.02220133212309502,0.06933032072595602,-0.08392458259382526,0.026368241444939967,-0.008811347255313106,-0.07275767009751391,0.10725244675521486,-0.03261697740859493,-0.05082582705761251,-0.023606547529648445,0.019269398504802318,0.06596035832599985,0.013175387440962995,-0.08029397759405693,-0.021378827729381673,0.011486531106871367,-0.05221686338918308,-0.009733153326920707,0.046975485628174,-0.09670058337954865,0.055336123494016204,-0.049086670661011085,0.0015741375242881136,0.039904327416039234,-0.03304491022765439,0.0033745668451843434,-0.02833057409375598,0.1463025593265116,0.02570950261632763,-0.015390177732322909,-0.14271839494223382,0.018802312333721226,0.11994929802511753,-0.2025591927740484,0.10602462790838696,-0.059866189200040956,0.10065802355937883,0.39238930316943044
19.99799919128418,2.4071006774902344,0.3977955946825154,-0.10968852361446303,-0.06078291939015917,0.06510083846463537,-0.3542728807230872,-0.34962892608036394,0.23263168208953344,-0.4350083943436279,-0.980262174033323,0.23253459890625644,0.6537073883028997,-0.006610072422859839,-0.22495117633955328,-0.06957260286963372,-0.08541735972838378,-0.06017108726352874,0.09295034800297444,0.23220141537883524,0.2613811033059185,-0.001339733544248857,-0.101136256370311,0.035057996785892234,0.04561638895642964,0.05001550988447146,-0.16141691399220895,0.0180944481993466,-0.0231002696220287,-0.03011678813196974,0.01592371624474794,0.0038984599841209245,0.05012464932843729,0.1655132568655039,-0.028547395862001862,0.03479102992190242,-0.23891706052842468,-0.09966206829037969,0.03818045805370227,0.034210133337694015,0.14116901924863248,0.05985902854932785,0.010139699561344875,0.033708695410684976,-0.008223310810694436,-0.04195350408129324,0.039839131966872034,-0.0360027961949095,-0.07261434304761305,0.038449004823156746,0.12298842491515896,-0.03106080739032511,0.0059369106084659765,-0.07165741660965774,0.06906059747989038,-0.037797648100040666,-0.03120716167179662,0.03841631189598389,0.10726819231169293,-0.0423509143790894,0.025994315715163897,-0.02487649068797355,-0.013621884990719526,0.08933892601414303,-0.0005352649807711567,0.030301341201146467,-0.01987757604176317,-0.069931944851685,0.0489591496936579,-0.04588663682345282,0.03221243950619843,-0.047615732519043136,-0.0036881046217494967,-0.0030076321485680013,0.04310594958570754,0.03230405269697504,-0.014242173543823951,0.051051977023776444,0.00043170379959444005,0.00048314673195052737,-0.0008958878268282566,-0.005347207637196003,-0.061052742301014894,-0.043244842874905445,-0.01575498112302987,-0.014179913193837601,0.00733515296383001,-0.008772862907876228,-0.01578010960508308,-0.01844183187984576,0.001874426801384073,0.11522982922849104,-0.016960892285863904,-0.08833210503106793,-0.09924437298250828,-0.24755826448307594,0.18020063844300138,0.2333298487121003,-0.02349797616690514,-0.22037442199779003,-0.04205899165464061,-0.06006948835365927
24.652799606323242,1.0988006591796875,0.13524160073766076,0.08426268138054098,-0.14428697457607376,-0.06785470473357896,0.32560725755912423,0.091444224462829,-0.46257895538257937,0.057647412104503026,0.575112989014148,0.10037352353846828,0.3956211268415721,-0.4792720093774658,0.3772031724179147,-0.42569806615804073,-0.5135362759496654,-0.38273430690902926,0.17379667347738964,0.16415365615561958,0.18052700895114948,0.029592803245729347,-0.012553533223190694,-0.0014202952983546485,0.10280712282879904,0.07492046258796851,0.0020398473814753704,-0.13714391983475904,-0.1561174654383864,0.016787402152273,0.1085705139179963,-0.10371918083738188,-0.055880840015494995,-0.05163610105519589,-0.04936721507560265,-0.057061958557985355,-0.10742274435288295,-0.019955607812253084,-0.02747154288688425,0.12891672549178176,0.160363337166479,0.14392018573962712,0.10903036021381884,-0.22991744452927845,-0.14008665274177207,0.05786677532388388,-0.10496061935992135,-0.15096508574200612,0.013943139777160263,-0.01376911759511712,-0.07516624996564761,0.03995950593819272,-0.03055809057258292,0.023470468761150613,-0.007118275984847701,0.006547429513095173,-0.054118770785517654,-0.005762097602445296,0.03860918578351713,0.0027460460482008,-0.008939182387386556,-0.048175862863490855,-0.02074194002757314,-0.047185105653784816,0.048418601979796014,0.08772530820560064,-0.00509239973915195,0.04310876529698404,-0.07052083795905816,-0.04492609086614089,-0.04118156127007052,-0.04800848557318485,-0.007008035552492712,-0.02993153256501974,-0.04004201485357668,-0.04390041104119963,0.015241808801074785,-0.13212548252519304,-0.05951185241114311,0.008744884021673574,-0.05714645983642219,-0.00018571912682965752,0.05940681363101191,0.0883890507379107,-0.007284158506004387,0.0010984443532407598,-0.0042509592644050815,0.012190258730878667,0.055014517295502004,0.008943940605796537,0.03004974126133536,-0.053150392778960304,-0.08757962319331071,0.015057611373004466,0.05263602824882729,0.12299962176667102,-0.048970159085056315,-0.00027628240284975625,0.14320876737824847,-0.21670987502433764,-0.04152559126602966,0.1713578103236556
25.75160026550293,1.0988006591796875,0.025296744195459187,0.1637936908218511,0.009239944551844882,-0.005202373513358604,-0.20347924372926957,-0.32556219413128984,0.18079009683584615,0.6525230873185486,-0.5285095101595616,-0.5252081332095542,-0.7981602897062543,0.07579711793695086,0.5780387663295302,0.8207577768121948,0.16104495823361728,-0.3857584105852979,0.34254446405455546,0.3055399708729373,-0.42229779772441023,-0.2600906649989553,0.27867249631718627,0.3648234673618527,-0.5398874628761816,-0.11285864902231689,-0.06326082852279188,-0.03524590084209217,-0.028334504626635677,0.011155613565814022,-0.16793881181962478,-0.06466485415952863,0.007503792388158306,0.0075621231498448505,-0.01574143918768469,0.023911472716943143,0.056499557234159906,-0.1368281069803901,-0.13706712906909121,-0.22926399092578184,-0.03942041985210594,-0.021182771132709395,0.15029220849265623,-0.06929515248446863,0.08591311588485087,-0.06531406374699969,-0.06036702213544045,0.1048255236507604,0.016586732954356573,-0.059255889276814196,-0.02424743853477794,0.00939116259733897,0.06331146632426475,-0.04335510974633754,-0.18244183924958393,-0.004300000001562532,0.08212153430760176,0.010805478840636849,-0.004471509872498729,-0.018636054613027135,0.04300624889814593,0.002038937063152444,-0.06316175506735498,0.011835658949534589,0.018867388493244548,0.013000831955285647,0.046435778518276884,-0.04375910962801806,-0.20533134548652657,0.07467333360543525,0.03465684935277414,0.0055187530327630435,-0.0020071664738590617,0.007185307548139341,0.05250463327852725,0.010125997794819009,-0.03740399919713106,0.10326747072308656,0.016814300824043935,0.06958251852492348,0.012372257885436971,-0.04373618791553729,3.818171398353032e-05,0.014645125867354992,-0.0502334150503289,-0.00974953734906686,0.0004186394944893462,0.02778845680572674,0.025385992955879132,0.008489774135675365,0.007837013170698303,0.09941224408331392,-0.048894849058430764,0.176304736355719,-0.11318802745422066,-0.1858922280330698,-0.17570770938602576,0.09729551752665465,-0.13618033736718246,0.03444909324394234,0.008014971338766302,0.00720765667588931
26.850400924682617,2.3368988037109375,0.16582511547380796,0.23754171528281676,-0.23692722604199679,-0.2560074777261971,0.26420652426896113,0.09952719695502127,-0.40444037797395416,-0.11437888054998871,-0.12157126290375678,-0.17765571144936126,-0.3909055449043687,-0.19916055575503297,0.3362123989945297,0.6954255403350327,0.08577835831178127,0.07311714103052941,0.08730323733892363,-0.04306061853966254,0.14326137877247686,0.08456101933845028,-0.018358819008396074,-0.01783915635625496,0.005494170896088574,0.04667387924124036,-0.054634171422232466,-0.07179260301098475,-0.012414872994608521,0.036444485504274905,0.1349492338854363,-0.04637095738083574,0.007800199887073839,0.015641313349305172,-0.012998470885969848,0.17538301261495307,0.138954109797851,-0.07578460684791136,-0.11264666515327909,-0.016269230798066876,-0.020156647391433823,0.02103465473976839,0.11983704684564257,-0.3358392057621227,-0.14553595072786418,-0.040698516343772195,-0.09974152098960233,0.011599832834383789,-0.04290453032940984,0.1519434009902356,0.06604748271518937,-0.0021746754682739804,0.11340725494117539,0.00433004963235184,0.11910641218416998,0.058886780109149155,0.09844690799844594,0.04707912393701716,-0.026137632892949007,0.02020013890226402,-0.09790741477347938,-0.005369540613748312,-0.05500373869574933,0.05635742749804602,0.06985298199485017,-0.014019126888929853,-0.03532719952941113,0.10588501401540762,0.04440159317120013,-0.006807679129390102,0.045934433849565165,0.009263269250284777,-0.12560302804052792,-0.051858245706597916,-0.020480768305096972,0.034449864101566446,-0.012319136936509708,0.01466305481659877,-0.03956654182290523,0.02904664137612162,-0.003091529733477055,0.003181117777154213,0.028996371279934992,-0.029590749791623457,-0.002163553342866385,0.027757976332404576,-0.0011771760859187463,0.019384877684811022,-0.09418414322481544,-0.0019765776075340584,-0.0013619094263713303,-0.08159656639060765,-0.0941234317265564,0.031226632808608448,-0.22587614832087316,0.01758948448855898,-0.10685108222622257,-0.10293369731367245,-0.07339150811870862,-0.10888883004082843,0.21851750812099285,0.3137399144751029
31.434999465942383,1.1089000701904297,0.11489852217536405,-0.024940619944398605,0.1265117078289719,0.10009683565764825,-0.30228872804713963,-0.29463972042268644,-0.3383898724178324,0.21665517429511968,0.3525593699856523,-0.3532295644528944,0.2567606669006387,-0.029558212882997564,0.20766303422614152,-0.23516885630371906,-0.12818682295015102,0.15725732234722412,0.5859957745781922,0.13885114291984532,0.28621956511826746,0.11676657805153126,0.04100381379454494,-0.010609850791045912,-0.16551337115953255,0.0394158721242503,0.008845030395934485,-0.04328778254282396,0.0005607188448829312,-0.010108371199888952,-0.09933826207195126,0.07139622222482021,-0.10173326284664432,-0.11531925017223327,0.07989608035728796,0.05676360016667968,-0.20483405972955035,-0.12744046860428612,-0.04359479458788911,-0.14881749840313957,0.05627576994700449,0.13577450288125442,0.02995722939519225,-0.04438019284264075,0.00939486870755834,-0.05245568535926429,0.0158001646028463,0.08885000044508111,0.01392466064450349,0.06111430167589864,0.06959012651499416,0.08523950170382905,-0.08974218830776255,-0.002860152566650646,0.004874967494621935,-0.0009650867922883686,-0.0033880619229934815,0.01138123048831539,0.013109756416041807,0.01200182099126809,0.029043676357034677,0.009713919190511242,0.004289047396069938,-0.04727605710812891,0.0034971007839893348,0.011716580542427349,-0.02127879596283597,-0.01181635399339774,0.009786745892897856,0.0031167847067357355,-0.04573823922624281,-0.012230041287027461,0.032940505355917526,0.08033731999752355,0.008545118926898368,0.04856726150683377,0.020156983157467917,-0.01248710171979345,-0.004275631154178831,0.015302150214515985,-0.020408809586892115,0.006072557241549894,-0.0851844603049646,-0.01267712214724422,-0.010331532444750656,-0.007082961026082438,-0.001568404296252659,0.00030763311287579245,-0.06537199971889746,-0.011600052293890882,-0.040006678507263804,0.034505235325010805,-0.034481375878404684,0.03745349787006895,0.10979848962861692,-0.10770305226941271,-0.04460990518338279,-0.034364497023467694,0.07370292669566117,0.34979021442968344,-0.1648921290335161,-0.09879498598385755
32.54389953613281,1.1388015747070312,-0.0866430905544339,-0.011599700124495552,-0.1545708318228771,-0.34182475091385744,-0.3247353924453701,-0.012611068725253652,0.11068185102363448,-0.11672915541445902,0.17815778467821775,0.27967859345145374,-0.4961101739607149,0.02111790830135088,-0.0037814516014498256,-0.4386461661704302,-0.06392974460493658,0.011363393114982356,-0.21635693639071416,-0.44012868716844,-0.056922421796984646,0.06138337196961979,-0.03703981142261339,-0.0538498490681025,-0.019125634306679334,-0.17121398708466573,-0.08835049506156624,0.02930488140386548,0.005353861446057698,0.05252920805925982,0.022429558125361,-0.019903288347959413,0.05788629526806583,0.06387939602353418,0.015017454698586757,-0.0004603191388744743,-0.016318940743271837,0.08718910381267592,-0.06912751706743094,-0.003290233382102536,-0.0526787591248433,0.036154212741036196,-0.0981964430252661,-0.02386024499022444,0.07864818120793746,0.05756008375978556,-0.1430108036720085,0.0028127803568880074,0.03216577358624742,-0.005757838673450033,-0.07856813089619186,0.002917736992168751,-0.009150580042187053,-0.10589846573612209,-0.040402537843763395,0.06338748869864877,-0.06791819538658436,0.02312256438669523,0.041068624796559414,0.0001339765001770101,-0.009665773326237281,-0.019565760262971542,-0.12567786528795843,0.06500339793796647,-0.0008641534775454957,0.027703498464593468,-0.038148341105262516,0.010017905844491618,-0.020746499382377454,-0.005267638535836575,-0.04521000441113541,-0.09246365814089597,-0.05075397791615591,-0.02360379340981349,0.02238463057095722,-0.007956255167693452,0.00010489222318839399,0.011621427670490528,0.028175399887360692,-0.02743820348018486,0.012304979912144824,0.010986968029953845,0.013407191319583085,0.024744476401599196,-0.05146642183032114,-0.012773913634508903,-0.013306772212807287,-0.03357519910657363,-0.016645030132496436,0.06677205545802523,0.08689791101921229,0.022112485865265076,-0.004755718049141505,-0.06007014725453274,0.09572449710641985,-0.014435388110753278,0.22886274122067207,-0.11334276595768966,-0.03863242435567038,0.007306933858664816,-0.2525233168423578,-0.07026868809259698
33.682701110839844,2.3474998474121094,0.07107385628257126,0.2929384827390934,-0.021203036443497095,-0.13937054794724396,-0.06372302236334348,-0.2109939305980575,-0.07013125643298898,0.23669397618017415,0.3277326478281989,-0.3233325784839854,-0.20401119318366912,-0.2936034840793137,0.6371748835419216,0.7522854893982112,0.752993658582428,0.059206367056335196,0.017472577875573825,0.12892031548188077,-0.21417997556538954,-0.27320428454310514,0.05236082891364392,-0.031537465469494805,-0.1057456777790523,-0.025407130377656455,-0.10210410312130565,-0.0006970568781710069,0.013625846313916546,0.0761562463317302,-0.04673231261741664,0.0015992950142912055,0.3257640855906109,0.17039684956606777,0.08577273307110563,-0.057032526240758996,-0.04168470674629077,-0.049101522028612406,0.0064435822289091735,-0.017701791295720977,-0.048037486118657824,-0.035906068082649074,0.16231646543349723,0.04625721808991058,0.012252377347376067,0.2560392409569082,-0.0005176026519688969,0.030727906098660215,0.06141225408940568,0.02834320442355848,0.05446960997104154,-0.005456464954839174,-0.0038901719619561202,-0.03992571759014816,-0.08788601309753026,-0.010395594103988645,0.029753163730514287,0.013715789890844552,-0.06070310125740474,0.025331351636869864,-0.06793115487226702,-0.15122261626336506,-0.11909616869717896,0.0017780691932703374,0.018384128557406496,0.01143600171447974,-0.020025629699239888,-0.057025120491510185,0.08274446073077166,0.02599603619761727,-0.04378460253766348,0.05028386161431977,-0.11874286295446444,-0.038666163432218834,0.031115681209772802,-0.0005828817184713297,-0.02555852931563217,0.0035790943676806113,-0.00376048233124975,0.006897512074430595,0.002202587161155993,-0.008715361987250017,-0.07021316366879952,-0.015471645614212394,-0.0016882795366302652,0.026345502561202373,0.029764912278316326,-0.0020278170654255767,-0.021116779110292257,0.002821554265413145,0.022620283400532862,0.024968514151996246,-0.04983509467635887,0.01357623930623122,0.062362601412382535,0.07119919681720208,-0.03480169008603075,-0.10382123603941189,-0.25459350530992825,0.1696160280504918,0.04206469811946021,-0.2063797178262652
38.29759979248047,1.1182022094726562,-0.10705168489250926,0.05207576112420923,0.19484995807667496,-0.04808378560497632,0.17454839807895509,-0.14865200120922042,-0.40191767168826154,-0.16457923305199396,-0.05943677390520721,-0.28270186065186986,0.139650091130197,-0.39732846082626794,-0.11890965766028762,0.6170858990770252,0.48507557123844586,-0.2198440481756655,0.035846932733793385,-0.0993897973652354,0.2246346376323521,0.061631013091858505,0.022497151869474222,0.11370986196587281,0.06482828788440463,0.0903803501359986,-0.06135182570338579,-0.11988169032216521,-0.1315541128121575,-0.002912654664026064,-0.04197793946903539,-0.02904822731233263,0.05196017431676249,0.0026746952311941315,0.0916262349660755,-0.008640989365813343,-0.04529566977445857,-0.019022821949563985,0.024093097573489174,0.0766849786255535,-0.055694630061355305,0.012013798004931178,-0.0065510729927174905,-0.06998283243341198,0.04817426966854142,0.05647619178487725,-0.1426766310413331,0.07324242563280618,-0.012258468755283037,0.009332563747832739,0.004095017268778606,0.06691152373464063,0.08456446968154492,0.05723318725933104,-0.1751731393962145,-0.01599654840658507,-0.0037670757098621764,0.042473066195867104,-0.06609426877642238,-0.007366079399600045,-0.051024384693981434,-0.019678843833741307,0.04966459879258586,-0.03738584228238883,0.005411204690483947,0.024080742812572886,-0.02334344370856979,-0.03794935917146026,0.01933064793534467,-0.03841098214398671,-0.03062040132689941,0.02275796464198879,-0.02195572550327917,-0.033692901253341526,0.033945801330131295,-0.009024773705308506,-0.0056765884782332965,-0.012584139078773822,0.001159318555603377,-0.06809546284619408,-0.0011556251582326173,-0.009458524344542606,-0.006833120258395698,-0.000379345276798492,0.014661661407642957,-0.011430026351129455,0.0026910647757171745,-0.03954470079223344,0.007859316375522219,0.03889516935178434,-0.001207576271705306,-0.05166436273185982,0.00585682464831899,-0.03129449747157544,0.045812984647308416,0.01736782939086573,0.04485208249393465,0.06709928482323299,-0.17672729709507168,-0.15182886413832158,-0.13569215877260468,-0.08871008076160913
39.415802001953125,1.1491966247558594,-0.23838211036906476,-0.1719249810519405,-0.025644384975077626,-0.15090502447135146,0.13527025878152468,0.06342589826624451,-0.19033008982528934,-0.1475910636403502,-0.05727893026343503,-0.3754142740138735,-0.4833966211289424,0.04108443697249681,-0.2920238355929921,0.2953303657075773,-0.2705387745459357,-0.19304222525514958,-0.06971532018070375,0.002811963102876222,-0.08299558842023685,0.09028789191994163,0.011738892571670255,-0.11304348513908552,0.0024591785824302765,-0.037818707481525986,0.07134455461169147,-0.09118857607367606,0.020042719821613073,0.0019567222684376572,-0.0370513545785733,-0.021007517001888944,0.008317650097911758,-0.06964903952428045,-0.007152528375556765,-0.05620892214908042,0.03444625648607017,0.025912033980345264,-0.12213624410466858,0.010957882755476784,0.001501599546811528,-0.04822136201004366,-0.017344906357526252,-0.07122924631876744,0.03639053432493833,0.02512978883470133,-0.1418596885562742,-0.07561926181075804,0.14313826147257544,-0.04162761545159352,0.027390317769776667,0.008471459120858442,0.025631499393497154,-0.01234656551921667,-0.025544105257523236,0.010700305830085,0.02600651645669194,0.06736998506311961,0.019768391832805626,-0.013360109904158458,-0.0034682920888176047,-0.014650610938631887,0.01184593690734694,-0.010889300810405173,0.018330519576082338,0.03466461629725073,-0.005817493251646129,-0.021190420424913755,0.06663082439703663,0.021487483888852195,-0.025473873031415704,-0.05565675121132205,0.01487654584356196,-0.021081335166531604,-0.053378247744265146,-0.07939588989981933,0.007755233862775141,0.00011953068158170152,0.06327269459393826,-0.004530536305305946,0.03533152363363438,-0.014831721264836072,0.0003006449063130153,-0.009596462313698761,-0.0392332399376621,-0.001998923197969116,-0.014794407599274214,-0.07576433769153007,-0.000427259284181911,0.04939026944674158,-0.02296900412091703,-0.005446300071361019,0.03925458353437721,-0.14667066153291505,0.07154799450969788,0.24071581704060266,-0.09694690328071628,-0.11297794746771045,0.11197376897610867,0.03565350956524198,-0.09506097955411781,-0.1969990151823531
40.564998626708984,2.3973007202148438,-0.21259821475039425,0.0714442964565987,0.07021932115923704,-0.07071826657544908,0.06395850507816679,-0.11656792746326343,0.08711604663201714,-0.004730760699019898,0.4821226118608108,0.2711260820847273,0.8296823943447621,0.1368956176652389,0.4304349718118496,0.3104231830423705,-0.1409400292039499,-0.1648090449370679,-0.04514839896135617,-0.06079419942411919,0.11332009286807018,0.0016423731402712884,-0.04817541764648142,-0.015112668457051706,-0.13999635934586757,0.000396654792163863,0.08695448385163518,-0.008088313840749376,0.014857209176049532,-0.06277151385717526,0.0962474632398029,-0.09703380543394664,0.047691682025241634,0.010296552172434918,0.15697661507234179,0.007971634729165903,0.07486283142241838,0.03515650520952684,-0.027012881054406006,0.034256704802933566,-0.00593933648771299,0.014261209245427037,0.0183443620397212,0.0703183744773466,0.06174863700137351,-0.027751962928532256,-0.044563702931904745,-0.0441508914891696,0.05795826528461607,0.013829131576068925,0.08745936293548234,0.08531782133857067,0.033491896482354906,-0.01056154553954236,-0.011445372378333225,0.010539926621517925,0.0034253333116429537,-0.08596815677062293,0.03848918294187091,0.06351170571892863,-0.01601209627858154,0.021748916170739672,-0.09404842446767642,-0.005344831794705475,0.00951891537030207,0.03257826658066236,0.009379969484005516,-0.019558682237035097,0.03895996498453817,0.010319511041391866,-0.006890768374775049,-0.0006753397609370743,0.05827638618253013,0.008698503762035672,-0.03395973537332715,0.004155547206262076,-0.021395914756477785,0.0013619250387632326,-0.004354177509000361,-0.0391561530860146,-0.04670678327381759,-0.0006927540185692548,-0.0007821163631736315,-0.044652871141800235,-0.0013022102028192456,-0.025959108515117537,-0.03708422151834192,0.025493146744065224,-0.034225656110023754,0.006548604860205674,0.004977982985528444,-0.025738631949390245,-0.05938494113323156,-0.15049273219905665,-0.0654851588730614,0.12169700800703184,-0.012985711723887156,-0.036611525851098545,0.03996756809015025,0.07279428137872689,-0.13235200384480467,0.03435010160048424
45.249698638916016,1.1287002563476562,0.08407806558208455,-0.1361772289667596,0.012849109400917401,0.256324242978987,0.05862827955079621,0.0496338947270018,-0.17728165672047191,-0.24192445127880188,-0.18682590305139224,-0.24459949998667324,0.24371590879369207,-0.06983553568088567,-0.4393531541743052,-0.36487580534370817,-0.045346810391694276,0.09530907372837483,0.2177966675205765,0.14111853988404477,-0.12677973885796712,0.03504568426268977,0.0464295977121786,-0.03296457755720336,-0.0368155275606768,0.05389393777362459,0.09150293654786859,0.007592223222602873,0.006819512944455524,0.11953112419949571,0.1618664613167956,-0.040199751507246015,0.012096512075683854,0.045384682918163166,-0.030899417050657928,0.009227915425594672,-0.003147909849351427,0.029049571488178123,0.07943900951514617,0.0560135646230136,0.09955320349944831,-0.00263494209389582,-0.009628137516348006,0.08603149113934164,0.08728749934886057,-0.008421966363414694,-0.05043467921256268,0.05680236127808176,-0.07877557954904658,-0.002605805977509942,-0.034734217668822634,-0.04694174199784096,0.01515161521132509,0.10104318495885135,0.06363314930431524,0.03719970340801607,0.03203305325489669,-0.007138516342604935,0.03973039099745161,0.03543704821329383,0.023519473157776215,0.008555451200963082,-0.021543598453064545,-0.06944283804132324,0.025059455797239935,0.053453108708572714,0.0060289124194200265,-0.022887695516296793,0.014639334680254494,-0.04510934019812337,-0.052004545953896544,-0.10528822156190469,-0.03544350091064695,-0.04934043339706502,0.012656433754133018,-0.052763412232327556,-0.00011566258163199809,0.006703466283276966,-0.017775362499122288,0.031048346110435752,-0.006499257654449828,0.00781948885304084,0.028300940724262823,0.11678292752904931,0.006518714302947587,0.019882332372637194,-0.00045890421145155727,-0.016644484209208735,-0.06380982662316513,-0.005077960206919397,-0.0028951842918099662,0.021867288628120124,-0.050913255897176636,0.04466486312936314,-0.00027412232257389914,-0.05358796544194572,-0.05395457895107792,0.07147891323680006,-0.11539506207823617,-0.14835012914918957,0.0708130529081295,-0.135338584184014
46.37839889526367,1.1388015747070312,-0.15530428425145443,-0.019210225960731544,0.06711420771069392,0.06154093622451969,-0.152131698433946,-0.04694677614671636,0.038760363301471736,-0.10570588269258349,0.1163488632605419,-0.029949711649077823,-0.07254546874956325,-0.6418003487310668,0.06889567486665342,-0.03906479229867403,-0.14739184246974157,-0.17427785329751366,0.2388612146148195,0.43592247653634814,0.10375486964466477,-0.03389586295394738,0.05109196911105071,0.2485958680290274,0.0604593530030394,-0.29604832119690005,-0.054296427699051575,0.005394502738088121,-0.007631300012064621,-0.18587808340899703,-0.14357290906208425,0.005655773966004034,0.03951537304367908,-0.0025566338511474425,-0.09058973902230023,-0.07325472019159665,-0.041529535970227294,0.06831282676398492,-0.027752080389125487,-0.08125257750964224,-0.04283239326486497,-0.07090746959797865,-0.05736864205424474,0.06616038656080694,0.03573016839760162,-0.036250473695182195,-0.004551204436964981,0.04754376556127671,0.050763124677036406,0.07585230206642707,0.0036261909763476755,-0.07551331176143362,0.003969727768269017,0.17597499853981965,0.06700103299165443,-0.025399467597840276,-0.009884589345781014,-0.07437649587842501,-0.036936188338211925,0.0906972171509961,0.008329968650939908,0.02620170772170231,-0.007598998876426913,0.03446823478341079,0.03206811064948101,-0.00016855735228166104,-0.020249130878403885,-0.07348870894727237,0.03740285019286747,-0.05231580039472061,-0.0019332569689262521,-0.053991668352056946,0.05542387049548414,0.002019269466263153,0.04041523799827059,0.05056161105793976,-0.0013775997840754436,0.01588040737023995,-0.008574969340031598,0.0428705662546751,0.007154001213741041,0.028269455067332715,0.11522595997496489,-0.002035298770088383,0.012002348696016055,-0.022356788723463895,0.05798507934483872,-0.0034839176507149975,0.007454841601255161,0.00939377085895908,-0.06435703857273362,0.024106006497438073,0.0711089694029724,0.02984740335580891,-0.039116939106192676,-0.18120495569417722,-0.03934936037401252,-0.2113924927508655,0.07532569140151568,-0.2207126687032702,-0.05519555815225828,0.14431603539682086
47.5172004699707,2.4173011779785156,0.14267240175381085,-0.15875465252244114,0.06783509232980815,0.4857420127370565,-0.3118860602298963,-0.33141809482129253,0.3834809437827974,0.09413876360969001,0.3381157571963342,-1.0819716269641806,-0.2866550797454173,-0.2362313473549436,-0.6351343932653714,-0.2972586621434569,-0.2403096745806931,-0.20868019618345324,0.32895603003054497,-0.05722924332894912,-0.0356970165933959,-0.05469898651410184,0.18170623767132252,-0.16991076939792654,-0.16201631717819953,0.09411486672670476,-0.02613118945124444,-0.054770214055918656,-0.021343586183684198,0.030734891651709163,-0.056284972371817135,-0.0070875950336881195,0.029241928185394943,-0.06674097109136531,-0.01546471163107005,0.09345050795862547,-0.15043474122714223,-0.01951822445426281,-0.010260511750892928,0.030807554268505684,0.025036212690595076,0.13026573299982308,-0.005910731895614918,0.23894219581307052,0.3087515722043182,-0.009404075910220026,0.07338415648385842,0.14626771428067747,-0.06055377630509702,-0.017072770168350532,0.14969228532320292,-0.002088260772200931,-0.17253768250944546,-0.0898982472006753,0.006130122674374825,-0.06669558000902502,0.04775105578516658,-0.01865242540859036,0.011227318113526974,0.09436840739417791,0.05278804625072296,-0.018904551996247774,-0.0014717241038357844,0.03610127580489573,-0.08001767952372398,0.017272000306918625,0.012333716970919107,-0.10765294615901595,-0.029556397182972746,-0.03709442979476788,-0.06122546164049646,-0.04047717577615529,0.025496635856240877,0.08480431606727719,-0.0033054588576538952,0.03831910314807853,0.00321863006501577,0.007916490098364128,0.08022956531599759,-0.01804335144924716,-0.030953460700949852,0.015982222549739633,-0.008256860076236903,0.0059462093541323355,0.06807197951258945,0.0032100057732170574,0.00908241865289082,-0.023491888950173036,0.028421335753973462,0.019034101715631403,0.015850385817248944,0.0227634426225065,0.047542389346977146,-0.04409857416022468,0.135455714790699,-0.06322586451986036,0.04470788264106417,0.0795080299960057,-0.015136851664356304,-0.21057211355141248,-0.1590100502332555,-0.0013389866410077333
52.26190185546875,1.1386985778808594,0.18450123804730947,-0.23502449078842477,0.06335542111573203,-0.1351401754291143,-0.4376138416300776,0.09179828053192114,-0.08248208756645634,-0.06235553104828301,-0.12168270189351699,0.08594921846677554,-0.4453311160654978,-0.556095623040889,-0.12450913058955215,-0.9081452759265829,0.19294660598247704,0.0645290842100382,0.023955234364646,-0.38085733500704966,-0.12193361711454635,0.019331777692917346,0.22522892794864177,0.22920254522880382,0.09072133046749173,-0.04748953289708705,-0.06976874852814886,0.006881277313320341,0.003417564597586409,0.00012447672848897584,0.019648480304559495,-0.08976788897246063,-0.044139788535279514,0.038227440320162176,-0.11327261043260668,0.016979810675592535,-0.032514182266585326,-0.31222108844747964,-0.1071724867288161,-0.05812973850780273,0.09392526086495423,0.11795037703782502,-0.11205814779030379,-0.0027493424394833387,0.06963923693426857,0.09078489027007902,-0.0011391273206978365,0.02660564951894811,-0.060339988380709864,0.08175404820735208,-0.06812035203653272,0.05675506693096337,-0.004073560784079691,0.007106673053619126,-0.09693513564192627,0.03346457001821607,0.05910709260410846,-0.00816683667710941,0.00893211962928691,0.01587257713374728,0.0031556340803450527,0.11010785716122111,0.08649672693383012,-0.008153410068863021,0.05916217909191312,0.022165908952994653,-0.05742868936354919,-0.0026700013519726576,-0.04549084014620787,0.09887747131832827,-0.0044966622674079,-0.01814521786716057,-0.05504671380795564,0.04044355060320143,-0.02425172501141138,0.0034862589050942143,-0.0018903661900194196,0.01223701232702426,0.09568152447471345,0.051009741823448834,-0.007573297725521466,-0.0006125138602124678,0.0024859977697563873,0.03824777922017492,0.0036984310500120473,0.0048388130260160695,0.055153373522569785,-0.05325613739650366,0.03664251661783841,-0.015475069383468008,-0.006119819222904339,0.0029401731324284115,0.009612124219684597,-0.05753111123329008,-0.12149472897148839,0.11857291165540543,0.06263057684307304,0.11839726503426974,0.11108359148744218,0.12808853752470556,-0.15894375204728725,-0.12053686765076889
53.40060043334961,1.1482009887695312,-0.1220642267532677,-0.035190416027295425,-0.24813810882194015,-0.129022063519774,0.14942914512846817,0.24304688478104486,0.1063301257503656,0.13535885496704195,0.08868550260813449,0.13462389392514823,-0.1709261256823644,0.4243746000392896,-0.3613845816623013,0.09527806790095784,0.19566007099599772,0.022139880372571506,-0.11655190134195435,0.09935810614534674,0.3054746460945065,-0.16639699642069128,-0.05956472239452014,0.17830817230697102,0.08305950590213271,0.17975798895077208,0.3434502901980445,-0.18654813030301623,-0.06411162812573788,0.030929536953284917,-0.019489815153730643,0.03277225813413903,0.049985014396047696,0.05809713130865048,0.03127731415127147,-0.003385395459049584,-0.12579103938625347,-0.0749340362547558,-0.005403893940036676,-0.32397725183153125,-0.14331236913183523,0.06422401124188885,-0.09462307137838338,-0.19155131611032725,-0.12316995092780436,0.012439626513793229,-0.04021176344341021,-0.00921092984900992,0.13814830217854734,-0.17084913353250178,-0.12452816345573084,0.07938919073912716,-0.16704256036765622,-0.00777891040495147,-0.009539941707390046,0.1025485846739051,-0.008006878331320098,-0.005055445750608421,-0.08471357173631197,0.012382984881446915,0.07159878982656659,0.022081409738252067,-0.05889597876396197,-0.02137242788899569,0.01174518380887967,-0.011728180233670714,-0.01827782221994248,0.015646369536248966,-0.020284198251753593,0.03360347257461478,0.00815797833417481,0.020983554536673776,0.025836192886830634,0.006022843190785642,-0.032003974540386254,0.007443826836270666,0.0008381196293196807,-0.0663128173774464,-0.0293275595470695,0.003670573974982328,0.009378571737130909,-0.004852008052401449,0.016069764531955216,0.00563209452667003,0.06564406165068551,0.0015174755240666168,-0.0003406099809790079,-0.0048190665516651965,-0.03536216470188079,-0.0021456324355804864,0.019506719313020518,-0.051994802791269605,-0.013467612466599447,-0.08128803106725291,0.1404733270961704,-0.07213165165238956,-0.04695493979974634,0.04931668161217575,-0.015263963991854227,-0.07323125139939331,0.25579972074024243,0.16048374249515446
54.54880142211914,2.377899169921875,0.01711741467433689,5.6036040673987375e-05,-0.023025554095647313,0.08335037424972483,-0.20859408020741532,-0.17341804579343578,0.31620380806705795,-0.41525229739816555,-0.24847285331835495,-0.398096176541256,0.302734135592692,-0.16674354390445564,0.0972956840032359,1.0527977884375574,-0.17132762603212814,-0.06975664473040885,-0.20958080681684696,-0.17670543638013592,-0.3812944273097091,-0.0023131247024771417,-0.05211166225032013,-0.15266292990973726,-0.14070618247153838,0.07759927573186348,-0.028607103842265186,0.3065240338186063,0.044673798409972404,0.1763867675155384,-0.08924792017679545,-0.19102259617486164,0.12653515577591,-0.002711649390117258,0.07990272706899944,0.16552321492988753,0.08019907386055769,0.016921771617406572,0.01083093022455947,-0.07423148341738577,-0.14333973098161393,0.1572232242184415,-0.02794227762776355,-0.0974984843717664,0.02585185189919917,0.12706778154730092,0.18547686447891737,0.03997341199541979,-0.09863096206822693,-0.0941381227075814,-0.3234168309360102,-0.04436400034592383,0.07197581699349362,-0.001854868298415413,-0.09169837824466368,-0.0002044687043305793,0.07030754222232934,-0.056332615173204155,-0.11099945460756534,0.07423171965181302,-0.014969979960044216,0.03804879492791715,-0.023610780252957597,-0.01175565610554885,0.0376580462621704,-0.05313064796012186,0.034126861163678156,0.046600511411901815,-0.07121819522024067,0.01546073586311271,-0.06728302300778279,-0.04652806910314631,0.002395163262863376,-0.004513735013648185,0.020305237843661273,0.010172431502699014,-0.06895321673710995,-0.006356608563609312,0.044075706890245404,0.0035498957755984374,-0.018384322991734585,0.05567876536103178,0.007148709876365241,0.014241469207831606,-0.03896247574359436,0.009761531693533207,-0.06956911042214405,0.02481119688087674,0.023003280308352015,0.026848833734931736,-0.009576955946835929,0.009578370058017672,0.017232682604564085,-0.03203427175303157,0.06167007806846379,-0.15772985747742782,-0.1724201707784198,-0.0010381488846962859,0.09642753150795089,0.03439320944973806,0.32772638057296,-0.03416896032183146
59.28390121459961,1.1586990356445312,-0.02058964938048788,0.08089212523943828,-0.055913467383851105,0.12280100382181683,-0.13246952967370512,-0.24171238533126282,-0.14030227901905246,0.17910879926814502,-0.31521680945366304,-0.21919173485599158,0.17719366737318146,-0.0942913951917589,-0.5020786734321154,-0.5879688324773442,-0.14901814104733666,0.35533488796618234,0.24523594594893525,0.03856925570870051,0.6187199954591287,0.4367958842565926,0.2108880024792571,-0.14848818792383212,-0.06541145364457575,0.01647862114429406,-0.10416197146467313,-0.020436020822138648,-0.09428888654815311,0.005087543722161229,-0.036425112669869295,-0.03767367531606808,-0.022679759645327396,0.010201614549582143,-0.02787950862490496,0.09068738086300235,0.007720985408649422,-0.14601955069786626,0.00427643106758192,0.0802774455817058,-0.02293589478015969,-0.004389644842425908,0.03558480965847884,0.027695314135514564,-0.0001838766937601391,0.009252619643899646,-0.07171971469977197,0.019870957158621475,0.011513929575499661,-0.04961693288783642,0.005602417997415489,-0.02358238354658526,-0.03995263205138927,-0.014899910504432371,-0.12358673079486669,-0.029437706528861494,-0.019670754906354636,-0.007893591520138871,-0.0011666096020254858,0.002147456177663674,-0.02851952648207965,-0.005882494743074252,-0.08099345345761513,0.025790425031277417,-0.044164186599870155,-0.057993389187879156,0.0430981836110466,-0.013131771771672344,-0.006106882059407951,-0.028435757892562787,0.041408734094473945,0.028259568197199568,-0.018668360295115313,-0.05674149275963465,0.031025743046867824,-0.01274600092565015,-0.0020067227599854472,0.030199820501735353,0.03355404887731313,-0.028724335664686757,-0.007395660037709597,0.008766022867292871,0.01519491530646881,0.07087610658617527,0.010202178987393961,-0.019908802484394847,-0.036365875140822554,-0.03682940765195161,0.014107196426512153,-0.01546309686784111,-0.005366333165569087,0.03427777541585215,0.015106866429759874,0.0070901635170319425,0.054515428302607444,0.2489638797605534,-0.01080994604335836,-0.06928523995119115,0.00017207146229199222,0.024899980937688013,0.1432235231028846,0.17942264462269225
60.44260025024414,1.1483993530273438,0.03514126785789862,0.05139100103113769,0.03503866639477565,0.04965300532622892,0.061175773797859795,-0.15308595150593812,0.056675830800048344,0.17448935371089525,-0.08830010110147803,-0.11039424606852406,-0.5572722588211793,-0.8095267282701131,-0.36805999860362776,0.2586647057957487,-0.3207209540701995,-0.0860855706655398,0.034013656233639694,0.10458967651461078,-0.2456571204472623,-0.3047860452523939,-0.03405212281974475,0.173737075095372,0.029981035490757063,0.0362782991801048,-0.17724697660598304,-0.12141530324091954,-0.12560947225521987,0.034728849228212684,-0.012317831714652032,0.06687324462605122,-0.05985180308898603,-0.10452706350083452,-0.016163626584932166,0.02846163756705019,-0.1357096641631837,-0.003730521595106872,-0.13891401032552164,-0.12221124393384557,0.14601757560569562,-0.043243140083502496,-0.13180814771259694,-0.010591791034414644,-0.05690220853941311,0.05452336148484369,-0.04450660325066607,-0.0689473224602038,0.017097220132793436,-0.27092129328414355,-0.10262985310921563,-0.0076728801238880665,0.06147513544544852,0.01380385296886981,-0.05044918403151116,0.002076659273240332,0.0013821759281492387,0.017741258786873982,-0.035991541301539996,0.0061068818606029255,0.0014034612253723683,0.008606414528837652,-0.02942471622015862,-0.07710361828102283,0.12799090704671334,0.015439671298855123,-0.08235340216390719,0.009651484398310256,0.03375502734839564,-0.021384159558674825,-0.006335364806301197,-0.004906269470815371,-0.003760452964081673,0.04135020064584024,-0.002995012341961069,-0.08313078708944238,-0.01730628712735068,-0.0012004378705822872,-0.00491985604402269,-0.00437727783708804,-0.06266627045778526,-0.012247477127681759,0.02543692892314378,-0.012625133636558834,0.01968084710403003,0.021751594192499155,0.04569368693267871,0.013393896997599084,0.004329393838271999,-0.04575288079534815,-0.03526016007676524,0.03141108632822211,0.008886117223447666,0.0686312935093673,0.00941457691928439,-0.06095702704044922,0.04814170077499644,-0.0199027361695278,0.024433884361381514,-0.02100979880134028,-0.008506589025269216,0.002566916508789735
61.590999603271484,2.417499542236328,-0.004852505273270569,0.00044309590213742196,0.08463347083675926,0.028418749182856314,0.09704006794894099,-0.2092530118973132,-0.009533767976255991,0.08346297889189769,-0.530034084722944,0.20667019294980762,0.26827695774903537,0.04532736522490549,-0.5335940436323217,0.28238026329573,-0.028181771593872265,-0.12455935062691247,-0.2797693358122624,0.17113163542025678,-0.438161144643144,0.37790149291605235,0.12616929045650274,0.0916202394254927,0.037823724181358535,-0.06414290762597885,0.2634215064249568,0.020140602154443906,-0.10552568828993275,0.03524117328421778,0.06263903505420837,0.17829961760031465,0.15981463583758757,0.05040496103977412,-0.020049946296371832,0.15479995742152408,-0.02217250152049009,-0.04318615392093668,0.07788157457547092,0.12319207901421045,0.13179585122871992,-0.009362164159314365,-0.01911818908609536,0.006579532799975779,0.049587268843318606,-0.0588972851873627,0.021173422230876232,0.00962708076891635,0.03259917988520755,-0.06854872386967764,0.08991301142538004,-0.05314411819709053,0.04231739388255944,0.021899629810399612,-0.022993973971769853,-0.09862232277596093,-0.09649525799013335,-0.01666458576125518,0.08932940088994522,-0.05194284311774778,-0.08166934928276097,0.028907391856844645,-0.07463129325818509,-0.015515734306782068,0.015609446406405285,0.04984246444217987,-0.055897876634582434,0.027543716756190047,0.0046980829050439245,-0.08065589002509829,-0.031122539746600678,-0.0019214417537096388,-0.011175852329624505,-0.060221608848107615,-0.04944609323336034,0.008413242043699727,0.019804559731974286,0.018411183011754068,-0.00035622385386890193,0.0747806448482572,0.03137657088817793,-0.05430678956708204,-0.009420834177874366,0.03713051648953928,-0.02708792588229592,0.028900187330261763,0.08589170610615496,-0.014718689981047084,0.014306072536165206,0.00982408903527801,-0.003186497686722297,-0.023052336856820618,-0.04273561748519685,0.08502017406167679,-0.125437863170286,0.06161650826154023,0.08842242525904323,0.047473963792056026,0.03479906400554544,0.0336461601493732,0.23212387770374907,0.13824538134630196
66.32589721679688,1.1389999389648438,-0.023775355757155614,0.11579956538583365,0.06547247013973356,0.2100446278604451,0.1339898075727615,0.10746049806532476,-0.42445004347587045,-0.23672256998859725,0.23015269305992836,0.3500618047549371,-0.00798407527044585,0.02825444050733697,0.10635751487080596,0.17214111711088242,0.41915592829981635,0.06355943464479606,-0.07196265279850096,0.056372464111862905,0.1342607208517513,0.046988765794547624,0.15125149502159885,-0.012913032100597827,-0.020972485244281615,-0.020953091761608825,0.059815600412575484,-0.012700883455631022,-0.06089134190974645,0.025553780644987662,0.09929878486959712,-0.04354675438117045,0.007186576457081721,0.0012734813810130509,0.03476719977555018,0.12049082831394049,0.007876844491260214,-0.20204685744177583,-0.050375480031928044,0.08068150700156147,-0.01164062952741117,0.036352530496018345,-0.06587464192685435,0.09051053308062003,0.09938825100381977,0.0030871876704862927,0.012729681287546164,0.052708191058639615,0.040283455065933844,-0.046617928856837465,-0.2511616490122561,-0.12428559283186054,0.042623828049299116,0.051449157251741144,-0.02394233871036793,0.0190143880761172,-0.009647353416773752,-0.0915494030495679,0.019266117083649968,0.017200814675459572,0.05690463510406078,-0.008296772039149459,0.058953154151947434,0.01823783178149871,0.056080001474362,-0.1227874285981616,0.007833777598418568,-0.01385298340357911,0.0002701138818845747,0.09685009321796881,0.06419332869665534,0.028725883171384525,0.014272545483899784,-0.0754469674899227,-0.06462984851678394,-0.002368513810194511,-0.012318959230564253,0.08489672777655329,-0.010448129338869384,-0.010267057203058963,0.007338206787911094,0.023250662247945864,-0.0060272864073413574,-0.06754756744497346,0.0006257808212890017,0.02972630772088301,-0.02639443550656828,0.10480322213783237,0.016238481900916143,0.004902426035595693,-0.05592876167902762,-0.048035230446097706,-0.02393131043453567,-0.04894325612961625,0.04738878289867678,0.04582131301538819,0.031343542353405224,0.24265951090877497,0.09788962289490669,-0.13681308595982247,0.0438983831978363,0.26214839365268444
67.46489715576172,1.158599853515625,0.2511046612482208,-0.17080215166219534,0.017010744579195367,0.0756253574919994,-0.002342149578579357,-0.05140121163451633,0.057053864618774625,0.1569801568138807,0.22276300463687532,-0.6092826058482218,-0.5787723290860141,0.04798866413727975,0.2773177264491389,0.00898499100101889,-0.2140392858228758,0.075640537039626,0.14246875042354584,0.10865539502402471,-0.12130724540780632,-0.029444959231042473,0.042448820354212005,-0.044887672070826584,0.10865534588701185,-0.06151120087776509,-0.23599187382462122,0.006322485111667777,0.05480876285897688,-0.04545737307382484,0.08184387372100417,-0.016528566737672723,0.08536345003195288,-0.1694302781555288,-0.18064970897004973,0.02831335173522454,0.2145460612587226,0.014405770290283351,-0.17898632387536112,-0.12116410863897437,-0.012668047659804126,0.03772059434477039,0.12254649224275684,-0.13184567060255084,0.037692686414593224,0.339371826042305,0.04746773156467743,-0.023864447540973287,-0.0746867389991594,-0.04468337036926596,0.017819997070730644,0.049213804213677326,-0.23104389315642462,0.06039286119348635,-0.051707688034349907,-0.08534481921409108,0.003737961277818018,-0.08309102382331451,-0.007580519958547334,0.0008168822954476745,0.0027782637130977644,-0.004232157849832996,-0.002266307381852936,-0.02831188786817318,0.07864319868399818,-0.009543180187248892,-0.04220450394598006,0.0036939170328435323,0.02811159484553977,-0.04081388856106265,0.07793304378734589,-0.038326484072622284,-0.08595968995241546,0.04844232404250306,0.002125184079872937,0.08504751691603639,0.00900578398186453,0.0022676602197491983,-0.003315379974753052,-0.0513596779098367,0.0014965528091933147,-0.040787476822564,0.005065052317330795,0.009785341261317582,0.05649346433428615,0.0061859129133386695,0.0017315193735251582,0.05670102228806953,0.008451507667000566,0.002177615987263394,-0.012046806668596869,-0.005548211891985023,-0.026302286482573725,-0.004416876709205697,-0.037670123545867094,0.04348055633619498,0.06908242152959125,0.03670122037731623,-0.049961348343510535,0.006347508458961195,0.23334740574322158,-0.015895348470094058
68.62349700927734,2.40679931640625,-0.022865601622847523,0.0006687018695493665,0.15729258535669965,0.05407804269691975,0.2147588117857767,-0.04952798355075787,-0.31821879105023465,0.20215667807530613,0.8615218819122565,-0.29762354376905087,-0.09573720937013827,0.17569257737421537,0.08626017868710667,-0.6261549720955443,-0.10933862889514277,0.16081006293458455,-0.1661849419426845,0.038275535200515534,0.04539060342109097,-0.029385871458709377,-0.02117346477445286,0.006152770846240382,-0.18418290274667765,-0.08100682665688996,-0.036710070038913314,-0.021680631852904888,-0.008962715305862318,0.06941634411394978,0.06479395104640949,0.0446917531043627,0.013958724170950437,-0.03620521728228908,0.019621513550540773,-0.0013475060897783818,-0.027172478805828272,0.05116264974069221,0.28737820707196904,-0.05539483100154024,-0.028047070219578696,-0.1067273048085298,-0.10006903806297218,-0.003990915732224459,0.03086942610753813,0.03738693692938624,-0.044867622698124755,0.03732256695851781,-0.013267696144739905,-0.0331838174891022,-0.0602609532675054,0.0714118939942899,0.18658512469177038,-0.024562557419800183,-0.005668190841439218,0.014450333013882327,-0.08440233161101704,0.0038334067497803785,-0.015421628958229197,0.029899404331379966,0.017685075475665227,0.049399636196812396,0.03971068971338913,0.007753931584115533,-0.011689330935063219,-0.00911782668483302,-0.027420545843933497,0.017675661429940284,0.07536006843313667,0.017691359718323137,-0.013406980065517816,-0.03946720265399531,0.02360502943298099,0.025974555628692678,0.031617771567768696,-0.005374497389999965,-0.001407121167170538,0.0007267178984876001,-0.00035272591734077715,0.0005715885748363112,-0.001986005699802466,0.04390186887192125,0.0825749925926229,0.002061368102091397,0.07376918079767422,-0.0018808093746028537,0.04265871870254262,-0.022499214113698762,0.023017517636550525,0.13694948254917297,0.022917903451317508,0.005937170204622844,0.038609617302171155,-0.08336919082161694,0.015096853192511903,0.15037947595036957,0.17435784660028805,-0.14114711129312846,-0.11756542776922463,0.0030717015800299473,-0.05917264121806651,-0.034004514006366615
73.3281021118164,1.1388015747070312,-0.17094729152834942,0.2318738132142009,0.15679853481854883,0.0022418132001936486,-0.021328034097680852,-0.11363278106065594,0.1128046824716239,-0.1663594758872692,-0.3715389641699276,0.08862676815156949,-0.2410484891604938,-0.4107173498775414,-0.19111288288589462,-0.7601521119458655,-0.10882927574836755,0.2269989663927151,0.4545672147020533,-0.1174096308656149,-0.08572661302965368,0.3119236132504864,0.045830074927999204,0.10450304641366517,-0.024603303733189315,0.10323203457161119,0.11113609780029511,-0.037981208374324116,0.04642243017446328,-0.0368476316329902,0.02103188925932028,0.0007708107207207105,0.05917289135507998,-0.05669038616248157,0.01559328058171673,-0.07598888776036596,-0.2938707192083085,-0.04472318135266011,0.09291932978927034,0.09218624042596893,0.03219079041563186,0.027971629312849283,0.018168930658333252,-0.20035335976990923,-0.18459362668320817,0.08400353146783342,-0.040904510574743286,0.0779841650292778,0.22112444618742244,-0.04001701411787692,0.00760331200339036,0.07148062765766544,-0.007712486455597942,0.007701458595016706,0.1289124542938238,0.07387188720728526,0.18590856547551343,0.12206451412280343,-0.003313987952096281,-0.0028902430907805435,0.049365913549327144,-0.07344279720060229,0.017706809301982984,-0.0438906090372351,-0.05108652990159249,-0.049450179828650964,-0.024618742353998475,0.04928514877856046,0.023766624695980565,-0.0468688603236006,0.013453031390442646,-0.060416985217303085,-0.03182250954290529,0.0169514206325032,-0.008770582445429545,0.00430652623016735,0.015750922247459193,0.009110808294028126,0.007278175273658353,-0.0007365091972449853,0.007426439263643621,-0.019531585431496558,0.023870714174537358,-0.03422685740636842,0.0012596522294479077,-0.015195070734844225,-0.023354216018343876,0.0022589597244775214,0.089353044544393,-0.010400928553675502,0.009890935132914853,0.020064243117389885,0.015156849723093632,-0.0028633746518990123,-0.30333152478836234,-0.09213677720041126,-0.1283316971884913,0.03907210953088895,-0.04839879914632666,0.023419512373754628,0.009388730518979564,0.03161390397345018
74.46690368652344,1.14849853515625,0.02899713358435957,-0.10913442261671889,-0.052256912433934474,0.04836040450991813,0.21439561094611648,0.09338716525723006,-0.2878360636888517,-0.3750495086224535,-0.6762171559390704,0.3566170842269957,0.7061658742937287,0.05385730401825512,0.4435124732763385,0.22970631172246214,0.07458945472201704,0.16687546426701028,0.309606449448024,0.6987750045761212,0.11390926079461897,0.4222980156945379,0.4091154546749774,0.02409140902069984,0.04060388699743338,0.034951306522740214,0.06193571416172956,0.0001735302781385806,-0.03443248096843558,-0.05933844100301232,-0.10650546473128088,0.044001626156456475,0.02955650048304964,-0.010427168761674169,0.0242876623651416,-0.001696379382876383,-0.05773672120541523,-0.20602629187118363,-0.02360316509094831,0.17316358310972668,-0.016178132602089227,-0.007736338640676856,-0.06619259781041924,-0.09761249018152493,0.029436988104361565,0.08941729019257533,0.10375972505715828,-0.2004329911039529,-0.07961368755890862,-0.05509095715824406,-0.07540739303854067,0.04536531463917774,0.011113696397366332,-0.0028008898728916235,-0.02041242314506971,-0.057401307615303494,0.02496384403021128,-0.004642317506510974,-0.022256834611482566,-0.005630760671967805,-0.017437237653504984,0.0035450911562676162,0.018339627087048435,-0.03673446202636893,0.0023173406527849383,0.012598484769360116,0.02485390638144122,-0.04483369372503203,-0.0125574315577224,0.08872613342556109,0.04590504607447075,0.07103283619257467,-0.031762975186744355,-0.05657621500617477,-0.05563511617113216,0.007037232609438174,-0.006321300772596553,-0.001997143727242471,-0.0012531852150708181,0.006048146006962502,-0.0038580448972356436,-0.037864798327150416,-0.00019727288080808512,0.05602152113612161,0.00990995143211056,-0.043342813143796004,-0.001084071200920808,0.003546992815493848,-0.029188027780593186,-0.09947265680613512,0.020502901140730764,-0.10572423303644778,0.015517717925946764,0.021292253530080893,0.03410772654591811,-0.12654223184413976,-0.00839123097666789,0.1508559602669912,0.037845666758532126,-0.03091424149918197,-0.29509640070782295,0.021731434459723344
75.61540222167969,2.447296142578125,0.024006538282309635,-0.04759043414796138,0.0010400963144104646,-0.17482328445619558,-0.18836414129380535,0.15346385924037456,0.08395889795029408,0.11584928815066994,0.08285118916734929,-0.389815683495868,0.6886045349525682,-0.02647742576175658,0.16875967740599968,-0.018127650282519135,-0.37041738564054694,-0.2473799749990831,0.05724408288223215,-0.2998171313785054,0.018363256196077885,0.12815962927715652,-0.14437054523386514,0.07259766830434239,-0.07197316353685657,-0.08707885433083065,-0.021340531634532152,-0.14389550232523002,0.0177542927530164,-0.017562809877769148,0.029599609103453633,0.012233580933859102,-0.0026115452179805015,0.012388089795940124,0.05057324060354011,-0.0556228993108742,0.04544759327133592,-0.017084440719827478,-0.039339055130497576,-0.01536369753529665,0.0574280346567415,0.05222243149062686,0.07345116870622366,0.08738765500447523,0.029571196587327427,0.018549635740874572,0.06938462654867862,-0.039779468424563105,0.08043359410194245,-0.06734306620288094,-0.05395517113593438,-0.01059241899266313,-0.04451586899295178,0.02934651658244604,-0.08216771414591562,0.09200905721267472,0.02946969772090309,-0.05763751088557137,-0.007201318936383211,-0.011171100818861232,-0.07221974765667447,-0.01903554611973572,0.026180500916744617,0.046685029625305685,0.007111032158103632,0.009069595723202279,0.06638182441681144,0.020779578014051628,0.06389589606855177,-0.001300138962775598,0.04196576098276678,0.0509376540715917,-0.0022347186186009666,0.031795059321506794,0.018813213262536474,-0.03381932674933007,-0.011006895389783061,-0.028809069476518442,-0.004690681031740019,0.062316530779150725,0.04024874824095361,-0.0014863234004567694,0.008537134685387027,-0.019679174433480606,-0.006298156409114286,-0.06326554771252238,0.04685128683893701,-0.08298595644248331,0.01571074098789359,-0.037903733400151345,0.06534449532226169,-0.00412427870244851,0.010606223550829437,0.03333124533033,-0.08613319243028089,0.007233688374040874,0.096966814282445,-0.11250611566970725,-0.030819603367140288,-0.022215065738201013,0.11936145577934576,0.12128546406170937
80.36029815673828,1.1287002563476562,0.04638804931340207,0.1042992540147446,0.15735663519610754,-0.26199113970718446,0.02920213634513638,-0.2767498038079642,0.4573854987818877,0.46428050530723847,-0.11013507995258953,0.512698643492635,0.24430477770400189,-0.2294539058976618,-0.44072358472168816,-0.11269489042129335,0.48437696981679407,0.27223892502923974,-0.014300634232559516,-0.2763081033892863,0.17354457058430467,-0.2429379130896153,-0.13243723887676961,-0.03427978652626631,-0.02042580314805227,-0.038516364983944604,-0.052959981337142095,0.034296424083319926,-0.01118251490499515,-0.07822904487180797,-0.011485950662979395,-0.05134258024188224,-0.013423345524999401,0.05027600824798834,0.029929526013974257,0.1995824093588366,0.09718733539887976,-0.10033535777534255,-0.09842681668391806,0.04283606800878251,0.09493835969759953,-0.0034135434405080985,0.03499248354804712,0.09922779661255121,-0.286647450118442,-0.043722905213543856,-0.01928088302099931,0.06982073338847852,0.03919757242875478,-0.04385844465882967,-0.07692764329199193,0.05168156125173344,0.00896978350712524,-0.08932487834547857,0.05017440811708491,-0.013002647601376795,-0.0012480760606662265,-0.0004187558028694478,0.0007832770347152578,0.0095686116904378,-0.004064568721550728,-0.003648568204998045,0.0096095448711523,-0.06289451384424453,0.0008200717757433783,-0.012497448021633347,-0.011312275008672502,0.03434364592454765,-0.01070469072335414,-0.07191314157397079,-0.023332240025999415,-0.0379173728716135,-0.002557902854562366,0.10204547077785107,-0.03704740706553297,-0.01965797886068452,-0.09495560201109898,0.02438503446946064,0.00022833631437117942,-0.0055508059798111105,0.0014231072212351477,-0.008088181930488214,-0.023545104902450157,0.0011459495646526396,-0.10480822848517835,-0.037181859941355706,-0.00585876750050569,0.09945732297125635,0.011690279008247756,-0.006839295482446479,-0.018607674146370323,0.07864121194388257,-0.013804887000998368,-0.09401673755682377,0.047076896272768565,-0.030154461486936852,-0.06906653032920869,-0.05074493545718312,0.16570597579874224,-0.023367152137875102,-0.11855530102014118,0.16929589507661
81.48899841308594,1.1386032104492188,0.17517612450837744,0.03671330365882712,-0.05379111269009797,0.24984730574073144,0.06774078553374985,0.001432246699966935,-0.18954376462484887,-0.21502105336637373,-0.008851457193781847,0.4786606019162647,0.7390043301735715,-0.027636476782437316,-0.3371640260355929,0.00185674739146921,-0.003216986473237763,0.3557529756097188,-0.06008412282332727,-0.242608043208209,-0.26982462922953926,-0.23911222220955525,-0.18412345223426796,-0.04277322025899926,-0.017753926669083896,-0.02912357448209248,0.13460651896004053,0.015007037054210375,-0.0016327622045513369,-0.0067151804485577095,0.07487131712630542,-0.10397747650557931,-0.10392554026694946,-0.05227246841448967,-0.0035008143407548598,-0.012661872601921764,0.04492084318332987,0.09714428563735485,0.04505988180777562,0.0030980126176044934,0.02689844495234739,0.09087651673561244,0.1218562477157902,-0.025490077991877552,0.054518226141069465,0.11198273233543021,0.10493994922223661,0.1485734208516768,-0.13803347575020747,-0.08776630805152917,0.070539780812627,-0.00585308121882917,0.01747468576124612,0.003526966483363418,0.0014812254763991737,0.0014955066707973128,-0.012919503336319312,0.07890551442279983,-0.023837322084862757,0.030462913296933656,-0.06557591223213252,0.01472864566355286,0.03503851324806942,0.09834333842952014,-0.021067499600092826,0.059461480238966136,-0.050672239043501335,0.013760089289064373,-0.0033905704379213475,-0.028665212006901766,0.015217777096768852,-0.0790929211778427,0.05047226252355932,-0.050172940991820084,0.057919886040440315,0.022700464484036186,-0.0008384074191843647,-0.0003434619409499785,0.002555752710385616,-0.023178576998963862,-0.005568044447693906,0.012482373131036251,-0.04063920823420757,-0.014835521875868656,-0.014422812632694543,-0.04408462234377975,0.123229352940627,-0.016422331372252453,0.04879973233233143,-0.015527015023913786,-0.029024021739680418,-0.03252894652648994,0.11713143413568698,0.1446274010935483,-0.024385850395893246,-0.005667341468997417,-0.0156491346425742,0.04851431432217061,0.09338653740274179,-0.029275112734888652,0.012278906886953392,-0.07452190401899421
82.62760162353516,2.4169998168945312,-0.07078875406153143,0.10370375511961522,-0.16761433117667401,-0.16788045517877634,-0.10156637875911115,-0.06563884555531072,-0.25039276991813963,0.27233500435217345,0.426000361065043,0.2342616241101426,-0.15968785329783067,-0.4694021208285418,0.6271010073740121,1.0148702653270032,0.2768065857320574,-0.1568181300308353,0.06718811928417938,0.08445605271201091,0.09153961648001054,0.15580704540729548,0.03622196895731646,-0.027363739277349346,0.02890514449509007,-0.05678259340222581,-0.06158229187413272,-0.012701182713094478,0.004309399610867272,0.028682136117756107,0.008594539982560474,-0.04863109751828094,-0.03999554966933211,0.00041310808337477207,0.016017735374383765,-0.03624593497635274,-0.02214611569899675,0.0937347799858623,-0.0021551423915046487,-0.11736412479836263,-0.03394385428509219,-0.18156812356009672,-0.19527279284810173,-0.07094868328408861,-0.035407220889311974,-0.12821629608288587,-0.11182353623953935,-0.11326292044864417,0.004133962595872462,-0.04966802775056395,-0.04697244348242558,-0.30294778643189474,-0.0342196332215694,-0.042130459670468495,0.014103942432252123,-0.03574853991060038,-0.10278302805451739,0.034857128135314705,-0.1384746699799781,-0.008750020906066504,-0.04820342257920398,-0.186147116360113,-0.07535698767882765,0.02621961826554319,-0.0053404628048708954,0.009708107398148648,-0.034977292613495414,-0.03557067246382098,-0.019621196424654617,-0.003477539731779308,0.009260727059793515,-0.022706779224286995,0.0032828267546506362,-0.021301822974197065,0.005597932867256663,0.0018789928026136447,0.012894921664382619,0.029444279868388365,0.013026281611005762,0.003331390955402597,0.048102506796149094,0.006222094883394047,-0.00491437950451266,0.020479823150427814,0.0112158373967143,0.00441301760302277,0.003375015430104305,-0.013353816188044966,-0.05814928229223167,0.0035469598288015974,0.09142630548054019,0.03867857357885797,-0.04910595959394654,0.009552744665710156,-0.02203907391157102,0.04853945393883394,0.049651209703734434,-0.07687455585046722,-0.06527441363282789,-0.04076388287093156,-0.20667795197674807,0.019064839196529404
87.3322982788086,1.1389007568359375,-0.1709487287559892,0.12118423779876768,0.33726768689656267,-0.08865364379180596,-0.019940895303734486,-0.03830468628868892,-0.21738870075623015,-0.253046561887948,0.3081463226500427,-0.03719680295417538,0.4265936296078342,0.1769797080926299,0.7860821004590564,-0.02805932127687731,-0.08943189109256039,0.06833433546122797,0.3573460079063018,-0.06415551250473409,-0.33784283750856126,0.08490890779434263,0.030896542877277153,-0.2061320834433359,-0.01475103581106835,-0.06801510546716061,0.06724323908026791,-0.060140280282208525,0.10562293941929007,0.01900137425783345,0.18112069405872705,0.11704826258815859,0.0031082098575417466,0.011369845413073513,-0.03790655696840392,0.017929417381984288,-0.036948457066854186,-0.029717695953074916,0.2354480712063658,-0.0005419050804096413,-0.00800762849626898,-0.04914935898346637,-0.026022597969273267,-0.24586542049795362,0.14701905714767538,0.18626750730421754,-0.08456429292887664,0.08742937528547709,0.02743136575810172,-0.002038835204684862,0.021270788240574264,-0.040065695123859935,0.020870556241686596,-0.07469856165792585,-0.1502883087291216,0.04653228235509056,0.03315540754835926,0.034393772579196194,-0.09872349955378987,0.01395300779340326,0.007043745665998437,0.07669979740338938,0.014848256869348219,-0.012285552243739287,0.01083579865356897,0.0024449967456263437,0.0032337176552491957,0.03105606505205094,0.05333677388362245,-0.00394017748211711,0.04810587658811567,-0.044690992540078335,0.05490724184252921,0.05706495623167082,0.03423630054676587,0.06006239646462603,-0.0018621691172260857,-0.008379605118111071,0.006687880715700021,-0.05460735063830207,-0.0756314160021796,-0.013276578737330798,-0.0057264063122351985,0.009698972029082792,-0.051334879816887606,0.02346060208931538,-0.04105704106508429,-0.008158500193851205,-0.039929290554321685,0.010716364883559383,-0.0005509723174325926,-0.019597971822777786,0.020414025603243655,-0.02315195247599253,0.07796899783662384,0.023129909849794794,-0.13080947152775443,-0.1472748516032195,0.03922940693658043,-0.04331832299003257,-0.10756286937540292,0.043394343998319415
88.47119903564453,1.158203125,0.03369349432814124,0.07284298853445934,-0.07632075081625946,-0.36122541893831595,0.10067818812789116,0.002841264344557444,-0.1961463240346886,0.0731726342689665,0.17567866747747535,-0.13267021543845153,-0.3552659064491523,-0.19495380724069555,-0.05646621054145608,0.015255194820372908,0.29935956387668317,-0.0022152460241965967,0.05603819163085171,-0.19282193862637206,-0.058338506463435066,0.23500699076259923,0.0012652827023856422,0.031703531125548315,-0.02390154376466056,-0.08728554478146992,-0.0993028741650238,0.03990334289288872,-0.02633293199467679,-0.04467352882486496,-0.08941405665240992,0.009506206845527344,-0.031069642028181556,-0.07705858537242835,-0.03168033164605882,-0.08346547317298605,-0.013079508005377808,0.09895766192635695,0.0007917827240523923,-0.034877824240755084,-0.02191175296185428,0.14326712701796193,0.03716764290461581,-0.037970773415526245,-0.05275041744601778,-0.0016356620214838524,0.021306768245245515,-0.043730677931013415,0.017697877245203955,-0.04509505272500437,-0.05651432363276278,-0.07175919513803095,0.008761313810617531,-0.041026892704060056,-0.05304128172507987,-0.04453035199040682,-0.014420206882151744,0.019744837974962133,-0.06567120900290796,0.06446890919239097,-0.03615471029623248,0.022998670602551022,0.03379965772286882,0.0766981390686727,0.03943075753008974,-0.015383495947593584,-0.01912674693967093,0.000395863831654275,0.06839964073789269,0.03669875931009627,0.05865110813657057,0.02592530651083378,0.020957370599553278,-0.020732681219799556,-0.003492659099873929,0.0006198559582762993,0.005577690741684691,-0.008709899216689774,-0.013950570096866198,-0.003598212744820968,-0.013121271178688963,-0.04293011501480693,-0.004831673762352918,0.003532711597561632,-0.02338152916021773,-0.0012692635713670596,0.027009707328131877,0.010275049710902666,-0.020096337814093715,0.05390373878849329,-0.049539365420819576,-0.06411607212504473,-0.03855090806328593,-0.045251638150627216,0.19746057261036637,-0.04753788150377391,0.0228972110590148,0.07673918649024891,-0.06557714889437316,0.10574267737524559,-0.010686446692101266,0.08597903132051746
89.62940216064453,2.3777008056640625,0.07691590421701912,0.2555183070668013,0.1109984234475436,-0.22782628706002786,0.07037189610222225,-0.11355943832209203,-0.09445020404144328,0.022553506254154497,0.05010399419792984,-0.7488097350100724,0.0015728056497442133,0.30113741120504905,0.052370698339233454,-0.27034581163955207,-0.3648720848389349,0.19120314900564053,0.09808930020771504,0.26599742079965183,-0.24128829052594228,-0.07910635530437826,0.031255316245883236,0.049484401345643775,-0.06089202960475329,0.014697446320101412,0.11352660051841718,-0.07680940802810324,-0.1078643634508798,0.188560476741341,-0.1441710722781564,-0.015630136018984997,0.038657978298557195,0.05758945008916048,0.027632835930490752,-0.018642363027258246,0.2404727396454762,0.0415806450345627,0.030391190706517315,-0.17440429166457833,0.11736632881084273,0.15839189563964104,0.1278169264069309,-0.22181126826080996,0.06939668523291154,0.10295229350039915,-0.1928473802115912,0.16454721548105547,-0.1400484721976689,-0.03988220111357434,-0.08928714060122937,-0.008118108426735033,0.09209524582028043,-0.01008190711303092,0.043537913480143665,0.043450366517117964,-0.0023350913959459155,0.059551203373020854,0.005416437674342759,0.041414281148070366,0.04107555527080993,0.07503711369577123,-0.06531363581729202,-0.04511887048739047,0.005425192619490329,0.06282594042723366,-0.14785061243867434,-0.017585952266937394,0.01627122074858719,-0.01864932296306607,-0.022984154689786748,0.05144527105340711,-0.06207706589374645,0.03416568106023915,0.004160088417188888,-0.04417652178423598,0.002865313234366097,-0.0007016700462218825,-5.4777720510744676e-05,0.0025563230694116497,0.011333397604466723,0.012861261243853063,0.0881092669050011,-0.010034019693389793,0.00028107946734610566,-0.051286116009587324,-0.007617958452470807,-0.01726341935495735,0.0573505458960747,-0.12186967376370615,0.004185454757660834,-0.013948232766494982,-0.011717106738437354,0.1372426912897939,-0.19940976724870074,0.026906072394689992,0.03783290253989358,0.10200982057795444,0.31856313253936575,-0.06158611187967524,0.08444129777991495,-0.033486017247816205
94.21410369873047,1.1191940307617188,0.43477774910490624,0.280934167811623,-0.009354746110661252,0.32578590924174855,-0.11414030761226299,-0.4653737589264519,-0.18501542991721598,-0.05683655693879505,-0.5241157189736405,-0.026824490015778177,0.5852364167873726,0.15077307673553086,0.23615023972751484,0.360790036928368,-0.2444653061327348,0.18086009752403953,0.5365208937160815,-0.24078456121888148,-0.6125765055139042,-0.018025492277377896,-0.07414399128164884,-0.05716078461559806,0.12093798443312971,-0.22828528710701093,-0.05418411397973942,-0.03534713566318356,-0.04162370124451719,0.20486915224281477,0.015828409919747006,-0.18717559732956598,0.05107015968220096,0.05076017769870744,0.3712869728422238,-0.14276006170918137,0.08827420711036736,0.034922150298391366,0.06345885392259949,0.10609551125348841,-0.10644125260658636,-0.4142513674257041,0.010597208022696307,0.005547095055206124,-0.14921565935182765,0.3660432027854866,-0.02080506167591924,0.0006346811332422846,0.13847696996795616,-0.16723949877504216,0.07465562092571001,0.03899920326054579,0.10246380806320768,-0.01817970963824455,6.033329946011738e-05,0.01322867120475691,0.014314950944855614,-0.008761323053987323,-0.13232696150188206,-7.303003620473016e-06,0.008982257074792218,-0.07265100378093166,-0.08029772162052826,0.01187606161306579,0.02492263093578176,-0.04041189432632436,0.07675305831676132,0.04459199455837923,0.0697046111665256,0.00791132975474023,0.012374814547975886,-0.005466987932530097,0.02314226105641761,-0.054795596047736185,-0.06670305067299714,-0.013763582490987145,-0.007735197580677518,-0.0005123809301283376,0.0013922959855105037,-0.0050584065715682264,0.000649249597346524,-0.004275592877309453,-0.004669777252550511,0.020050837517748756,-0.03146358033524042,-0.000236511447878264,0.09264357606788469,-0.030262833764138974,0.0480415056233392,-0.012071487762435072,0.10476258975128776,-0.08957769210678981,0.021815957190480875,0.04309519372255506,0.05013433001960092,0.018876981978452972,-0.11990673690134158,0.31996252916506757,0.0594188369040506,-0.14390330053377604,-0.0734248047651987,0.011584194824461685
95.33329772949219,1.1287002563476562,0.14596195175543913,-0.16059786586591418,0.07256270904415742,0.11653989633890269,-0.06544515810018145,-0.12647611823404684,0.17588546415802347,0.3234034073555264,0.4228164773100888,-0.0545355978350711,-0.5810777468348449,-0.11563076102927232,-0.13593658469969885,-0.554387689849712,-0.5543752760281201,-0.2352337524855104,-0.08459739562553639,-0.11400369468164925,-0.11513098943252482,-0.04876438044910311,0.08908313667303266,-0.01959000641517683,-0.04890346245980535,0.0042253425429040845,-0.14016305551489777,-0.006964218502232472,0.016353248597577256,-0.013102447358180398,0.022336202914539582,-0.03597894760830129,0.020250046991464786,0.2906909529484772,0.014719089008385026,0.0817936419474366,0.023361519031673557,-0.1683445773148067,-0.005895348217801591,-0.28591281591826645,0.0650306880424853,0.03339205614887933,-0.06355609573902365,-0.17469553498842855,0.021844639143406896,-0.03769068273304104,-0.09540080518455363,-0.1541313321694662,0.06462252816084588,0.11752916773008465,-0.046050657956612104,-0.2831610767842437,-0.11987004899932038,-0.13351114213738288,0.06364283681833731,0.3621786890022388,-0.21961680654910395,-0.04624978383469353,0.1466857427964488,-0.037766731738534925,-0.08548086861326197,-0.0641691484704513,-0.04838754959609877,0.030806860534806156,-0.0014492927996936486,-0.0008584849992355055,0.033523019136960146,0.005804074600803719,0.03371092379120044,0.06484072715852572,0.008240981223143776,-0.10389475060291717,-0.007426998076036127,0.04345005807313824,0.007450641397856336,-0.010372565866245118,-0.04093028527589852,-0.0016766001402154715,-0.010504390592091755,-0.006182055228785383,-0.007749984265602749,-0.03490102956946352,-0.020463124161044007,-0.015543376382612988,0.004441640647971806,-0.03661517716898348,-0.00025448964025276367,0.01212274532583721,-0.042400337207151646,-0.02327121722518187,0.08993827324969952,-0.023241913044998494,-0.044201935761558814,0.22352436455836253,-0.05133562956744543,-0.12944225503230475,-0.03833602891442161,-0.030137504392495806,0.1216804453757941,0.11627848229043922,0.11815581680014113,-0.26647992506092305
96.46199798583984,2.2177047729492188,-0.2598616999409751,-0.07166083187817852,-0.09522976395843175,0.2103714837162914,-0.4434101363416914,0.05472000848762329,0.044293253451656175,-0.5332184746907438,0.7338941771215396,0.44532429202425033,0.060931593121459335,0.5055305911057713,-0.051563942496546014,-0.4756086248093309,-0.44287993864338804,-0.09585408741122896,-0.0679440904958539,0.09970579553596186,0.06959520677588805,-0.0735694087696558,-0.044203098491335774,0.013423422507060084,-0.043990855088126134,0.04158656790478897,0.1418913728865196,0.07293567676887631,0.009821003769184246,0.13326461081947166,0.2161978167137611,-0.011154604741653161,-0.1744394922528419,-0.15866354571542002,0.04077844688927249,0.12155603206196923,0.0977137350244043,-0.03606471477515127,-0.09719204306660181,-0.14525440390512534,0.12325784074274605,0.012870462003407523,0.07430939499254591,0.08620913734540085,-0.04611420331914024,-0.1013672818708073,0.11291372165263003,-0.08954279939810061,0.38430330471881036,0.24979779152316628,0.02638679149137415,-0.05084535076307386,0.2510628235814098,0.5196861955945374,-0.09101540510120673,0.081611946344929,-0.28348701691132894,0.00505382232054577,0.03374762939280819,0.0675341421617585,0.005729514261888112,0.015511638721509652,-6.825672986235674e-05,-0.012647047162619817,-0.02785924969266297,0.01942791511419297,0.0074106231706489,-0.01840905480117467,-0.04471900679632623,0.007568665084801198,0.06392453007475106,-0.03239492181571596,-0.07558840053081327,0.03293503141194555,0.03926031512702637,0.001915778313486575,-0.002385331227406808,0.005950033200408405,0.014992519461209214,0.008453896252716406,0.06893429037226227,0.08510068688613559,0.0034894970706948504,-0.10924140482280244,-0.05327154738762779,-0.02031743753856608,0.008048054897352422,0.0057082625207475575,0.026213552977252863,0.00318866763381252,0.08161578897861999,-0.04120138934462859,0.1173424783839439,0.17625542669479036,-0.16129367107648263,-0.02725528547007651,0.1740898608739827,-0.134272090001257,-0.09239265919375124,-0.02078551813458561,0.04474856578692418,-0.11447278401877192
100.9469985961914,1.1183013916015625,0.23278291371045035,-0.12323931609588591,-0.11527784714629315,0.015348690935870879,0.21363135053928217,0.18195592316700904,0.19146555936398094,-0.6185006958461396,-0.26318559205964015,-0.4033164657100939,0.18036350378688065,0.9635758856681449,-0.12161641032834254,0.5585377167440906,-0.6072984936278827,-0.3090353491694481,-0.05163577473497731,0.23958004794081372,0.1476688788689145,0.32495152899516666,0.06919121628811434,-0.09669772311065328,-0.10939744451194376,0.023340813473644292,0.00968018382471202,-0.1867297222669579,-0.09101115612051336,-0.06763027818530278,-0.07623216304967713,-0.004439671827794253,-0.19533849149982235,-0.10741348555506189,-0.007990465299002013,0.0339066533777457,0.2595934252714329,0.018766623198620838,-0.022047064704933672,0.026795273722114668,0.13035512398535623,0.0519604279363044,0.1548608377129578,-0.02179050273534618,-0.2236291337390066,0.1009917710312931,0.010422590916644672,0.3178436769478062,-0.0312306988624836,0.013581483005207177,-0.06170458817969107,0.0071762077220447,-0.05667161160984751,-0.094423913281333,-0.061441720917639026,0.051292338142863395,0.06303721136485688,-0.04882047509804843,0.02778896676369995,0.08051894015765224,-0.04976965375171089,-0.06409360671583317,0.01080636960289236,0.0729455372953392,-0.10110850670480227,0.008513369992577286,0.008609312655865788,0.02574112727333716,-0.03938650909627555,-0.05728746886741797,0.00038000099339734195,-0.040667972492623564,0.04896591422550272,-0.0437572834973475,0.024657188191258034,0.002421314161718546,-0.00886201637461521,0.048973798139528985,-0.018193813484220563,0.016790758784501925,0.02241002495044386,-0.06772042662842981,0.03240150222823904,-0.034112532392389726,-0.0007359675885436969,0.059647092457976066,0.05854143949116414,-0.09992723801298722,-0.007315583027544656,-0.015569370807231836,-0.006391922310078729,0.034916717754448795,-0.06390373552331116,0.02984912464336171,-0.15199061159666213,0.010502542785912408,-0.0022667165268205544,-0.0417708394863847,0.1981537306197723,-0.011983438071024768,-0.03834806915022379,-0.02780966529616813
102.06529998779297,1.1689987182617188,-0.16203275976487153,0.15844102878213467,-0.03197319671564123,-0.0838402785753652,0.41649571972481636,-0.01969888659317018,-0.21714505170064238,-0.22981649845408478,0.3340895589979419,-0.1234309694518987,0.022838971594552025,0.4212137197686675,0.20036118695137917,-0.05679950337257919,0.6640401091761442,-0.31264424547036046,0.6752551465700414,-0.07337554504027097,-0.37563785230121727,0.01303841013709122,0.1293476053705231,-0.21201490525661906,-0.11271097627930396,0.1091223872480652,0.13554050427638437,0.028937676232090617,-0.03477613775646816,-0.14770850616220824,-0.04617230962536817,0.010027234384224407,0.06972211100922637,0.07380618573576748,0.013663332245649739,0.014886634233812776,-0.21612718536900355,-0.30873032488207414,-0.027674446675281704,0.06413552330987622,-0.4662895291211947,0.0148964748847819,0.1817812049664548,-0.17943239224781188,-0.13894602455453323,0.2415470628452934,0.10466534180452514,0.09165648523940056,0.0819548251895758,-0.11145016851096164,-0.052415468120170755,0.03124604635174948,0.10599021731557691,0.03359980400709899,0.0016762119540572606,-0.17625217122667058,-0.028003132306531918,-0.014872611311373381,-0.0682110591991956,-0.03169351101178456,-0.004040761627273095,0.05367581442431385,-0.0004255284929704263,-0.02676898672402193,-0.05406410120877438,-0.00378969499825895,-0.02238490613078587,-0.01737131986573262,0.05123018730897925,0.016274070440576546,0.026284882561193837,-0.0109080906828947,0.02696414246951531,-0.06333168485481787,0.0005521097791065553,-0.025501365620032208,0.004136794339243234,-0.0003855249810717675,0.062478480140658356,-0.013055758797321307,-0.07833438902928293,-0.019144779494249666,0.008211813310136654,-0.008220539002349314,0.0817354045292098,0.005102167199986287,0.002202402086474887,-0.04193678463399265,-0.004456581858558843,0.016585863412511313,0.017289508086525417,0.02173962420181454,-0.004161596066713222,0.04187544966726851,-0.07155441514577472,-0.25391625171436366,-0.044753645252531206,0.08741169856420258,-0.10938873992207773,-0.04768772984992589,0.13905478601576635,0.1725860528128461
103.23429870605469,2.367401123046875,0.1632633528477315,0.14802617206373225,-0.12856228264432035,-0.3083751606315245,0.1782777140687121,0.08061680746971595,0.23561899030808509,0.33467205974911207,-0.24636386066694194,-0.24503294734774353,-0.22773374246232228,-0.05333319099852461,0.5979625593852305,-0.08096516768675306,-0.4897318168464918,0.34256902406820444,0.2753106250627198,0.024210058589270774,-0.156121622374583,-0.019749164130439468,0.2320729647100101,-0.058916021882206945,0.025462248609776625,0.04552558174246311,-0.08280244651876549,-0.043567259844219046,0.031207410239261782,0.1021577755215544,-0.03322680123545056,-0.09052097350998381,0.11813084142132627,0.01935525126847396,0.029455498664835798,-0.17874820094204755,-0.044233985587075086,-0.1668163589815862,-0.1358079250074633,-0.011427381959744368,0.24262939351530088,0.019827735615253046,0.06120175507236873,-0.0886796960047851,0.07537437606902647,0.11511340039372686,-0.015034761731926036,0.021555458192301688,0.32228769967979076,-0.06910294371680271,-0.04922444421292789,0.008083398465133083,0.18310748771108273,-0.15349822397021867,-0.1755846026235424,-0.31266044433593454,-0.04746678718353446,0.017777543957942937,-0.002353316359625242,0.014283892139420275,-0.006006887066172897,-0.11163249571402831,-0.09923851381790295,-0.027595700040242033,-0.0272642050261808,0.07273940193526339,-0.03549283827891027,0.042765373820040184,0.030217513932420087,0.035135549946087134,0.042333095850622476,0.07820591727492375,0.03805507264526629,0.009743573966460363,-0.03197012512102753,-0.007691980602218815,-0.0012925482839740783,0.05305049708298301,-0.0031737585652627997,-0.0006994880920093058,-0.002095723030882367,0.03523205243809547,0.11394754664492725,-0.004650759228313374,0.0368274301534786,-0.010260128009840034,0.015289726113809306,0.011233117205876329,0.1329093914598846,0.08491211875922258,0.07607747936272422,-0.007391134835450442,-0.14509644951120151,0.17704196166989078,0.08860360744476865,0.08397785393626375,0.013264394403264726,0.0467871546261448,0.09921596815039398,0.11328733933182833,0.23255997622226127,-0.0891442664481818
107.868896484375,1.1291046142578125,-0.004545799666247186,-0.19675980256299225,-0.014586050338880857,0.2177919221421188,0.14129693119969083,0.16759539923407843,-0.12469814653078241,-0.08804726839898137,-0.2016591934070073,0.3523510119196649,-0.20523277506328236,0.46613528063083054,0.6169839770659213,-0.06330342743418073,-0.5485938938590422,-0.22258856361797022,0.06452821453415011,0.27977768161940314,-0.039752463546681084,-0.1774398057601157,-0.12445352924923322,0.09938274040292697,0.11515732578688148,0.040567246617418805,0.2662883255285692,0.11004611879337116,0.08474194116074323,-0.04995572889885885,-0.023803294855252392,-0.024789065707482336,-0.11420756977529842,0.024293964841508225,0.04830881790204524,0.07295364116568902,0.07282027887373634,-0.04814907879291671,-0.011038117688604451,0.007330897850253651,-0.15623501377285298,0.08782228038656985,-0.1295478300343101,-0.05879295824358358,0.014114683973361283,-0.1101267919011241,0.1831052475602835,0.03156570833600109,-0.05104561471180234,0.02161615776070984,-0.0063648169643887855,-0.1431220553645114,0.034199574029246,0.04584925980440725,0.03723066664371932,-0.10332679300210423,-0.061489612612161126,0.005508043677008873,-0.09699758647088633,0.006375235751047719,0.20026260940904922,0.11004724796993821,0.06831942981756793,0.06034263035693095,-0.04391466677775086,-0.020727950110159786,-0.0060184164130198895,0.11691455706036419,-0.05554613225239626,0.03857026132132345,0.019747691244178175,-0.05436326285618738,0.00536239832646411,-0.006564559315587659,-0.007015775122073281,0.0018144038800514154,0.0361638463093235,0.04976184337514567,-0.10607804499929459,0.0033113312445094494,0.0009060789584258889,-0.062293646987735055,-0.010844000843618595,0.014812900002483852,0.02465750103871542,0.024053619524788614,0.04634282877129343,0.007173013624391262,0.06256670112234755,0.01500827350637888,0.017349095515092967,-0.03020324765444667,-0.08634721329015817,0.23267026641845595,-0.09587393763635797,-0.02626348770282886,0.06815460197798301,-0.04634024527992588,-0.07274956202910385,-0.056237518398060675,-0.06091363654606147,-0.12127276813232343
108.99800109863281,1.1185989379882812,-0.2646513022496082,-0.29849445257586804,-0.20484663077140558,-0.27555110849311965,-0.3801319380432898,-0.11275590536139656,-0.07073527052361318,0.0750323135737373,0.4691864043792372,0.11026504984094702,-0.2099041559318408,-0.7541446781267134,0.26568887095990185,0.32957711733305217,-0.5780526026724755,-0.37094513986628996,0.12671747791386462,0.4258834994815575,0.15350853269631953,0.16870565743830931,0.010282130225248723,0.06463304326893786,0.0365403185423896,-0.023656202594004187,0.010401535464501371,-0.01279906988139456,0.05036770004615148,0.152384450795584,0.005782080892949836,-0.011210365028681318,0.01213692221744867,0.041628008268550926,0.038649354881195114,-0.02210241231035576,-0.015139209509406127,0.009997786541572936,-0.03713437644251869,-0.006118114606227,-0.0005085392148553762,0.01680941839989045,-0.1637390440823436,-0.054736627925719525,-0.08422080426009088,-0.018956181630275376,0.0637071938245546,-0.054140374656961164,-0.039609191174982565,0.06737932873190058,0.13492263519496814,0.010474811684245761,-0.18411408871052615,-0.11290087115318723,0.02277125156428598,0.054837500637831375,-0.07609383055732916,-0.03511817788286801,0.11834938572046871,0.001305200340910428,-0.004117599872960546,-0.09357006657923701,0.0003504004536550268,0.008881159049313705,-0.006815859810639517,0.009729357660846271,0.047474898641506544,-0.017644741245698807,-0.02331505149832919,-0.019006655108861174,-0.007302734819140813,-0.03591309258057581,-0.018486678794518693,-0.016170803602019505,-0.09476753010846924,0.025199217415836077,0.023999542619902923,0.02270013130461992,-0.004377651266837244,0.004871308221380194,-0.008819897219099253,-0.03535762325935547,-0.015852391208055087,0.006489532712426246,0.0070270971259568564,-0.025103040996845134,0.06625280071630485,0.03384452455980352,-0.003993117052302754,0.03091680506887199,-0.03167768604458413,-0.024636483994959484,0.05979758566285369,-0.0034898012131415464,-0.07640193383031746,0.09139254613484768,0.16713581356447219,-0.0887169281551396,0.053897271024490254,0.049012567493398725,-0.39348364037748496,0.06359157976857469
110.1166000366211,2.3369979858398438,0.07899414008065364,0.2824075340964455,0.12722654681372497,0.2095441520044105,0.3738794246360364,0.5584934843879122,-0.09031544315726324,-0.22059214358451035,0.1266869607845835,-0.03724465086266374,-0.02747068229807066,0.2899909109888317,-0.36091936851777423,-0.042541414384899445,-0.12910911423026303,-0.0945438049672754,-0.14787922858638008,0.05386249904105107,-0.10106041255236647,-0.10476729350809916,0.0932639095678632,-0.09020481918556418,0.006743480566477281,0.0747479200035155,-0.08250410539252212,0.03937497564007314,0.0710304275663035,-0.07687649534752335,0.026838558787970018,0.006514238938263549,-0.0041459777111825195,-0.019167959232993255,-0.05014413496491239,0.20074299849079288,0.19762376116597202,-0.14640027153967422,-0.15406478843126478,-0.30625162773561887,-0.08985459418193442,-0.22452112077148784,-0.11453500404935847,0.03883630007240469,-0.08131970823465737,0.013993304104225503,-0.068200978367853,0.03360795851907748,0.2562535860410169,-0.0019147972067292962,-0.12505070102907284,-0.08202095891822198,-0.002428513825940994,0.061887608074602696,-0.03511677597487888,-0.08464372600819459,-0.01576564835412691,-0.039243732890621066,0.020131106455289295,-0.11369301989761946,-0.022392788745501865,0.014254749646106126,0.03010584838142104,0.05919609101807847,-0.02716800301051073,0.011322608996735546,0.12094007881543094,0.05870453348316648,0.06578818495404162,-0.06455851473441664,0.008146197730982472,-0.011381566875279438,0.006325762795566509,-0.008827647653713503,0.006817030579822648,-0.056730503583735,-0.023348216489477238,0.012038546520038655,0.11453435064680545,-0.00035355907246044805,0.0012228457464073448,-0.0014522717009045451,0.08666200027157427,-0.0019080840910286883,0.0020905391725110356,0.05815571462235242,-0.07396541533987877,-0.0023577800485884218,-0.06154619493143883,-0.009005921367236814,-3.989947141773236e-05,-0.059392497120316655,0.08855537624305879,0.13005007468313465,0.15542998707456798,-0.09039266763076133,-0.1426385852600967,0.03469683505170784,-0.0928410749891227,0.17819490820178938,0.15442268468715764,0.02024060600753011
114.74089813232422,1.129302978515625,-0.028133701469846575,0.05857314830289629,-0.07614020876139625,0.19072132709526707,-0.1560914770495767,-0.08246539077505136,0.1166024677599821,0.3270838127725151,-0.20781545607872837,0.06706710684615358,0.05629126529849832,-0.28268871006094715,-0.5120681400778073,-0.3519512979081561,-0.6752974132349273,-0.06033796634788205,0.24531120510792714,-0.13448673070186376,-0.5083904502835974,-0.11421882235363312,-0.14723205354778493,-0.1907738506056784,0.13486349153186095,-0.6689425987852489,-0.14728306108016426,0.13330686059590727,-0.11592734437085005,0.03728856185441424,0.022008694962375182,0.043316834993048156,0.0505430272968414,0.02079630932721544,-0.03746551342601312,0.06972614533948583,0.08404537214195863,0.03938872500187659,0.008484862340774793,0.040773655802374104,-0.09143417498683368,-0.12394921248766798,0.18949741925409516,0.06840920148864624,0.105048063257866,0.17231369562980342,-0.044339982121977345,-0.13370139142217338,0.06422366551413708,-0.04434541496699604,-0.008038902483614756,-0.02419888047544791,-0.013635920301204734,-0.03690895626251349,0.09366087401486695,0.014496141368725683,-0.017256953042977127,0.15941549694079718,0.023327710902320647,-0.07716293965421982,0.0137461796784573,0.04406215944736992,-0.03638069947802858,0.015952901258731188,-0.07198344489599301,-0.03205595841179595,0.016670476331405795,0.02493185611831082,-0.03514188277162461,-0.0325805216447645,0.05096345505904683,0.057524822698462146,-0.041561692168667994,0.05846409304967548,0.0299806051918641,-0.0011886465124458301,-0.039996893308590034,0.004570899974833074,-0.00213269187898996,-0.012011648905466361,-0.0047348768262058145,0.013448926275380446,-0.021250165365724334,-0.012825469636242664,0.006137493104527096,0.046584450737776006,-0.004848606517120371,-0.0005109929817016586,0.05359728367238541,0.02193537549692969,0.0859178014149865,-0.08217615889781922,0.00849760377770387,0.08012048058461634,0.02222777396571393,0.08824493493107406,-0.1654217060068741,-0.045318007998027654,0.004336697885245211,-0.14212246185759192,-0.028053038441101984,0.01836827769408455
115.87020111083984,1.1586990356445312,0.009656680832902952,0.1628871318396326,0.07506122481643893,0.159642381572699,-0.08325686547950881,0.19428105896445105,0.28445732125552,0.4711947308227514,0.08930638548072287,0.07947270708662355,0.10697741761615277,0.23541303993318885,-0.09483814633562575,0.16741337172726736,0.23728901822677062,-0.12142579226296399,0.20621628740257478,0.11922560924616624,-0.059793366110958056,0.11780655312542991,-0.2146168901460473,0.020279333715790146,0.24299922916876954,-0.0776124091522838,-0.06415227762097393,-0.04329784834916137,0.16774028724653633,0.0392706434384342,-0.07352128398453918,-0.0430176644893577,0.03691846024813197,-0.022363862882963322,-0.03849307779338553,-0.08702209663312456,-0.12117779992083573,-0.03129968483933574,-0.024711219762091337,-0.04998427207396501,-0.009801702090765602,0.021563429664537087,0.003906499491896379,-0.07193920908654358,0.010299434196067762,0.0779618835073627,-0.03229910587054159,0.08414115195655744,0.013910225148034402,0.15764921934787302,0.004074702046843951,-0.004019537539217063,-0.06420267861327977,0.06476217330542114,-0.26696888986239037,-0.03677844574083353,0.12289871851603429,-0.004012443153914545,-0.043027218985555137,-0.11119445114411189,-0.013566415826611177,-0.0124848439557897,-0.027200643026770492,0.03597289815441228,0.08429151071265957,0.035060914432184356,-0.0715669090290655,0.031104606150300352,0.018552615312699066,-0.006963281555412977,0.0389302234794814,-0.030705207859576464,0.030509095098672355,0.0286138042194533,-0.00570334210832124,0.016738943032554025,0.013677795335542822,-0.0087383171773035,-0.024579122341068068,0.028931889812356476,-0.02931796018439405,-0.013703264714967736,0.003963534367175317,0.025761336977692905,0.044278799965578916,0.004006206314425581,-0.0015781830032986547,0.002499706172301035,-0.022381487319051846,0.033071043577385016,-0.01750143745744503,-0.002054859726037646,0.0034038452052158608,0.052200881114531444,-0.05690987349741963,-0.10167281000244166,0.12623935765635072,0.08439373206190057,-0.026106355528373412,0.16533688994013623,0.140948428759114,-0.1310774360556718
117.02890014648438,2.4568023681640625,0.013424922217732949,0.051803269612405216,0.06060222470465948,-0.29616172883116365,-0.07345684568800982,-0.15730327982631037,-0.08477634609202735,-0.22504972972879775,0.41797890561322554,0.6451047662542387,-0.26907318434692423,0.2152974206046513,0.5765543797485807,0.07334224846859472,-0.07040503828819494,-0.17095638543658076,-0.08855251350712844,0.03960570701199063,0.07696839492971311,0.3276900376708354,-0.12776265404948678,-0.02008957174668315,-0.030097983726596347,-0.07240151310641108,-0.01614021624487616,0.06319060199987069,-0.01891726924392799,-0.0684109866432502,0.014681693466066166,-0.057726743175448174,0.008566813162597043,0.027807543008177765,0.023288864277795824,0.16590394063392946,0.011710249136270508,-0.14343781802018146,-0.02313975978882951,0.11307986390943066,0.0406089459462775,0.06469173306892545,-0.021757754579292195,0.10274933464202643,-0.013639465799713868,0.024057650232697972,0.011888784719836473,-0.233193636087059,-0.138776014838642,-0.05044597822825355,0.02331196862574414,-0.06392747792544701,-0.19480726771319462,-0.07260961028071582,0.14424918565661898,-0.02059641037031291,0.09528316062564146,-0.033939192297885314,-0.18977441982630833,-0.1108023853484766,-0.03399376759654694,-0.02561757710355129,-0.030920131065792177,-0.08360156214822917,-0.022846105823169722,-0.09865702865682437,-0.04883992656583934,0.0010524093558897992,0.06259403817143783,0.014543207566887458,-0.03242031631118746,-0.0026404655945436086,0.004683186797094887,0.08403620120359057,0.06947552490947632,-0.008402767624338808,-0.012123449529875346,0.012622067904913539,-0.0021805229402169996,0.004893401731116986,0.0021413708649190366,-0.0010261218307127964,-0.07447193813774769,-0.0016590667413706574,-0.008298917286509572,0.008133850872367699,-0.05809048654666264,-0.03777484650825451,0.05985304171462515,-0.010239188198272811,0.024492669599411467,-0.037677722618912494,0.07097758492730304,-0.0855946450553219,-0.03641580615087775,-0.032185747612921506,0.09425358009912235,-0.2904461511742477,-0.21200854009747028,-0.2958479380799586,-0.07034956056724695,-0.08462794521706093
121.7936019897461,1.1384963989257812,-0.07340379459743167,-0.13531815684920737,-0.0723183080583218,0.4627725003108017,-0.11441380698830342,0.08567596374906031,0.23952303182688114,-0.23194490262304437,0.2411021340338704,0.42682388774298063,0.21708033997320061,0.3986455979652252,0.4600697972845814,-0.1262115600081033,-0.7123548955772431,0.03204792882730413,0.0284324586602785,-0.19827580976738196,0.09236022722324806,0.14523721124906436,0.04386676371681908,0.03956255264644527,-0.1322275482574355,-0.07262787390179966,-0.0268858886240111,0.0010165719538339224,-0.08748809352643885,-0.007606632023069356,0.011826202667663316,0.049838241543724376,-0.06253103075277139,-0.055351002066908225,0.02167654147950132,0.12151819273362931,-0.008462703697836506,-0.15110555528921138,0.006372907169824631,-0.04721309004685927,-0.05072122177660538,0.00784066951606558,-0.15106366822371345,-0.019384668809718588,-0.012366085946232489,0.08711446166784441,-0.04035701881935631,-0.0612385776379976,-0.005291560886922939,-0.09963064557205042,-0.040588702402324386,-0.02637427776668439,0.05307481236770066,0.06865308609056077,-0.12605888664089582,0.0030318834764855524,-0.0831701936601128,0.054663242732125146,0.08284155849142802,0.007294835480908585,0.09073295518508918,0.02579716565184169,-0.04833007974552228,-0.006695282917372297,0.035528896710028,0.049925069991186836,0.037281768279459504,0.04955172436439433,-0.01888516776480129,-0.02962067101171311,-0.07648870328613828,0.053442977269118924,0.04362924949624823,0.04175368382444552,-0.02689925841559337,0.027284512051578932,-0.002881464220214058,-0.0006842052763286941,0.0005407509577955822,-0.0010971991940884334,0.0049901070928129974,0.007421627945279087,0.058594011858188966,0.0017811185666704796,-0.0034266530748665544,0.0072287813858751375,-0.1078426808335922,0.033935289595388524,0.09625086214992211,0.004796142635223242,0.013807858920627676,0.04386117606700235,0.10953090281747017,-0.035310971138979116,0.005934009330350385,0.07114300624518055,-0.1528952735676988,-0.23947986754715286,-0.009082273526248501,0.07514007419333127,0.13417476804370862,0.4299017889435018
122.93209838867188,1.1490020751953125,0.2805850544576464,-0.23681521961615284,0.07911566332370673,0.03570671135394429,0.28266789828878186,0.1299439367638069,-0.2355081918544023,-0.022616849863806007,0.5875872281338831,0.3224401652519101,-0.5080008681054414,-0.355407681065957,-0.22316967130601206,-0.31326280310060095,0.103945297395899,0.5891283854288039,0.07673628884436211,-0.2658959454859501,-0.01683947881881693,0.09339825387038175,0.1197743623795587,-0.05699037050428826,-0.028381366174009756,0.04716401762770022,0.13793314855789082,-0.08144866680517404,-0.013156749641509678,0.019730645794467518,-0.02804201262202201,-0.023639926607434678,0.00855451386314278,-0.0157637064429409,-0.012308590952975956,-0.04269069996879975,-0.031697365790944385,0.011600366606972683,0.07143218868296082,-0.11349763945335091,0.01901064868312783,0.02573323804107358,0.05829602117270013,-0.0788579584894635,-0.05933978490433528,-0.020711284626236587,0.06279662377625018,0.21693225585089118,0.15245509360092574,0.010998979070644597,0.12934032961972966,-0.27456922680367957,-0.02490300289515003,0.07185766017752622,-0.019332169434168867,-0.13041853398841946,0.005552049817774185,-0.022039826297503257,-0.06161301608059415,-0.014145641899384873,0.006766391088398126,0.01341104818236995,0.032742915444348396,-0.04078622370631222,-0.014656328847048391,0.027707564972436406,-0.014703661912136316,0.01972874811639146,-0.02554588318734623,-0.010198493146595055,0.026829105925246836,-0.060864940092518,0.06127994970676206,0.03303576644087239,-0.009211336582788925,0.010045780449881903,-0.08246552321038066,0.020002595352699104,0.01211919408335739,-0.038162347846998915,-0.0007404515550914263,-0.00874507887780499,-0.019494199736982395,-0.04882973154691694,0.04448739700849673,0.0009328662646841401,-0.009225447190557656,0.0027648459134878,-0.08701213010410151,-0.001742459188382413,-0.046325342305473936,0.0399181529743711,-0.009926280908597145,0.0348642483979053,-0.08547581058733408,-0.07918339556235515,-0.1615332598602963,-0.0007557244113533985,-0.0280455321212771,-0.14126833493221472,-0.06763820621417246,0.11240121319093027
124.08110046386719,2.4665985107421875,-0.03492042610024938,0.03108990424515598,-0.23780118146650017,-0.0029812896947815914,0.30050976202293733,-0.007707754655193555,-0.35664751333738376,0.0035270229847666756,0.48125828319130026,-0.058267788835265386,-1.0950637010356918,-0.15087861645853268,-0.32612813518226624,-0.07144927489327654,0.4505004523585118,0.4867058392500688,0.3752464871994073,0.00034432218062644803,0.1379330936949322,-0.04916673133163668,-0.058672608121614844,0.13244293687850706,0.049365966768123826,0.034379048256392,0.06957243810308834,-0.014425775456480983,0.10403598116739121,0.05368699901028773,0.08098943357651293,-0.0002431496234324899,-0.06280156039114443,0.06913556006685005,-0.04274330321733155,-0.0029123895196703775,0.010654996252687461,0.07457332524247777,-0.03566803019391942,-0.052501048464797244,0.05551120964766842,0.02991033949065927,0.1913928142213735,-0.03177258995255059,-0.006750103782874022,-0.01622547006724147,-0.0826870230222213,-0.02767010966756596,-0.10138652366971627,0.1379951983198477,0.08990879691531403,0.03543379662539747,0.020711277419982355,-0.05928079497389087,0.005410095283263434,-0.009065513974363016,-0.058929812893993426,0.06261792297369452,0.006500342915665513,-0.0198634597901187,0.0008668975865126598,-0.03636088247736528,-0.00634167592611644,0.012312700450189422,0.02402848888685939,-0.013003049885826396,0.010493375653206601,0.0014470103371027351,-0.046809605518321876,0.0489295238555722,-0.04069143005513831,-0.0724042126674963,-0.0005351194301382034,0.003235619884355775,-0.04627209830894881,0.0065257177130661915,-0.0012693786174406392,-0.03704004042848127,0.09554598399805686,0.004538334423267984,-0.02911644336553304,-0.09989549990842553,-0.05902007086648867,0.04091381472678747,-0.007002508479012922,0.015915884262851458,0.012119012569916045,-0.050306063172941444,-0.011800565260483802,-0.04411961103238507,-0.0022145950481353566,0.06111785083920619,0.07589279333166052,0.06779109097487745,-0.1279343174486233,-0.05800607979385813,0.07007273060102018,-0.17355425474509992,-0.16976532742159053,0.0066797685892325005,-0.04749813864874155,-0.08195969259504504
128.885498046875,1.1482086181640625,0.07095805208478889,-0.08928816865306538,0.11754577952310648,0.10826895781461325,-0.22666452242643534,-0.47974607656656054,0.10055575101669134,0.14981152833684874,0.009110936149867167,0.518261078691418,1.1224870117022714,0.1035175297214207,0.12397684818502971,0.22467553047751967,0.08177672839649947,-0.36557139832054414,0.5948284237501119,0.8188815090283195,0.08900894601345383,0.015750707833351238,0.04526284609247083,0.08593602736303607,-0.011719632746557025,-0.01410065583958501,0.09873142091199019,0.030125565971794607,0.0047423854762731745,0.01367966330111507,0.022840481310352895,-0.21599185906139803,-0.10387350275913591,-0.0630966933920352,-0.012415379466203398,-0.10152678148857097,-0.009942861972413475,0.03048297911849667,-0.047687964942250416,0.01915130376579138,-0.006474678365511235,-0.028197320020278655,0.06433375449839769,0.27901222445012325,0.36686170546696156,-0.016708914812304784,0.004827257668078738,0.06347017137714092,-0.06694750841541491,-7.909360637308068e-05,-0.04051699252264518,-0.05883535173602454,-0.0050343347594009,0.08168602178054404,0.0021290119975271534,-0.09335957620263859,-0.04277120803713369,0.0059385531188829235,-0.014196404272358208,-0.013289482460641003,-0.056365180397407004,0.009240074966982481,-0.03979029046937007,0.007689818053221355,0.018009394168082282,-0.022220159393768285,0.07291360317325131,-0.040180172320920096,0.06537811012803818,0.011275542412997183,0.012299191140807497,-0.008910505100908434,-0.034005049630997736,-0.023160586881429884,0.012527470476643128,0.0016533275693787009,-0.08606589237965342,0.062146538169089695,-0.008966065995331764,0.0016664629697041248,0.0003395190184268098,0.00016248468991090934,-0.0029351265270289167,0.11366053502340755,-0.0006723023222010144,-0.06893743075384545,0.04140423363198407,-0.024621032812516958,0.005486167878868785,0.07801365371071105,-0.08612902095792735,-0.020169900446001615,-0.00822573361654079,-0.0752211691875283,0.07127440713599227,-0.03301591402040924,-0.036503620595183126,-0.013640295016207142,0.0769795171985248,0.012194333691483681,-0.01765606310495292,0.26831170135439225
130.03370666503906,1.17889404296875,0.12627830650927202,0.1258233374337356,0.3699263615722673,-0.23281458516033082,0.15574151803764613,0.09713216175799916,-0.132217926328179,0.0023825227731908497,-0.21063256408501957,-0.8156784474384888,-0.6799422055495838,0.30249948543639693,0.41853361715733794,0.3545363159500434,0.00015757009265729427,0.28223339901136457,-0.11174976081634093,0.1178026378737435,-0.22870867028138891,-0.11410463729861717,-0.11598231693792038,-0.22510341133547587,0.04029725095463841,0.019686238132691596,0.07365525262195365,0.16118273869917615,-0.21542552951127375,-0.023871688875795407,0.03167718250423399,0.003806383961117542,0.0034923053396345464,-0.10085419998579156,-0.00763087244041719,0.11671869251049986,0.003489786369479407,0.009839375409838133,0.024992427650381545,-0.08706820314251411,-0.10985787179310061,-0.11148681736521614,0.06660648430891439,-0.05931574476750374,-0.0769830711772601,0.023702619949557073,0.10447517650877124,0.010586912968483145,0.002424059769762502,-0.06066007810105564,-0.02800181432093783,0.05421772821064291,-0.057483302479636886,0.024177864326929758,-0.044013909643784516,-0.03159535762569766,-0.008617033872852668,0.010481359534431713,0.03618744032174104,0.10548220626524034,-0.0067961437307421995,0.05649296129153502,-0.007799890130283214,0.08313543747643277,0.07072408081792245,-0.040402892752190125,-0.04427290641413559,0.08683857841383755,-0.02911965815451741,-0.056064176364169646,-0.005685360006831063,-0.06261665436759518,0.005286688616787587,-0.022138862566050944,-0.00956792760580079,0.01386983740096418,0.11010279734780101,-0.050106041852700144,-0.02782206779176487,-0.004880225358295076,-0.01547630570976483,-0.05970309962418366,0.04992113330624937,0.008420655384458204,0.017465422486621536,0.037666357834022175,-0.07961547428252085,0.029862525140897447,0.04868396577434986,-0.033350495027539694,-0.06764967178032093,-0.006512692596469825,0.003517077379376175,-0.02928033755256993,-0.028705108992356943,-0.052199847655072046,0.055465144300685755,-0.2329934894313771,-0.034318601230565654,0.0422377675870622,-0.03146470297015426,-0.1965024172977824
131.2126007080078,2.467498779296875,-0.19280691734565028,0.07180046598107881,0.08840293769248518,-0.27449965451338243,-0.05693405102080503,-0.0415450479178264,-0.03896964895649726,-0.007002825675728163,0.30442111472623046,0.8538071342527147,-0.32084467601413524,-0.42061772248415086,0.6692768350986553,-0.3146203789460251,-0.33383980005957015,-0.5517727326568216,0.14091268855097516,0.13614882759144922,-0.11417500054008439,-0.03552887811977185,-0.037039071016255434,0.06941271473987752,-0.023639135119070075,-0.18107986274928356,-0.03928626422799505,-0.0016322738493445717,0.16357993632569354,0.013641497443460285,-0.06471910755829534,0.026356472643440487,0.00995361395700011,0.12362983285965184,0.03208565535118391,-0.03229811952288991,0.010099632070568786,-0.07020551375383116,0.02074085091938105,-0.01946064026088539,0.05867466896673606,0.05823665048131245,0.09347678576188437,0.05193599996353415,0.009834132394481287,-0.017607461978729817,0.012885503403835829,-0.056040011142352075,-0.09918448331376893,-0.05122620273648645,-0.050995257155623364,-0.15096908213447505,0.05961225005263095,0.008482969288431955,0.058107468570639406,-0.024284546546446135,-0.010715619556470818,0.020584594457970735,-0.05238994464332371,-0.0005635155262225509,0.019000672650917615,-0.022610984213990545,0.0011645356446462795,0.10508728822239588,0.004734235808575319,-0.011179077808454452,-0.05804125569214531,0.029842415452928,0.009670993117619767,-0.020244311049366626,-0.06656433516060875,-0.029375885260106125,-0.043101900286079,-0.005598179534796667,0.032102865682485444,-0.038203234884890615,0.0002449811447034839,0.0008616735560134568,-0.018053629830650283,-0.00926695070134917,-0.03351432632243469,0.0024185240902944096,-0.0009111233041036559,-0.0627978236184784,-0.0060447078747121906,0.00463484597976806,0.005910799108517925,-0.09046566419942322,-0.016549368069764717,-0.0014965687395393256,0.0026798803229372077,-0.003431914212462292,0.04431503804332183,-0.0021162942490585324,0.007466006404778756,-0.09459337598056716,0.006373493062610437,-0.1574060610224858,0.03271672621136306,0.20218824041261413,-0.018134149217617065,0.058091144531301556
135.97740173339844,1.1486968994140625,-0.1316150013173525,0.1338205288958622,0.34691556019982644,0.29060984368361925,0.16123517698907,0.1258419448930671,0.029527483557492466,-0.07450774622737333,0.19104211778116625,0.4221142435848792,0.013962284837419937,-0.05355809386392962,0.8976335378350709,-0.008398665092364477,-0.4663239042726565,-0.027341055127654695,0.26215978678875584,-0.02112097948199084,-0.02756960355424009,-0.2952260041825221,-0.33696249894024644,0.15318682106506165,0.12046031879655786,-0.1384049821827094,-0.004661243930453526,0.0035447823768294563,0.010715792135537285,0.10402694984983657,0.062048309266048554,-0.009549898724604242,0.1449862734458081,-0.01632310026578855,0.0432236098813518,0.10799474653944216,-0.02165998923157078,-0.1288539385552267,0.20802671879482004,0.07434109678855413,-0.023599703736323023,0.14444303740730147,-0.03819828238737071,0.28876883781819895,-0.06847592841157632,-0.06281139946896833,-0.10254086224985715,0.04904082707279023,-0.0969244613274261,0.09342429802826169,0.19976340115824323,0.14217661350203079,-0.12378153757855204,0.06576920990471101,0.0640450506073532,-0.07487987228658681,-0.061978255862971385,-0.029605252209326235,-0.014902738622940606,-0.04337505953691649,0.0007672532575348466,-0.01691614782123306,-0.012480941226550978,0.021970432511641963,0.11728201371505717,0.03032068870960574,0.02655498578513707,0.03740176970160142,0.059136786453448734,-0.0546520468056885,-0.027550615786077447,0.010923277579475695,0.025299025178262678,-0.005596506550626897,-0.029775248934431026,0.01864082942198957,0.03919895366153361,0.06793856028937828,0.015043931338816634,-0.0004959715024415059,0.00010343147748710754,-0.010257589833792213,0.06678067044593809,0.009235137719905551,-0.004912368096880539,0.022358385844985992,-0.03415503949696089,0.07465806097145943,0.00836249307221203,0.008402452291390097,-0.07627411290210054,0.004201284940438505,-0.002310492170991228,-0.020477368850252833,0.01978114049983351,0.1402143807415396,-0.14487603414506725,0.10707029855289131,-0.08893936031411225,0.017830930835154128,-0.038303027130973236,0.006133749310867076
137.1260986328125,1.1482086181640625,0.1545035121159902,0.11809744746134712,-0.2019153824389914,0.04748056782723883,-0.210547642535525,0.17694618084874492,0.1269094784979612,0.4439601399483034,-0.4345891451183679,0.1339250965734976,0.39172613962469843,0.07119808217995036,0.42315201041666006,0.05134264704670481,0.07495147529971759,0.07434774228782755,-0.20094970322351008,0.17030098038641298,-0.363009282337021,0.075796749752573,0.15735273490755547,-0.004473883428203145,0.01997552172694551,0.09510696310648951,0.14025551827316432,0.17704173657439898,-0.006232647362476715,0.08465859781646107,0.11872971259273507,-0.10125726928802044,-0.009966999236536706,0.015580344659328485,-0.024768047179196014,0.004051136784279281,0.11877192032804161,-0.0513434194685481,0.007742929191008584,-0.11964861943354604,0.012574841029576428,0.1018159874639578,0.03555950006325461,-0.13135698043009947,-0.011068553756074448,-0.023078519378414403,0.024880339677959183,-0.015598363352420682,-0.13515185433856172,-0.13462107227960546,-0.05001788864908225,-0.02020694270193281,0.013433261480668382,0.0249998495298761,-0.0376290958340245,0.10765848302752895,0.0040538778335119305,0.018766521200743604,0.008828138234354622,0.0305421439750519,-0.04481828908685994,-0.05284258757421238,-0.011325184459249507,0.009055523631737113,-0.0033638523135614542,-0.015629488918700255,0.013164075658918644,-0.008982038901282807,0.048005120865214364,-0.024558058464784628,0.06452089178399394,0.0017007933400752116,0.023151310425749486,0.024101040868178925,-0.00636472698565195,0.013294262908067456,-0.005921473951013028,-0.002636568133224323,-0.01505716552689072,0.018851752534575317,0.029013852379664085,-0.017394157874021977,-0.008778547792438782,-0.04517441043001031,5.264256960519389e-05,0.026913559876389798,0.06814861168726408,0.06840484205236215,-0.0010137974810422435,0.04610361800739173,0.025535457425984707,-0.06408335526057693,-0.025088213235392415,0.05983757750734312,0.006669069863617346,0.06621750218036698,0.0689558056771402,-0.15318248088971806,-0.18009784107413088,0.015054114996621352,0.2103209042613175,0.12642551331554552
