start,duration,0,1,2,3,4,5,6,7,8,9,10,11,12,13,14,15,16,17,18,19,20,21,22,23,24,25,26,27,28,29,30,31,32,33,34,35,36,37,38,39,40,41,42,43,44,45,46,47,48,49,50,51,52,53,54,55,56,57,58,59,60,61,62,63,64,65,66,67,68,69,70,71,72,73,74,75,76,77,78,79,80,81,82,83,84,85,86,87,88,89,90,91,92,93,94,95,96,97,98,99
59.660648345947266,1.2185020446777344,-0.08893808869218078,0.08854960824398987,-0.06352310195084472,-0.16045140716584805,-0.02405179764433539,0.12067442838217976,0.12031708962599595,0.06344673047981778,-0.14057117474829728,-0.10622561924980371,-0.029577222713542146,-0.013686710999089882,0.045375903656376025,-0.04339354668948609,-0.06941840786803238,0.031554139872843195,-0.031205097063056096,0.031476711266434754,0.023051822082531183,0.09093570548325562,-0.031189434210432628,-0.009881652652059309,0.02003935811385617,-0.022692517449882064,0.022925731781435837,0.028060017820871766,-0.0647755261170045,-0.01668045605600601,0.012659630829887664,0.00257960595381463,-0.028178315530503074,0.06494705124340755,0.006140578831002172,0.026065296421164272,0.004942268428093808,0.01709449943819186,-0.03721465748823041,0.04188057180730224,-0.046504241069464984,-0.037179685198516305,0.041107110153879814,-0.0008654304756806766,-0.06651333023718484,0.07329917704101335,0.01996455935192276,-0.020061765426871096,-0.006377968388422383,0.010188733581548483,0.05331339327235604,-0.001225655023755895,0.0015650904004728904,0.03551672661128983,-0.00443854174943604,-0.0010558095572183665,0.09232221729939658,-0.06944993647244829,0.0019770989720167935,0.006032533426576994,0.004974328731832088,0.05527503265024971,0.04701151314364681,0.038259378462632825,0.013481191707053409,-0.0037929968343481187,-0.033915097148563354,0.0027251824391758377,-0.0030696629411732053,-0.08886337355654592,-0.05150104499472715,0.035856253239427524,-0.026617904333869784,-0.0388635983520165,0.06062684859673101,0.02911843790056523,0.0014969644789675155,0.02495231300219779,0.09091243926626788,0.04820262264116216,-0.02373702035194112,0.04631061032483667,0.007673773075418734,-0.05195462578626293,0.00036388050004334865,-0.03822648548052478,0.023257413400182156,-0.002692790166462347,0.001973051947794012,0.004172593185147522,-0.05922699512722651,0.06079963399517909,0.09924321654750057,0.029473284050788043,-0.0015695440072075021,-0.04794597661139913,0.08054711876645361,-0.08942566698953057,-0.0034034375530510945,0.09201188546459597,0.07639578887033585,0.028715888107879325
60.879150390625,1.1883010864257812,0.026762593405916957,-0.007309507709414444,-0.02907887205196313,0.061700736108560535,0.04665065328061242,0.0783494186366444,0.05812724897594664,0.13272196029252592,-0.09144683854924329,-0.02268331275328273,0.06391904136018003,-0.025197092018495577,-0.04299915427874833,0.028422183242448294,0.0371047421589725,0.0037503332592274574,0.019071705441185006,0.07360088210149734,0.026239020361710712,-0.0578566036333961,-0.1739306950007663,0.00391343007733936,-0.0511336511612155,-0.004738401699083884,0.09715514763845537,0.02230087141653319,-0.06273383610153278,0.015667848241867954,0.013127176310887197,-0.013985440628014476,0.06167247246911817,-0.020510440526026692,-0.06225231622869044,-0.03193052144643071,0.03307109515625249,-0.019724947264114265,0.02880762375369464,0.060557111799679056,0.04951369702892165,-0.032441102393002935,-0.006191494616367782,0.02693466754433356,0.005553704161115138,-0.012096415583861115,0.03213846618811789,-0.04201383130672886,-0.04227009131599485,-0.012291916055058458,0.014845366450869035,0.003047468432807647,0.010929022231320841,-0.011702358114119807,-0.026128347427477022,-0.027556597335927264,-0.07508666526273071,0.007831151546868243,-0.13195194569881036,0.001333078381164251,-0.04782453405089071,-0.06332461801782485,0.08120194164600715,-0.06600732014344904,0.022900296828102393,-0.04641489454793021,0.1475917456432774,0.06970025757851855,0.004619025723710546,0.05018399631464294,0.06276479689612136,-0.09191886384266462,0.01116887879549519,-0.05213650505745565,0.048098138178992715,0.020724489675842596,-0.0015460406684387118,0.026913624880331014,0.01895239800684531,-0.01466244025676472,0.04121833577587376,-0.008657584324398487,0.01729628907884885,0.026256281387729646,-0.007426503862811991,0.005617136687939246,-0.01245100881881727,-0.005251043093321157,-0.01250267915717262,-0.004701801303158957,0.0011959174650029128,0.03135315110465516,0.02315788499383305,-0.08950655492263439,-0.00831519162401752,0.012480806269726075,0.06247660442889914,0.03237726469252181,-0.012775886274861268,0.020055038982691488,0.08804333129604702,0.08092699195672198
62.06745147705078,1.209197998046875,0.05717029693660066,-0.0333087304149972,0.05020439911917596,0.11235921434865291,-0.0504607305540042,0.055026885360248676,-0.22925407722931487,-0.03608327078841076,-0.03251461326240353,-0.05541722147167922,-0.014390581077157912,0.12587982964542943,-0.09611392547648023,-0.060963690735229954,0.08571466524948214,0.05377000930843049,0.03155600203880071,-0.04963076553896292,0.0035988785571930137,0.0244733413572433,-0.03603717679100863,0.03833459880268099,-0.010796971519776235,-0.03107472437420528,-0.03628739260623088,-0.051486015027087606,-0.020957811626803574,-0.034460055928291766,-0.04467345779057935,0.0132480724572701,-0.013657772217275167,-0.05696732349894763,0.021492863708495454,-0.033583389571713,-0.0029390896851308086,-0.004659328043852964,-0.014770749212939966,-0.05633730135314046,-0.04224664379227634,0.007833428154214804,0.012213418857990183,-0.01876329573942503,-0.01202791158640643,-0.03844742708515397,-0.04955012704144041,0.05478966557249748,0.09319598500674008,-0.01729002117519945,-0.0019397158403092946,-0.007374670156097704,-0.046267327128568805,-0.0655127998783485,-0.00046379339933398525,-0.03179306257059738,0.02279160906651846,4.754812681677373e-05,-0.017728939836742265,0.013257217823201023,0.03211704019521479,-0.059053703386746786,0.0543558977117793,-0.025956031047650874,-0.0851101760125861,-0.042955736662505864,-0.04239722997080099,0.020098288764114916,-0.04363047632384629,0.05061918555925641,-0.01273584616683375,0.04264721967982375,0.08348154885885259,0.005236642160178748,-0.048266253394068585,0.0795636477526032,0.01046973336523895,-0.013113124866722907,-0.036579070252268774,0.029908442827516132,0.05622026999562826,0.06858620867162296,0.0005237502881450634,-0.00032493116858722484,0.0007773132588253058,-0.01255815470643915,0.03575695826129679,-0.0005866748588024065,0.0021984221038881266,0.014703673565526227,0.010804468300151585,0.004357058541672694,0.06927681622891155,0.0030731199182280865,0.03302226793308756,-0.017847693135722674,0.03391934398257936,-0.04509725570865539,-0.030727946715773696,0.007529731898966806,-0.08578653301383993,0.0785435311297688
63.276649475097656,1.2581024169921875,0.07134183547746124,-0.07531130626654672,-0.0286869310888746,-0.02055079103041937,0.04360603920052907,0.03650899572287921,-0.07909746251296547,0.010125415412657128,0.04608107124277366,-0.022446770792161175,-0.07917677138014258,-0.05003934094401109,0.030772115855900953,-0.07729182603974113,-0.03925555987930712,0.09966110156032446,0.01246819341810204,0.10215673000724193,-0.02020737716428385,-0.0035205872909502113,-0.0387924640659592,0.033519466816244126,0.015067112578667056,0.004058884640715202,0.03892599738220974,0.024028706626802007,0.025373830914268033,0.03039793030667221,0.009772535014557446,-0.04220973175230352,0.014342773845704837,-0.07760451440996527,-0.037832799990987584,-0.019989195469330923,-0.03072401205443625,-0.01899573736438912,-0.045687478082478555,0.01771888777309784,-0.04575725345551315,-0.01993150207323473,0.016058702268519746,-0.023073612790636105,-0.02869010893204993,0.05069365707655718,0.04383635842245786,0.10192549428648784,0.04923754799842882,0.05480837642707746,-0.0034462247233637503,0.0012178016454070899,-0.006480158438554061,0.04395673808200353,-0.04997933921749167,-0.020310392704338626,0.05230802870330111,-0.012243512296017653,-0.056002836049053255,0.013529865473777644,-0.02140662658426998,0.012153254348233621,0.06075313809149793,0.033828287784186145,0.023924780639293763,0.004440765058394952,0.033948476178126456,-0.03964321005228967,-0.022537492779675095,-0.0031674678859916604,0.007737771982270737,-0.021213364062728952,0.07551283389718066,-0.01734757381352895,0.012211284618230657,0.023627208622877052,0.024498550926910764,-0.032310838376865096,0.04637236414488892,-0.008312412566361756,-0.01752387379465921,-0.08713938957745443,-0.049516049085777655,-0.002523807160225068,0.041907484796533445,0.024106763051862767,-0.11612110226740355,-0.002832589197881112,-0.0016697398277861553,0.053815149472175396,0.00634154391143673,0.008150639929183351,-0.0672924745832538,0.022190423985501403,-0.005975473290120589,-0.0660940093593047,-0.07250086745374984,-0.026488215707435148,0.003299598045710641,-0.08190871854282848,-0.131677952073326,-0.04968923911017656
64.53475189208984,1.278900146484375,-0.06499467053604317,-0.07578568154515315,0.06965886473208502,0.03436394716061396,-0.12640466904447362,-0.2331325805727724,-0.09689431297980666,-0.09540490648241871,-0.0656133463171902,-0.10000042619108786,0.08414811909773356,0.21844974594995836,0.25656676235709364,0.013140012887651598,-0.060923590486689765,0.04176098813700302,-0.0733730165284074,0.05986088129399907,-0.09074942871048655,0.10366329005029051,0.008792963409636787,0.08593859765673276,-0.012677549965336394,-0.0777149237897649,-0.025098954274462522,-0.022421173677513777,-0.003389179937350221,0.0015208460987421743,0.03452813848438415,-0.056809700438962926,-0.0026081531168917014,0.04121241408591367,0.019320955081232466,0.003032238588311065,0.04932654471449333,0.041340486313195715,0.03665205202557223,0.0009702673993097089,-0.00011418083241549956,-0.0007121335657053192,0.061913500972368155,0.0007783800275087691,0.029978810456304662,0.06258978548919947,-0.05413438676143641,0.030280081178251508,-0.024569173099480823,-0.001365502572517516,0.0470031894420188,-0.028225438084341234,-0.02303256814043754,-0.05422837761878453,-0.010734542866750782,0.029979057471961765,-0.01812335929424229,-0.07583314086466134,0.002047767817790966,0.0960963030567515,0.011700239765879836,-0.04924659200950271,0.043078999756548456,0.0012405601580054437,-0.013572756074918452,0.08723300060182147,-0.008399472851504221,0.02292232261662487,-0.02168031177912279,0.007118832476111981,0.05618847142629976,0.00826131137097336,0.05420862103619844,0.013967667039375402,-0.011467968728431015,0.0848724497959541,-0.05514378312453914,0.030746306818744643,0.00712753418466096,0.006833686181359613,0.05104974681878421,-0.041389810080605285,-0.010212145105740863,0.016427275082993242,-0.0026938974110984203,0.003845435561376163,-0.030203472516483705,-0.06946844810031665,-0.005488840887480476,-0.016489041899277444,0.015312116788514143,0.02775361950866668,0.05444534000364555,0.09742898412058436,0.02864075370929827,0.06939475864167141,0.07660016920779825,-0.027833875264638666,0.10124222320149173,-0.015820452495083938,-0.19221038763093268,0.07901462315001244
69.6490478515625,1.158599853515625,0.04240071733418043,0.1635345853545943,0.07392441627014007,-0.009644168673192672,-0.053555248059015036,0.07115790443174379,-0.027448065449345093,-0.05603738248476158,0.06540104564509372,-0.04405082747338889,0.0064287106103607106,0.020284112747236682,0.014141254783188473,-0.01710182933730267,-0.01565338078804193,-0.044547062446780805,-0.030433358175465424,0.07808996775109785,-0.01358630408660556,0.002702255308443901,-0.007729930754953079,-0.019802402813010708,-0.0011156327945658806,0.04038234412400916,-0.037595890829366166,-0.03485566953071099,0.05421362342613739,-0.04322375160190918,-0.056363036462891106,-0.04235038927896472,0.10562963935267485,0.05905735405874112,-0.010211865533188825,0.00530672858544573,0.02383932267059817,-0.0028071053337661266,-0.02904450416843062,-0.039005077483852714,-0.06603990280852608,0.015246333887044253,-0.014103473124639552,0.03739598270574766,0.01776669913485755,0.001383179144829362,-0.03735186625170227,-0.01544219206703691,0.035529064641682456,0.003826568927972421,0.00288408246988416,-0.026750473764205612,-0.017738626410532355,0.018497664684867438,0.028787350904735713,-0.06305337656240569,0.038190143550762,-0.010811848531268016,0.03829006285349337,0.05816836546282266,0.023036110079883838,-0.08454631002547103,0.06664463395193354,0.016838018739181615,-0.012248683253553019,-0.06594727890927633,-0.039621329858307144,-0.016383396079964106,0.011896524831674693,-0.0424401842836029,0.026515704857229608,-0.13479845671199034,0.02010799449272457,-0.0680047548096866,-0.048988386106312516,0.007502765596493309,0.021455831245540527,0.03731470823255758,0.08373071065101442,-0.0013454447432594274,-0.001247528757890241,0.008248437201051955,0.05980505894467704,-0.013167667988138109,0.03152230451130455,0.06145585783406145,-0.12270692685339499,0.001894693012749693,-0.04143046655563936,-0.014548578622721898,0.0501958375095181,0.0472775872533864,-0.026251246486140287,-0.01786469385214487,0.06105399247197918,0.06798330582997127,0.04155933203313033,-0.009947460247951427,0.06296407354554016,0.00016456388526893406,0.08266819540726189,0.011232562753829695
70.80764770507812,1.2089004516601562,0.001847136933879362,0.012503440121158359,-0.0970534916586094,-0.019036108006110674,-0.08221118389902497,-0.12533232499235383,0.03908056917479843,0.049945676508347116,0.04145459408080711,0.013299591998414972,-0.034550047467952594,0.04741679801821941,-0.0041236791450763935,-0.04028547243183818,-0.07353331259754363,0.006516686627736613,0.022973714770936942,-0.062140201142411734,0.01765765971250344,0.009361140803490403,-0.03004940547773296,0.01766855781836964,-0.05707819748303705,0.016184762806206683,0.0034205016313021627,0.031387752514488935,-0.022568656516457092,-0.019455076587139044,-0.06534518082827567,-0.01591153472613816,0.011087907070085383,-0.0015125638089930303,-0.027610911926380065,-0.026598340300079217,-0.01870515366429714,0.012923578097115515,0.010462466005323533,0.0011133187095905828,-0.05119044708199366,0.06479577160834077,-0.0387704834115057,0.04958773545770851,-0.08756622544432033,0.014365171940150693,0.008466521943582508,0.015373176416069998,0.018327941463612725,0.04478581364647974,-0.010701064699026963,-0.025215598263703943,0.04283383347365127,0.050503511525751756,-0.09819278087522293,-0.07918717738666217,0.03127435409405142,0.04121117245160172,-0.04310514396130022,-0.06704655499881988,-0.04556958806094398,-0.044176662518085844,-0.06712173865409835,0.05917384036739149,0.012476755626474618,0.05758983111737579,0.013855271935677094,0.037013951408171486,-0.05446075997309028,0.06294162472627023,0.02653241654990378,-0.02230057193348975,0.017287996747857137,-0.022900831130065233,-0.038776012336407234,0.0024094386820593962,-0.011487936616234356,-0.018075167464383993,-0.03816403134877735,-0.010231405707457153,0.023568028379802996,0.08890394433201976,0.001683456195892608,0.02894791238654832,0.06823138935703203,0.00044726145679631346,0.04575996174103217,-0.00033855065911819163,-0.004910097750012581,-0.0007701495123520315,0.008982182534535478,-0.027131550453155864,-0.046840013998618854,0.051781817491398714,0.08937859668870676,-0.05446323553156654,0.12431347439552927,0.02141404812114048,0.03853373169715272,0.017261460626939874,0.06518249726413142,0.01593145423958118
72.01654815673828,1.2583999633789062,0.13789155788474056,0.02877433861460625,-0.030006890863349588,0.03634651635659864,-0.02169132705102569,0.08220298912968065,0.09321119015219652,-0.03330044732485408,0.16625237961917522,-0.11138690256706038,-0.1478737059480974,0.045824090304095,-0.012783729778701838,-0.085653730639948,0.02340826350671888,0.013010732938251827,-0.09756816553953251,0.042991110519466774,0.023114606215637417,-0.10043529938198593,-0.03228246686319959,0.021260763484799283,-0.05132106037263619,0.011853547238865142,-0.0036835858781551984,0.024476995472082118,0.017349120211766628,0.04029625114186047,-0.06190603558684129,-0.0021873215531845146,-0.03951696485150513,0.032907245451380907,-0.007601727037842877,0.00043587370412500985,0.05242557362409088,0.08152054900865699,0.02084618710539947,0.0021904343944355795,-0.09355313613289755,0.008940584913131024,-0.01773908636852679,-0.0044584774950245125,0.04525815907458072,-0.05379497269025518,0.020213503932641198,-0.03731540264409024,0.010614501169858587,0.019961762703901185,-0.05500089362648179,-0.009127699185492449,0.038074005008461725,0.0013353934913089976,-0.06885590321613408,0.05215201948783803,-0.05144160824399428,0.04826880640575908,-0.05114926849590597,0.07262238751925376,0.010096749495223399,-0.07672045330136558,-0.006322939304493381,-0.05740984788834607,0.010934791640142369,0.007128560242414324,-0.0831853041244677,-0.007297428516929619,0.03507841333514287,0.05181747971876528,0.002054464543434203,0.012529565718857643,0.06526578683221149,0.05446153503177226,0.05971085582932622,-0.02058759991705023,-0.006805132398218065,0.08644992361159061,-0.004650315211169666,0.002131571604041754,-0.0031803950356025655,0.0196171870724288,-0.0021188010607355173,0.04011859644566807,0.019889996053547698,-0.06236540634219094,-0.0028879742430907504,-0.002115353563151229,0.03372169323402552,0.017149285207910796,-0.0014830461312861267,-0.004544270727294041,0.00488983730283338,-0.021782913782928504,-0.12829092773284012,-0.027871620903692336,-0.09090233810917078,-0.039529043852744424,-0.07635194729068438,-0.021545569469778564,-0.03589318181981953,0.01886631758601902
73.27494812011719,1.2686996459960938,0.0059065555768819805,-0.09119544994184388,-0.014710064793842868,-0.008766102955012777,-0.008521962358328737,0.07243044722023013,-0.02179502352522855,-0.08762920203389113,0.023179119565305502,0.061518116981533165,0.016356314349873835,-0.023695472813171366,0.03333457176338315,-0.028893763573646675,-0.04282927118048303,-0.10086191033259345,-0.014631613217007186,0.05721009673016126,-0.029531926419050673,-0.027226418777812775,0.007774244263322735,0.027569797218001606,0.0191791478054011,-0.035912137885120377,0.014702290520352494,0.028358982216546993,0.014448048812467444,-0.053612512191065505,-0.04430854531973011,-0.10962877083539783,0.007512186131721436,0.0017352220247925513,-0.07660845275648123,-0.010670089761655198,-0.053919488646807096,0.029696478620082938,0.06744970259371136,0.04933225898714762,-0.03584130757327834,-0.009899511853401068,0.015377010046242636,0.021694281333166133,0.0023302040168548116,0.009723679859060901,0.06629299425549429,-0.011103387909681961,-0.0023998620250989737,-0.02611367399093271,-0.0505741615266569,-0.04096503259858059,-0.07885981265267972,0.017369823829443812,-0.08290411203952155,-0.009478297010936425,-0.03172438446968602,-0.10568846199272267,-0.03195816773054045,-0.010021125282423039,0.010955243058245107,-0.009080355834924975,-0.03662523529177088,0.040524688259935396,0.031601725472701445,-0.04079101324101563,-0.06010021688729798,-0.027930721581540287,-0.006952997691472895,0.044304142723416345,0.059439272090209286,-0.030743502625168596,-0.07932196836021661,0.013540290938709218,0.013657405175266495,-0.05556434187661922,-0.00761613402115853,-0.058662495384749075,-0.023894770585709945,-0.017876532072425327,-0.017228981915705557,0.0011801585720327967,0.0011861283314760745,-0.014286011651332014,0.05252428590667906,0.06393833627612104,-0.04522320689013423,0.03734697578261219,0.011961074097265812,0.0783899252214377,-0.04625461446166529,0.061339960582958604,0.0654757733858833,0.044813481936810985,0.019925982926762523,0.006001345602880601,-0.035106928935075034,-0.013736481507262982,-0.012971723683553746,-0.020834336283631696,0.010957392077167671,-0.06229173914555027
74.54364776611328,1.3687057495117188,0.07315793315386358,-0.017142896265422872,-0.044526731425353336,-0.016095787561315106,0.054480266455892074,-0.07568984660290255,0.07516591890012866,0.1002188841867795,-0.013462002780447669,0.03798219983177663,-0.05453323638667703,-0.061081278983571026,0.012920551138372469,0.02131741973078439,0.08130448046475286,-0.006682668025158919,0.039238539280108085,0.04385112719168754,0.01985993181368885,-0.011906607853563933,-0.06699049572733423,-0.03762022431213941,0.02118357241098838,0.027817461103864547,-0.07848377826230703,-0.026027905894071657,0.07315838987751017,0.053005012367956676,-0.087568069171022,-0.01585919935695774,0.0688092248269239,0.004776074572672322,-0.000912517079093639,0.025145579620904582,-0.003807804430949996,0.029218537336197087,-0.0386447158856503,0.013132720885558967,0.006927966687338374,-0.05873389069154581,-0.043653279194086826,-0.004392682746735288,-0.005887958201355922,-0.016470477293387676,0.011407787500399523,-0.015854532094427515,0.06111593020621175,0.04016568746428579,-0.03301772636914818,-0.03105436850403498,-0.01132947374285307,0.041968198007137615,-0.007804420071266399,0.10339501922613038,0.013667300909456963,-0.03336357697065357,0.04307006496679934,0.08524931729200738,-0.013650584096888678,0.04827579521559673,0.00532225618924817,0.014906003886455814,-0.02369302252302067,-0.04668443270729733,-0.08403757100161022,0.0018830972938437649,-0.012162359467354902,-0.0035124199988304516,-0.04997407678365117,-0.0451065094282133,0.030441961800383197,0.07132009483364797,0.0038155954847023943,-0.0019241218071002143,0.01184314365511462,-0.060528562044210935,-0.027425917460353395,0.007309523446054449,0.004508987371891995,0.020802588421648224,-0.0018544846250390721,0.000348583924591075,0.006445852525449963,-0.0007493049879471761,-0.003947381340383709,-0.05247539827351005,-0.027171969526103512,0.029044117662152077,0.02239587920243038,-0.0025843670964888666,0.02489805174101954,0.009237821684343204,-0.019706711730885118,-0.0519974972784486,-0.0029307291298669392,-0.007923578752622184,-0.033307068975601754,-0.05028577209334052,0.00567159082783957,-0.04955792799065906
79.8177490234375,1.2187042236328125,0.10255790850732563,0.0744851484698626,-0.03594061625258353,-0.08196276172810568,0.1821745971801422,0.04634762651170876,-0.10965408156848087,0.06877706273014714,0.0816845022273929,-0.09989612100379375,-0.07865612927579702,-0.19803154414329513,0.013475163647145086,0.041750858967188,0.08507445454444879,-0.05863641837203024,0.04143944223526169,-0.02243580300770638,0.007312498487654046,-0.02877995986598203,-0.006947864110963695,-0.010782717037917569,0.022830555080689183,-0.057223191398884814,0.051367798513248505,-0.04460860882653021,-0.010977887110314005,-0.0630552486005482,-0.044489950051722724,0.014041199140178803,-0.06873091388142809,-0.009227616554087029,-0.016827535756701175,0.0210798521976589,-0.06607386144021091,0.005752604291502282,0.032779533528751466,-0.06951202393042011,-0.05730627647319954,0.04456239793268863,0.020649605796600565,-0.010342960812774624,-0.024025274577638624,-0.016578837061026284,0.05925993758905569,0.059742132758744765,0.003133812185479125,-0.01561813923084647,-0.06452943960959716,0.05388237922553735,0.05390245744054231,-0.01966233941521306,-0.03188894985978646,0.016845305093537134,0.01606983149409472,0.021690230175327726,-0.002705071304723824,0.04014122736334381,-0.03435521351951936,0.00010008627821457561,-0.03200341960322993,-0.04646553134440855,-0.05371536333386314,-0.0026935915592604266,-0.013074933617963726,-0.04105364586358114,0.01975561628326262,-0.010881939217202569,0.0015112187923607017,-0.018284043277086454,-0.027851052852603038,0.05304704374159304,-0.008461115100822715,-0.05063759808295717,-0.07345848779161451,0.04771351034544675,-0.10138303074823546,-0.07629987262536592,0.03868141968354216,0.02036765745832714,0.006488279423237098,-0.0073066375005880245,-0.0026773888228125023,0.0036964993452990877,-0.03367091346479405,0.04601602142302791,0.08492683021717941,0.005600042412341281,0.010082318297776935,-0.008745176674554517,-0.005640049019991895,0.12370303447971928,0.02919898902536433,-0.05990401421858488,-0.005253187345211499,0.1623827289204149,0.006891981877003003,-0.027905918185415865,-0.0344463932048005,-0.03607337669788573
81.03645324707031,1.1982955932617188,-0.05159678365901511,-0.1521971731724697,-0.03814896038314261,0.06248930473051083,-0.025014692539627157,0.030443426042588036,-0.0028615557693832862,-0.003936678719236968,0.09484203681343042,0.003947826101641938,-0.1890116774748472,-0.13603843510038374,-0.029350981506106807,-0.060694315582905244,0.09233691276437707,0.02618034697889877,-0.04130959098087493,0.04238368356511699,-0.018123492476769722,-0.070854889908627,0.026115503610443305,0.030714968985519658,0.05492127387189863,0.01839282873128135,-0.0324136824621241,-0.0805077082219042,0.016019661563089642,0.03580699869235732,0.03422465991629366,-0.003969059873218892,-0.005508955280935208,0.049514405846182885,-0.010688828534457942,-0.0029688863988837637,0.008284650328606223,0.015933858860316553,0.03262726726350948,-0.0017906097672628048,-0.01733770989778435,0.04363218810403643,0.019014866672454646,0.004690137813506596,-0.025401552039489295,-0.00011279172735138669,-0.04545903809278496,-0.01082688322692964,-0.010090816351942906,-0.023025318112049425,0.00605061046233178,-0.03795428744157259,-0.08399553021528328,0.09016622010145756,0.038481345499292094,-0.058500619176101734,-0.04122780530759593,0.012299929879742561,0.005801628922660937,0.0064810583827487386,0.06883225281941144,-0.05856539495540526,-0.0279364337974209,-0.057665407449724565,0.024016699078417428,0.04007267671934876,-0.03471424099284479,0.02691505249103068,-0.05045011678050368,0.058508714250603285,0.057965116433467544,0.08357123835630473,0.06750705156601831,0.016999996887044004,0.051499984429766096,-0.05150558459643078,-0.05580981846362197,-0.014378248667806917,-0.011854920380663075,0.010216364483702306,0.0655045928169209,0.00215301555842812,0.04044359387930428,0.002413397978968633,0.009730411749877012,-0.005123413120661794,-0.04021502936905649,0.0018926629548015562,0.005457214657756669,-0.002753831636176457,-0.10682323976812848,0.05118253231607206,-0.00439754773337106,-0.01720544261173316,0.024693780773709435,-0.034155825328474776,0.012464758389262594,0.04797273761415842,-0.09559072973711757,0.04280902184395993,0.04262493492538191,0.04869172878420197
82.23474884033203,1.218902587890625,0.045136695423154585,-0.00932674364069291,-0.018122353853687132,0.1202040213783445,-0.11658434609748818,-0.1986209887360865,0.004006399789747837,0.08209310131187438,-0.09635448226270885,-0.08389285578837204,-0.006008737412479233,-0.02986748013801007,0.031969185841117985,0.021767623486283857,0.01922715967975333,-0.0732909618058373,0.01145410216826851,0.04578857116206233,0.06539722815254576,0.014162925924036382,0.028080945128634988,0.03129075796814668,0.10274120696059297,0.06435620748758417,0.11128310799341971,0.002391769447856101,-0.010176371536674295,-0.04053351943939163,0.014083528155190636,0.02818012822627156,0.0018967189642228807,0.01629923386723353,-0.057423215341406,0.021743274236995996,0.011905205995154771,-0.07842520856640975,-0.04717419774536714,0.08468141152709575,0.06917283255261145,0.0758640470918306,0.07124068000705394,-0.037675066785140744,-0.018666778521365654,0.011785379245803208,-0.02459466378815656,-0.009602320253487149,0.0006024286536041711,0.02604555594303699,0.024269461727666596,0.033821938667834596,-0.0012827591384586938,-0.044887423948710405,-0.03419087515062758,-0.08083568053710669,0.06588213152984672,-0.09310001332865668,0.023728511853071826,-0.04148706165196123,-0.08705105609621264,-0.010444636260559276,0.024656117483939553,-0.03822453075432534,0.02668722241081808,0.03547211558835742,-0.034680448846616474,-0.023883369235676726,0.054189854353114096,-0.012346167123185502,0.022169395429105343,-0.01031392282878304,-0.01027519855370988,-0.04188024878650284,-0.057275586242220566,0.013844010549572919,0.005425850724964737,-0.003325805935952734,-0.01958355319392498,0.0007414440358206689,-0.007370813657197972,-0.022645911948696494,0.03161895725070237,-0.04197877980750393,0.028130878185080456,0.01119831146227223,0.046285495483871314,0.011008268025891986,-0.0005829568764498811,-0.016588400967833622,0.014228820255606522,0.02882409212036073,-0.02236954141508185,-0.0016323721955190328,-0.06968023999274332,-0.011782066991954387,-0.022501906430968818,0.008908927508900169,-0.08087943716613244,0.08247650617871655,-0.01013411818046231,-0.046052836861274773
83.45365142822266,1.308502197265625,-0.053663876438355726,-0.06668670820325974,-0.057017934223339777,0.05176113523313649,0.012786030975199873,-0.09303346096561606,0.05986284663661073,-0.045287071112167586,0.07285208744092826,0.026044422265337597,0.005217220398805844,-0.016273468200694547,-0.13278747412601513,0.047494850464911045,-0.16657673501286052,0.13003548893965233,0.01675879406666124,-0.041972570281160526,0.06525505157523817,0.02088871234915955,0.1042392950234886,-0.04229521258159261,-0.018544027326717536,0.013261421740248858,-0.10968697401561359,-0.08392289656968593,0.012275207344230567,-0.03864987444036915,0.05824767234922387,-0.0017938545759283372,0.03712972557212106,-0.016253791507252712,-0.013037325368495126,0.03295849760565236,-0.00045964891651756323,0.012446268037851907,0.03435865112804759,0.041969359152998625,-0.033096820662832815,-0.0004184477544170928,0.006434818200876345,0.008259722216588002,0.00945544516796375,-0.002109266994710324,0.025453556354721015,0.050715858921112966,0.016078987328982917,0.012355389795207498,-0.0013651761800416349,0.010453534740616378,-0.029835427228188282,-0.04472658518288571,0.014263843816000363,0.0029824700786650372,0.017613391878339102,-0.03059088051402614,0.058219459877251606,0.07505830037261442,-0.0484397517061161,0.1005981361186209,-0.05217802747020896,0.03701247744935013,0.035665378900405824,0.04178428969118439,-0.033070186808693974,0.050944439411185795,0.024278079437805168,-0.012197262342490162,0.03665743543551371,0.07017853420546893,-0.022941881653838057,-0.05153148037534408,0.07956159867924037,-0.03148336757541755,0.004048024239962079,0.050488831123332675,0.006938440377561165,0.0060973957508892035,-0.0013304284643893985,0.0005336538535511599,-0.00020075977408349932,0.0001870428189727856,-0.00037298046932222276,0.0003574558257271855,-0.0061573434662032,0.027766952245750792,-0.09881906801736372,-0.017085304906962633,-0.0906645012863011,0.0055453738238121645,0.0011989221224725844,0.025678824511844375,-0.03885358926767182,-0.07384848027878751,-0.034159198594782204,0.013890686153164671,0.0028577209174382636,0.018480244681992813,-0.018413996801465916,0.07605212511844761
88.837646484375,1.2186050415039062,0.08074709670187998,0.007120435429652791,0.022839673295605874,0.0070655909992154405,0.04442456421859399,-0.08419413694863079,-0.0355251996350309,0.07733591037489017,0.08003485804180309,0.10210481956286338,-0.024758700065148395,0.017030076984899282,0.075002768461615,0.06760922448524062,0.04175144867109246,-0.01201672656170942,-0.027433120312835648,-0.04648684987360943,0.07743960512061787,-0.0005255444353856574,0.056288051925311444,0.05264743396283558,0.048908991942389464,-0.006026685987605564,0.015908462958194945,0.019308135581773293,-0.0054660390992777586,-0.00861463008121338,0.04977233416009844,0.04729026791056718,0.02633847229997756,-0.0018442580144520347,0.017240464593365198,-0.03306017539381632,0.06435146953864085,0.0191251131611318,-0.0109071774153702,0.014426371145096189,-0.009987606623056353,0.029692001882392217,0.04879125749109109,0.0319552770861062,0.019193365444911823,0.06911618088934138,0.013926269956703877,-0.07894671423942763,-0.013685559690444304,-0.005038985954271555,-0.0438503584341573,0.007863320020005326,-0.013644477284052109,-0.018638761291083952,0.014914916591602441,0.015468026634241128,-0.03032515226156217,0.027438652258301013,0.0009290055793567937,0.02425887633239804,0.0039059713372612366,-0.013508981141329857,-0.047941034945359076,-0.05526207834504921,0.019605482610939768,-0.00034934688179127774,-0.03642378074267154,0.02127216678772063,-0.027743057423559238,0.09454795404190855,-0.008839641296048768,0.00036759803895404855,0.05294887769074552,0.052167330229518326,-0.043892895842022425,-0.031774271238345884,-0.023565332900655298,-0.0045777980935675045,0.0163180907473954,-0.002893767526685702,-0.026216386035175766,-0.099074985255166,-0.002360815155347184,-0.011898094432596455,-0.0922365698827973,-0.07997469534124668,-0.06394810842140575,-0.01958882827226146,-0.0015585150144249065,2.0986925385378316e-05,0.004505043465102015,0.008140770166489047,0.03814648786203081,-0.12565740045194154,0.030167818862373796,0.0036432486419483005,-0.06147516318759974,0.0005783111589900821,0.0221636642749799,-0.08724871156850986,-0.08689271512153847,-0.018661252105400844
90.0562515258789,1.2285995483398438,-0.03336751840341311,-0.05373925911385812,-0.01790501209179853,-0.06766950377896078,0.05135736191356539,0.06434140089707843,0.01075546264582247,-0.07031405211087491,-0.030106018925026477,0.06630995891244675,0.010294061854747572,-0.020357618783269846,-0.000762305579042867,0.050791297806420076,-0.03540015222047148,0.10784958780082779,0.0036408134542800195,0.06303914517412958,0.014028252355356903,-0.0404566595784022,0.02034018316617453,-0.028283434608786472,-0.00244638378250369,0.0009792698577047749,-0.06183889657645335,6.621053203276927e-05,-0.004885072161782432,-0.0015518786360023892,0.004642875505000442,-0.04004024941345926,-0.026498562946601918,0.020551283225708067,-0.03442851587423169,0.03019622940917284,0.0017461595404506891,0.019904548500375947,-0.05648258267486899,0.00937407160537589,0.038644267500973335,-0.0002061946342914638,0.0014789986008617098,-0.014124784006671508,0.028785229691322453,-0.02195031005901265,0.004092295280349459,0.029771076550435184,-0.035734819966644404,-0.0612851432644252,-0.03603424693728648,0.0676689696016271,0.0411042227809781,0.0018810057977516055,0.0023046698471068123,0.011516798245936372,-0.04275676456752996,0.03940891967228386,-0.04885991851402727,0.05979156694118426,-0.07579924612532819,-0.036746848301851084,-0.10055315134020815,0.008156741059385186,0.024377561686618546,0.03186948676392714,0.03149751277745078,0.026511865488247063,-0.034331826822963075,-0.1229320391986149,0.0535544060785115,0.0034954433470302986,-0.009942275945328611,-0.07071579862633165,-0.035807330411944005,-0.03189094154427997,0.016880048520461502,-0.11121327249570256,-0.014637378327608615,0.0038954764643521003,-0.004416888589711778,-0.009366121793143405,-0.026719360501650014,0.017330238520079592,-0.010921544815494339,0.0038125555420841853,0.00177300749809145,-0.0008511127890760068,-0.007542258330861971,0.012465761635297654,-0.029761443502677322,-0.0005161056246527156,0.05208906343239643,-0.007665754176071807,0.021782127571639325,-0.07956085006911831,0.013763855878682943,-0.027854863216363407,-0.0388389261053868,-0.020061891737478875,-0.041535388637307484,0.0437938000999146
91.28485107421875,1.2782974243164062,0.040808269480426186,0.002386840053094145,-0.17398733576255387,0.08961502293308277,0.05368664450811479,0.06940558487420644,0.05633580479553378,0.043209064307719994,0.05822330782112185,-0.018293755008520308,0.018825673648347828,-0.0342041940560453,-0.03264511516133893,0.04038439293813111,0.0020305467327178493,-0.06532901026469064,-0.0789657089073691,-0.06970754983065952,0.024819746945089916,0.011535232348642739,-0.07082248772763644,-0.01730637691612498,-0.00526471588120872,0.07041947606306177,0.04311627023664309,-0.03274421376578947,-0.03644771122225498,0.01760642918471943,0.014862490390699267,0.00474552929813835,-0.03910771830164713,0.037596733355039734,0.018130073183115113,-0.023784481043399038,-0.016309972852844974,0.0021531383429364143,0.06951697977361801,0.057282921100933366,-0.03275479956563733,0.07513812277461122,0.06014514841527294,0.00724320242355001,0.008973760939919098,0.04555122016557588,-0.04413983495562025,-0.053069565158990376,-0.032293390928727454,-0.002134904511784381,0.015236494042368532,-0.05665674131412451,0.023414769757217638,-0.06098018477215803,0.052630208117633324,0.07154718452509033,0.03639535169900231,0.12221291915458192,0.05973083106532656,0.04861790658171084,0.043923710882601386,-0.04028105135561537,0.03632576989190778,-0.04881068029920059,0.06789854700616324,0.01865626589659202,-0.021473859141109244,0.030124191281698,-0.0155262397182904,-0.02974657596980478,0.020306962365331273,0.022885359472972672,0.053986239034280264,-0.006449193207377099,0.040123026396286135,-0.04325643971896723,0.08657182646834141,-0.024890499269829242,-0.00019363192564886836,-0.02561211636202616,-0.001372466403193294,0.017462570129311676,0.011672574794863467,0.004250689318704708,-0.003025498600469112,-0.018767824782133815,-0.07585500519564345,-0.0004167180406775261,0.0034455663161645036,0.005460480333279358,0.061828071026313665,-0.030510664447610716,-0.06179912481155657,-0.06845506692500201,-0.029104173587860604,0.004977933887051089,-0.016130560142323523,0.005395474072469604,0.040604866083527216,0.006002091969225397,-0.016353368004233468,-0.041631875821511705
92.56314849853516,1.3288040161132812,-0.051248277640709695,-0.0554121268314508,-0.10748394306911999,-0.028525780009285788,-0.008558945086720079,-0.059970956117439744,-0.027912979234000886,-0.006966065996746679,-0.06953574203424563,0.0643434682710396,-0.004987492058425191,0.03306451421888724,0.0759908978005141,0.005301655425069954,0.005995995261624548,0.04248534996018372,-0.0437083557756547,0.013171574988808984,-0.053406119991936646,-0.028902272851142777,-0.01024231917815702,0.02920143967366015,0.09617293562336379,-0.1266085334451962,0.01061763948292426,0.019518759905229874,-0.04203419030247565,0.03130622701953228,-0.059701393091692916,-0.00844227454543825,-0.014332836069153103,-0.020836714119919657,-0.01590398499886489,0.01523209904201885,0.015546547770279709,0.04616726324873352,0.03561535062812037,0.002469749698361755,0.048739105936791226,-0.025859030629785857,0.02593884932234914,0.07023829227556166,0.02283645477805811,0.02724504654457744,0.03558249642426858,-0.051571562849572955,0.020621961035728463,0.08669810362738893,-0.024484279887965046,-0.032209314348940754,0.027813146204047904,-0.04452014051563984,-0.0494233778166673,0.00561389095062564,-0.04982258709091259,-2.6214252436113777e-05,-0.014507571777449827,-0.11649348854202457,0.024350581393910657,-0.01970716106035181,0.024626292130984367,0.03670950542076978,0.03455528448703815,-0.022909246880465174,0.004587109170760074,-0.05619613679628449,0.010089175485131063,-0.00012486958217566586,0.03383880975900312,0.05244585733333536,-0.006592291941987752,-0.04114407652954944,0.03734647262436821,-0.011164855649650711,0.018217227489324597,-0.032392481235039995,-0.00010027086554481402,-0.004691243427445993,-0.013563554341468949,0.01056572446085416,-0.01618063392442857,-0.0026291049473994646,-0.004179121205296134,-0.036983802546740614,0.008979739716560456,0.007526103938113845,-0.09303454915632248,-0.08436012985193522,-0.0010447979325428013,0.017228205688870294,0.007247170259168306,-0.00547037356694737,-0.04903716770327551,-0.0658380220858454,0.015530144650775329,0.024202913552183493,0.041030023690784026,0.015711609045670778,0.027508607275273832,-0.021886379443681922
93.89195251464844,2.007598876953125,-0.030175539902717374,-0.007472822882133521,0.03322370172259666,0.05444194390584955,-0.08913243984002474,0.04446251579922599,-0.06758743815847906,0.022892307407960805,0.06896022636002512,-0.06392668385051795,0.061367812829028985,-0.0006025427522063295,0.0515737190355055,0.021043765589392537,-0.0020506650703468257,0.03792898101531488,-0.052073851792551876,-0.0058353848817432686,0.02053065963266671,-0.003411022325451152,-0.021053708570540806,-0.02802213935242423,0.08830923558938053,-0.01937420927104682,-0.013239218208674073,0.031907924101976314,0.04593083826748295,-0.004390713526737474,-0.004318476197267159,-0.021925553211713345,-0.049742918220163065,0.029236370504182714,-0.008283616709181194,-0.02551546796564479,0.011374675913866848,0.03773036897356578,-0.014774878525752306,0.021306704793700112,-0.06343480295837697,-0.003572532549157707,0.015848030929274944,-0.08085373605726463,0.08555646040503517,0.00965173752313698,0.008876759884898494,0.019992433404277577,-0.016357688091170577,0.020298129648680125,-0.028954365437354815,-0.0288420142850794,-0.06749879190254482,-0.0010698272605958181,-0.007259133759151919,-0.011328664044926363,-0.018839502160629164,-0.0537822320821429,-0.0219511790776992,-0.09693311273048746,-0.0052123442478317,0.053729833351642955,0.002879976294203286,-0.050629468355290703,0.11279562203533197,-0.047969360468616586,0.04011222682186702,-0.056714800253425124,0.03473946589652476,0.08391433830881329,-0.0028694751639204066,0.002370033606311629,-0.0814605324887255,-0.005714911219398372,-0.03959982760907399,-0.004860459771760005,0.05727438779681659,-0.004536545543838801,-0.0020189904381112634,-0.0025751673688078325,-0.01077844483247137,-0.01331624564136892,-0.01974723346039975,-0.045186836880110194,-0.012935830966446467,-0.0008022372414679831,-0.07800344251661126,0.044410272245740366,0.07903679287852092,-0.03753782826817394,0.003041706183726619,-0.054487139445375414,0.0655859205233867,0.10404469116246146,-0.019804884770701317,-0.012232911856937706,0.004962380890129162,-0.007237013800986862,-0.04650905760049508,0.029125078160287542,0.00847172148261347,0.02099495408330236
98.54654693603516,1.2486038208007812,-0.023911260967307335,0.027074659138522302,0.07228478514100593,0.058855092214536664,-0.0035852108654341385,0.011389721790020811,-0.09893808707899845,-0.05256982379070499,-0.011439064117438953,0.016152046610408345,-0.06262673374730068,-0.0867004063437925,0.004412825312480148,0.014846552858465322,0.08856120152437558,-0.0529468834544333,-0.029849789904135365,0.05100752577477713,-0.09180164147904117,-0.024135532780583578,-0.03586974745114168,0.022130940428170494,0.022608890799395744,0.03274106417468877,-0.026834327758151737,-0.04821636124381443,0.001790300211278656,-0.046609487136430865,0.10039980751519934,-0.027198739128233545,-0.018436864155586215,0.009953677404825957,0.0365072554386899,-0.052411072300385525,0.010928689038922018,0.028822013110525166,0.019640409431472685,0.02665895244084065,0.019094133043304606,0.036729789188217184,-0.02010019593363476,0.08033090446943612,0.03200730498196741,-0.027539808167093057,-0.015257851809505455,-0.02947283005832723,0.04245693527051907,-0.030373509662004364,-0.016710934496629026,-0.019363534102606602,-0.014041640297628357,0.046267357964865655,-0.04808234839550617,0.003244433181789643,-0.007604909437599964,-0.017817920865117028,0.001344269681168,0.021537656500346933,-0.06018895479964763,0.03762810504465086,0.014364195293700747,-0.04225175737142102,-0.03509943708474146,-0.008354572129373732,0.005259068434479567,0.005195363781662089,-0.025193263150641212,0.016403557798434512,-0.0504233382839534,0.03530506482347112,0.024266587060677948,-0.0439962853961586,0.005752189272013141,-0.05408106805654709,0.006926248897361627,-0.022910083449410642,0.0745260728852376,0.004153860599316842,-0.0015961462807142944,0.00011300814883513498,-0.0016200769953494715,-0.04881991083678452,-0.02187884209341557,0.07248149734027061,0.04428477834153284,-0.0014746193378123579,0.006628769208542796,-0.011994189177014449,0.03096327167077441,-0.02069653371428831,0.05772827563522043,-0.016685407425281355,0.01924786710460314,-0.0026702580559570532,0.01172393629801945,-0.0154342271552267,-0.03422687221391999,-0.020743392326980463,0.06221322884549183,0.13061331082444902
99.79515075683594,1.2187957763671875,0.11322341540746839,-0.05934750704145444,-0.12133261861766471,-0.016717830560487326,-0.08225273272139427,0.016817046953705544,-0.010405009044576117,-0.006511868228615955,0.07984803674713667,0.02718190837973579,0.017648604914441993,-0.05152839962355722,-0.013557643851042623,0.059635492099545655,-0.023458763831569498,0.04968880986846626,-0.057315668258566835,0.017066547355948723,0.0267970927000018,-0.018801710352193867,0.06221658553116374,0.010289590292145444,0.023637883506610745,-0.009493559863524004,-0.046850014926534386,-0.04090374709712394,0.03790312493901775,-0.01855406314773062,0.01608932294574501,-0.04015850805376141,0.023208122286332993,-0.012853242835037196,-0.0062934236189611595,-0.0459887961034624,-0.029824662436417338,0.050929694760870135,-0.07409615400165484,-0.035749099132953086,0.008720653773825325,0.061742154304832715,0.017668182529599674,-0.001199950197562364,0.0026452425384303232,0.0071297488630001635,-0.04138047795742402,-0.039526542825302255,0.009233935903240504,-0.005850163672701278,-0.004785462308805946,0.0025504293057786254,-0.031007114012055182,0.009733582649102143,-0.04429960986469275,0.013324928659988605,0.0019040994871533895,0.041465461436771406,-0.01442687781260999,0.01844904852533154,-0.05042206838677212,-0.042511204536505705,-0.05800099765838147,-0.017397181171989837,-0.004789550206413223,0.02628283461931529,0.028429621770735998,-0.009558725373749086,-0.02478977510905528,-0.039893520087618844,-0.08699532477729388,-0.016952310576156204,-0.03873472827784863,-0.07068264959469282,-0.015252315015319455,0.024526284575424218,-0.015769434916822284,0.01638086689777011,0.03436853301302094,-0.007942748173705813,0.07573178084951214,0.07783170259400904,-0.007535135417144034,-0.03834133894891372,-0.055497711348351235,0.04039207774985518,0.027792723763559738,0.0013826552023163043,-0.006564760562551098,-0.019643514192430087,-0.002866292090912462,0.007498719096970833,0.021200945046434234,0.021779519299785364,0.012940221221875993,-0.04695450961389198,0.0023330776837635772,0.013701674660934537,0.07639217309362564,0.023094532570211296,0.0643184740444582,-0.005405544897366606
101.01394653320312,1.2285003662109375,-0.012485823434250287,-0.07843370634623081,-0.10450700166076668,-0.11777572431459693,-0.14517022513965072,0.010401131315706925,-0.03301031203899292,-0.019777977975967483,0.02741701778893777,0.10732925632977043,0.03431229012617743,0.028372561095284826,-0.005362996365535472,-0.02191864059276717,0.027806532998892117,0.00978767292433457,0.023020160876520597,-0.011716920399184778,0.026761091865231096,0.013192761194256948,0.03575939595757374,-0.06074078596984372,-0.0018119441145425048,0.06146863789688889,-0.06183774718396807,-0.046775559905785184,0.04765041689461537,0.03216843852717249,-0.024032002564009846,-0.013694344032214497,-0.05665730805955751,-0.019490198748249296,-0.00667494746645066,0.007341976104683256,-0.033940418492624205,0.028569847725540866,-0.030460207675679092,-0.06893196248116182,0.01034111145638935,0.07170399220680612,-0.04447391711649453,0.009086762144469794,-0.03771365074181885,0.011594872389511235,0.045611198496000545,-0.032464883559232785,-0.0418753836074997,-0.006819305726708988,-0.03205873016982884,0.0020875967990416295,-0.07747032357104539,-0.03436472296225225,0.014157276778575001,-0.001257532837808998,-0.026127403654813097,0.01750274643391834,0.06911586333066512,0.001931893984227735,-0.03444121262682132,0.04429227326118804,0.026004946363971205,0.03233165673073177,-0.03174924580679345,-0.002182738222560012,-0.039636630840121936,0.05150591160857716,-0.07797776753422274,-0.011924236952215127,0.038983734180359095,0.011653185008988853,0.012864779053107026,-0.019024659603495045,0.011056666895524911,0.09144346940831105,-0.043011869535392794,0.003859929442052939,0.012898811041707682,0.02556742159273248,0.002427769973658414,0.007534887556245788,0.060328187054245835,-0.004307743248027063,-0.06955577289552117,0.016684505189326546,-0.007907166056637438,-0.03910873442486485,-0.08919658192745598,0.01429053594552453,0.013221748599149876,-0.0011270291883882962,4.9657641062932924e-05,0.001946437884654204,-0.07903993633096709,-0.020804338414669526,-0.05546451974987348,0.10523457301034328,0.034788160794900914,0.023520882457889622,-0.0366666512783816,0.005749307355841116
102.24244689941406,1.288299560546875,0.003710665136939531,-0.06188325179146269,0.019376399735033134,-0.027816421956579837,-0.09951435625489397,-0.0033387595661405227,0.06057784999873195,0.016351319883541705,0.0885267814793184,0.0548969951717276,0.0206350475677187,0.06239955106501245,0.047408492195492494,0.027381669971913616,0.019320746397779184,0.06517364455930405,-0.07932670521922856,0.05624351750314369,0.05402862715574195,0.020043205472807742,-0.1282414410466209,0.019992569788033203,0.00766838434665834,0.010879868813025143,0.028691529762008453,0.03223426192430978,-0.03834924723592832,0.09418988809092593,0.014056589873937625,-0.04136811247703083,-0.06263412293988732,-0.010100166239874819,0.011565151002497897,0.00484837473541255,0.08380326794567405,-0.028318328633379592,0.00946938637671984,-0.036709644424176686,-0.035213493552356145,0.0161223657690112,0.0004993743368714582,-0.014695875897258598,0.0660165087382003,-0.041480953471481084,-0.0019444851292933522,-0.042160928802867016,0.044875577317256686,0.02432839018731588,0.02939426123985145,0.004728203702119611,-0.008293130013967356,-0.020425338240401457,0.004273289448460158,-0.024387915229322155,0.05504579627766899,0.001273346748463411,-0.030303544903241435,-0.01596317538585253,0.0008103720498838923,-0.040433341286221045,0.021004381533574153,0.014174006414347781,0.04645950742215968,-0.015040389473116318,-0.003749368638837353,0.015459093491002352,-0.04184202015584564,-0.0038655274478470864,-0.01933810871815185,0.01588531073903283,0.02297304035169503,-0.07608559572797,-0.022182614371678414,0.0110758023700076,-0.03807759026723372,0.02415197715709854,0.004639554042044994,-0.09858160124021173,-0.048224874820710396,0.003951165726480152,0.0013640553105846017,0.011648418638013604,0.003660421042401738,0.06788631820516959,0.010557197783474442,0.03535013539162571,0.01061269169946034,0.007903147706244281,0.0331392602793138,-0.056836374524729324,0.01508980921302614,0.05403592895952876,0.022567831374393613,0.04879873272877955,-0.057940380865581224,0.0050548751879088945,-0.09347897064083932,0.0612502765376554,-0.013779592360874234,-0.005419352815581882
103.53074645996094,1.34820556640625,-0.02610076973721598,-0.06872106221838963,0.03741514110541996,-0.0765669968571601,0.12060708341857701,-0.07946477497069135,-0.03411537767813813,0.010730658286364957,0.09666349218028003,0.15310857033044864,-0.02365274088138266,-0.0334320279108477,0.01723719469591287,0.014467571809905367,-0.03513038556659447,0.0994348375740158,-0.018499054522945743,-0.025602198911291944,-0.04762912428600498,-0.04837859730102005,-0.003312386981634578,-0.06159954694766437,-0.1248018515530054,-0.037308307809134474,0.05333536413500816,-0.03238284939435909,-0.04648956753001577,-0.02552960421725256,0.0567830510574901,0.045164545431488026,0.0076524827400672076,0.04214170991603704,0.016229884120855916,-0.041643634829526203,0.03225313060503214,0.0422563873475611,0.017161830800343728,-0.04632311307416334,-0.0010912825918873515,-0.0030722620213482843,-0.05429365853346221,-0.003023913532978595,-0.013033127475747438,0.02218809084255932,-0.022784350216327624,0.00378940648208075,0.009136311152122456,0.02056376539036683,-0.03544238057069629,0.05212901726073447,-0.07140398178063717,0.12360914019298674,-0.049317836315052696,0.025842917306845972,0.027473112972110407,-0.0014774574520311085,0.0529075475452785,-0.02102464896973319,0.0050089060347800075,0.07071855157050524,-0.046740168822757173,-0.030011525889468996,0.03492896935868534,-0.03184537313130045,-0.04469357260279553,-0.008246878451326349,0.024778455835685186,-0.07483246752734529,0.011152257008624536,-0.05029840893975739,-0.010366421166043728,-0.04841272805984893,0.006608059992380079,-0.011042656304117325,-0.022515497243331843,-0.021459306130767825,0.007064893135399786,-0.0032314715840772237,-0.0038995176465536725,-0.05790495505926914,0.01733015787253313,-0.004923166136769632,0.011956476757237997,-0.13277762135256954,0.0017951102282408185,-0.01415659430291643,0.051846998759733615,-0.08079348358022638,-0.00432975367021356,0.01475674095795946,-0.0436409901497789,0.004931544423011887,-0.010448566890925118,-0.0503188510101496,-0.08219406631771242,-0.011345571058874333,-0.01757389687363798,0.030612293258941575,-0.08129579442547749,-0.024185368712468933
108.8449478149414,1.25860595703125,0.06987245554024005,0.06365322046274499,0.03936871348155169,-0.01826708643292258,-0.04149153670132901,-0.020677979979742203,-0.07381584071275313,0.03574790314929345,0.015763108936024492,-0.001887023886001009,-0.06893513371446665,-0.03275592733759848,-0.020227788121310368,0.007075368045534318,0.09648998065337222,0.06536898842476521,0.04241651931413559,-0.023546751827100507,-0.02920659734689502,0.02033605630853714,-0.019032208800247107,0.046603210861933295,-0.025298796694507082,0.05229681212675907,-0.005102647808384117,-0.06556588847025306,0.0005530569465462334,0.008690820414025939,-0.02838858840354584,-0.029018560646109175,0.007522266090439753,0.014775516515408168,-0.007272619195869743,0.00045080672441696196,0.028517055683205776,0.0035111895218094143,0.0005128451020111188,-0.00118582381645677,-0.019827236628700985,-0.020934741540407673,-0.014499141109361874,-0.044350076116528026,-0.008789698051215055,-0.04521433190896416,-0.016741762015984672,-0.05112624383777748,-0.021719556237506158,0.0797091800858304,-0.07287969942095066,-0.015237841956699982,0.04172762054339728,0.05824373452381239,0.042347401945744934,-0.08194621176328018,0.04602546641797567,-0.012373849968459208,0.06029308099547687,-0.09074328203731895,0.0494456749314128,-0.0704486776760055,0.07885761140084165,-0.007859633120742185,0.10766511255727496,0.020961589046467152,0.004228784760792564,0.0766561724237735,0.00044506506459954936,0.008185285044353133,-0.08745179741923481,0.0031571435089390656,-0.036846356563002156,-0.022178537906294083,0.02423163192915648,-0.027687939101513785,-0.06664890100167717,-0.0005563613258451013,0.0024599705365043805,-0.014951743986689612,0.02708025023933266,-0.041288727970388406,0.005905257829667987,-0.046827692287328436,-0.0015440637098134355,0.02153923702409316,-0.006877570808811509,-0.023506560570336153,-0.008961242432758833,0.04751806403442095,-0.0290776225588401,0.06473757075669044,0.028410270148502847,0.050010684585213024,0.058570681113906536,0.012328872714992606,0.06354247774201688,-0.07072175896749806,0.00031388929068084395,0.06330803279403556,0.007579319246042191,-0.011516323900508878
110.10355377197266,1.2486953735351562,-0.014532391351810909,0.004744726238762617,0.004658096711195127,0.028828176053488197,-0.0046579419649793626,-0.03474014670886865,0.0157232498263915,-0.004915298139181735,-0.014181406211838582,-0.05123059359075157,-0.006677868251265727,0.027128510192609503,-0.08100014664247089,-0.09406002859593358,-0.03524568340311414,-0.021640931048950023,0.004408527480748256,0.03790893850325422,-0.0615979444701302,0.011159245323735405,0.010552621081674415,-0.005396044940771545,-0.003820525980173718,0.02365486306247624,0.02576416666167601,0.018566238588698963,0.035572501620508123,0.010214666467113803,0.004026252216871334,0.008381433079296806,-0.02775658905115908,0.01829534823455231,-0.07151717780986874,-0.05376269529753668,-0.027106638804209254,0.024182251991065384,-0.01479623794970044,0.010967864887050182,-0.07690379525951543,-0.002800093499458395,-0.020686357599906374,-0.029620825700948594,-0.019311115416981325,0.10217619010447228,0.03922726947430825,0.02672144835282704,0.028826952619362786,0.007431669826409203,0.04630049655374683,0.0857998046473527,0.07285532350379982,0.03564986364858501,-0.08498820016009477,0.04712856968537544,0.10220501459249402,-0.03448801332799478,0.0034624753533603727,0.02340809499487935,0.013152129668517143,-0.029502476539672664,0.01056947531192367,0.003050417621407561,-0.07584858990047197,-0.10352893783268244,0.0368643982837666,0.02686206921087797,0.012108060214825009,-0.0012275533822914736,-0.012253254375592574,0.059352524190172444,-0.021633779261451897,0.008784559560623517,0.029790089542128237,-0.005615197160656477,-0.012713740671378936,-0.0018311524125147326,-0.027297311282740776,-0.013967024827199654,0.022460867079472584,-0.027108327410640752,-0.04308463516723389,-0.06529750480748195,0.08520006141297093,0.05625992138776312,-0.09505044018804143,0.003351885333417135,0.004742085681809218,-0.0006523818217637399,0.0003008470504542437,-0.0022316638628367387,0.010672420575471372,0.0939864533171741,0.01650227811466426,0.006676979056263159,0.11935443401863867,-0.03267101144002811,0.04866820744204793,-0.05044428580479727,-0.05813045055676048,-0.05372725097017203
111.35224914550781,1.248199462890625,-0.05885474565427119,0.05610761843757562,-0.0006247290638122897,-0.044866095497742425,-0.01555830878382846,-0.00039368395942213086,-0.05042281455269919,0.08553419688029275,-0.07511891386165213,-0.0509679150155747,0.028498750018065747,-0.0434691689351068,-0.015233736276886012,-0.06145858692897638,-0.024834470946766028,-0.013077522776878965,0.020903346530588913,-0.05800550525867035,-0.06310461236932055,-0.06140627785049427,0.060442664911899785,-0.04720833046786697,-0.034910410245241996,0.01244059547959085,-0.009818985034281826,0.006688945264496555,0.08341956317679122,0.00040870787309189686,0.005506624416922073,0.037839037384608226,0.030059888021298962,0.02073756373479324,-0.04504129658978708,-0.030896715163168824,-0.05040014157087019,0.04319172220949034,0.019371376624000045,-0.03138994992978945,-0.030016768713546846,0.04674864828450735,-0.05450903458920295,0.041297301773644754,0.017443290490543585,-0.025247294211206375,0.04060504910361333,0.028754558847832096,0.08539583528688202,-0.0013744357422353533,0.020691265726244246,-0.03326272844915545,-0.005339305856619128,0.08601958543969428,-0.02674181154149898,-0.09593121416651185,0.013725570050192723,-0.02755166011662918,-0.015674176007417346,-0.049942050497780055,0.026688417027259655,0.07171231779871616,0.07957061216199998,-0.07573433259672169,0.0021193038531744056,0.007399133726939663,0.05034335750630607,0.0038275544718406364,-0.007383316900757685,-0.04832562473273816,0.06512065786443608,-0.001652045003932845,-0.013315833866438144,-0.05611080342980294,-0.011642796151220186,-0.004038716784444814,0.04333112212247776,0.009533316534768067,-0.0093807255578021,-0.003613270376691463,0.056143722804235234,-0.025499026253546372,-0.008499927577903143,-0.015283515073996227,0.010338100500484983,0.057416468718732336,-0.0966164299413615,-0.09355570226880182,-0.018656606774997347,0.10014026268295348,-0.051372988362784006,-0.0017547857373625786,0.021889198723107673,0.034837465603792014,-0.08309173836501728,0.03116239028097915,0.06167227583307969,-0.004553191628521774,-0.028459705760547762,-0.04873694584843852,0.0065992044841255895,0.06887109100982003
112.60044860839844,1.2787017822265625,0.06348772422079871,0.031197169366185176,-0.08319901610684709,-0.06097061783430077,-0.10775035333968745,0.007589671630838436,-0.0326685843518853,0.03329899505794016,0.04244215434587734,-0.04921804531315169,-0.04647367464913972,-0.01778223842268302,-0.02027383422793832,-0.013286337934128544,0.014372545685982504,0.014338679285874501,-0.041067831896619535,-0.003052347201355556,-0.015628597786878685,-0.016238622319235556,0.05861239563051265,0.01834226362815231,-0.11138103100764185,-0.02038670030058677,-0.0024469944993312977,0.0075538005490033925,0.016472651762893486,0.00029209079791189807,3.361296238069307e-05,0.010634870073382732,0.05041217537256147,-0.003263959535816557,-0.013475793933261569,-0.06362739440176021,-0.07367081548650352,-0.012223067724403458,0.07097283569092294,-0.004896676727856835,-0.03313671274123358,-0.027091899182224093,-0.0005426962095225348,-0.03880916827008366,-0.04119742885334746,0.031408621650963475,-0.03430885319500737,-0.01922952959636586,0.024601381252001366,-0.005036787549997893,-0.07451781260474644,0.027830602182261095,-0.04706102292123728,-0.0232503395876969,-0.03189047647584734,0.023788349858636464,-0.046094335069561135,-0.004836004783115055,0.01895220502790707,0.008499710233012943,0.051326103043854564,-0.04160974117665342,-0.08076073242820855,-0.012225606304253643,-0.08031870797097461,0.024914087945717013,-0.03102769586721599,-0.06068034599614676,0.017940158212746193,-0.03911858483683156,0.1000565421098985,0.06926693325995426,-0.025550304130787283,0.017469660262644793,-0.09641794121615815,-0.02546607497210148,-0.04649609422934551,0.011653789435444335,0.0514314015774017,-0.025297227730387013,0.025698357102175436,0.040825417207846465,-0.013791628953257279,0.03795384864459849,0.0463213141552164,0.08112381240507797,0.02525397066836759,-0.08009319180764726,0.025918475261292796,-0.0075037962696567284,-0.04615272576259693,0.015947059978903402,-0.009335522882713212,0.023998957094818602,0.02291476160390356,0.006920776877137226,0.0739785346659738,-0.038239201055532315,0.08255039513872753,-0.0030578663184582114,-0.07315173191722969,0.04447179763768277
113.879150390625,1.2986984252929688,0.038588119553711914,-0.017550623742845536,0.10348035237405513,0.049336994794454185,-0.04766132172662189,0.038548708973245735,0.03793106796801596,-0.05664007741034064,-0.004041948716325481,0.03869050477556018,-0.01127076609899462,0.007538309690420408,-0.08691500762577879,0.10672515666550142,0.006042787541207642,0.055886991577038234,-0.04566429929222814,-0.06132272012294421,-0.02372611272339887,-0.008370740054049787,0.0012995749797568394,0.06130699906190462,0.011147631672816165,0.006030285327226031,-0.029863172107727175,0.05071231858140525,0.0025884282710204954,-0.0315239389896881,0.09691658124848658,0.008306344226951258,0.016677934583897942,-0.009838849399624318,0.09194338302110311,-0.0011254261598296579,0.05683869457433587,-0.020420780968528555,0.008018521053385847,0.03463022104836459,0.060796192652940645,0.10652808194329517,0.01588506753745418,-0.02874336227953316,-0.012943300456603312,-0.030269863638197014,0.04036598698170774,-0.041174180868043794,0.031233575306814372,-0.009867719887609499,-0.012730270628356036,0.03437945984168496,0.02714777667353678,-0.03331054445374924,0.006305134651652718,-0.015364048870245998,-0.0030218130844453005,-0.07383620566262383,0.00018214790935617772,0.04505885415324709,0.0060252337130225625,-0.011411389459323011,-0.02551745908568085,-0.05237819473757303,-0.0019661116574571508,-0.007843665064557087,0.08503733962026443,-0.07284758844144909,-0.03282718543101579,0.03667878661233159,0.03469455023515245,0.018943147264182388,-0.042216996251139935,0.03991633370248093,-0.014790716293896,0.03870874087795675,0.006143863624594061,-0.002594673662858241,0.07807040997267262,0.02505161572680042,-0.002882272137703757,-0.06323198556358438,0.006186934310449915,0.0022268940866755037,0.001154731722929655,0.024365563528945686,0.017885340791177002,-0.006271630149297911,-0.003309190100115663,-0.0631743448983428,0.0007417233499444055,0.017014985922837393,0.0012900639533114182,0.00634317589152435,4.8239062567873026e-05,0.017244022676880244,-0.02774528822172081,-0.09169792810670897,-0.03064815516126007,-0.010146273382762435,-0.03439810659869919,-0.030356176236760096
119.3427505493164,1.2288970947265625,-0.06933353687497258,0.07154022899418551,0.033277304293914754,-0.13538739340025968,0.04964343638066887,0.03257258303923578,0.07614745595825267,0.1487515427053716,0.10063635652113931,-0.027350770822296984,0.023631029791124462,0.04089081817983653,0.007031317822051079,-0.031070634930624345,0.06726066140862703,0.01682747302023372,0.014378710876250948,-0.06417259384434214,-0.10203524452839088,0.0052554618292258645,0.0219400070840975,-0.009049347490593097,-0.04278241561388339,-0.010011933196931782,0.037140939078885465,0.02399644741251345,-0.03828761369455507,-0.003476265453081236,0.047770647805073715,-0.007895494567366847,0.013028364778685981,0.06484781659171154,0.03921159555001269,0.08756267139813464,0.018659570295659064,0.0014769160775283362,-0.049209817622861446,0.010054618415250557,0.06167998963944243,0.005818879976698753,-0.005102033412543245,0.011561454178982425,-0.010410624124365723,0.07809651604467638,0.027884731594634046,-0.0558296401499369,0.03854061484429825,-0.03959955035325305,0.04094252163639169,-0.011727121315197644,0.059283531285643995,0.034340581459551656,-0.038395604986132,-0.09016840560400045,0.038973149951462185,0.01329560020290214,0.04107311015094061,0.020984669835230674,0.014784978533749181,0.031373667453959614,0.047430439849450765,0.009845489277998533,0.003698200366066464,0.018786015850255,-0.0692477083498269,0.028282253250112268,-0.034726754100507656,0.018399291340893492,-0.05039668788305966,-0.0062389211389688795,0.022360730471096074,-0.004612485231280756,0.003520709649593848,-0.045177551776661176,0.0012119496945815376,0.00977570332739958,-0.015485127642277274,-0.007836333147202147,0.05973069788876884,-0.07020949344337267,-0.017732228278531586,-0.002491866325812879,0.02459813808508274,-0.007036148165371403,0.04368721424478847,-0.025505837321035903,-0.0009047835358222959,0.03373371480857574,0.008971228193169294,-0.0070561741682601984,-0.056464875595970854,-0.029499032529913392,-0.06495232097184125,-0.023367379600673477,-2.3235082599899458e-05,0.042358792746742535,0.02883946390462599,-0.034063598154253055,0.024456232381190712,0.1054927361801133
120.57164764404297,1.20880126953125,0.10347027436700143,-0.04096672747705656,-0.02239401293917529,-0.004373477585717831,-0.1026859576069711,0.09168293234418001,-0.03380188326622768,0.14868349586080587,0.14059483756597305,0.05264729994782212,0.0545522823370942,-0.06654501654447327,-0.07846836075430641,0.019389802588981257,-0.13385866644999556,0.0008733413178132372,0.047414772831096144,-0.07963517805722023,-0.009492601585214266,0.004967025877561605,0.029009055929872907,0.02225745943082985,-0.07077193063487232,0.02231822531202928,0.00985736768737087,-0.032465954791156354,0.04468833483135258,0.006352375157533591,-0.03680460051021095,-0.0178583848605841,-0.08767842436605214,0.04552806452947977,0.0018689968829291208,0.053540776016728776,-0.01720552883253486,-0.017947832478820678,0.009824402299686563,-0.0425575201412421,0.0303263649051605,0.0027869380975598804,-0.00036234308581439834,-0.01116884144767119,-0.019118701151692785,-0.04942951522398567,0.03615713950680032,-0.0399866021226684,-0.05474211379371448,-0.05096771254674055,0.10254071934222331,0.005732455333096079,-0.05569902614835706,0.02497656322068309,-0.014483897981614369,0.0021444368819150197,-0.0012838970717486825,-0.011773077831722708,0.05433659227034146,-0.059149041772063315,0.06287327715266508,-0.10282904823895635,0.05464155190774693,-0.01126429764798139,-0.003027909664654129,-0.009524616325001848,0.07659911462218942,5.9058996048300116e-05,-0.03330102952919443,-0.02782819033995928,0.04416269834352265,-0.00058853349611699,-0.025890150224676323,0.010706823712586423,-0.10968822538352038,-0.029887389222413463,0.004788241865959667,-0.024593113386628878,-0.02177544504977666,0.0051438336796916385,0.025419759537408798,0.0027880528433807997,-0.01259070068636245,0.003193642377217131,0.005851682708026919,-0.02264575987821708,-0.01579589280451285,4.751170760880377e-05,0.008515034517885281,-0.06450233353395289,0.008816362228299167,0.037819453281669003,0.014567935356649976,-0.02709478181732276,0.03203505808373294,-0.029919453412721522,-0.009231963621139642,-0.03303381765265156,0.05797156733645995,0.13877306144625845,-0.014402483842993134,-0.07204421637742876
121.78044891357422,1.2384033203125,-0.08171269904610788,-0.1087280006846001,0.0889220552304312,-0.13493527892851184,-0.13421897124997773,0.11822761899149765,-0.1445694138798335,-0.07068444513614226,-0.045690549396945314,0.03022484635660214,-0.03803436653238708,0.012016582164631268,-0.05264216835946309,-0.07934921930652983,-0.02297800507102294,-0.11638524482483645,0.045418160571827015,0.018374272398549885,-0.0887796478999555,-0.05631500832833721,0.038591633399837844,0.03273871490027837,-0.010842975590736926,0.03332373351606219,-0.050295732973610355,0.0032781537309159534,0.04503173214598598,0.04753562787990316,0.04874536766048694,-0.022519545981716488,-0.016940749301575624,-0.008356882658624505,0.006119349017476017,0.03703469587117911,0.07923595400175404,0.05185597661489001,-0.016941625424583294,-0.016965293588203506,0.03592799674488353,0.00708432058035371,0.003037351151031799,0.020841798521719267,-0.01537016617155141,-0.019008422715352705,0.052893761187888216,0.004265528637868145,0.03870507561158418,0.05513468165107059,-0.00508785547917353,-0.0021125013396203584,0.04156770041311368,0.0015374670094516901,0.028288855559420734,-0.027221768558485668,0.010757018488502149,0.05438710723225862,0.014189894880205103,0.030952384912745996,-0.026212284876856826,0.060711037873401014,0.017673034260017942,0.08786624574082859,0.017603811506881648,-0.018600593343369703,0.02150860030551688,0.03968924348438452,0.018693419559961504,-0.007770023385515728,0.04315482308651822,-0.007047272647572307,0.07441581295472788,-0.0047120511409949675,0.0712835714355543,-0.05694574397301691,-0.025318043570368445,-0.003287129848274193,-0.0005220292256185263,-0.01950263890521268,-0.0020931952773728607,0.0326868512834383,-0.00944382070891889,-0.05188576778648613,-0.07953136420907414,0.009799368905453687,-0.003342832157141264,0.0024955905627309493,-0.018484227893558865,0.001773136336025478,-0.0035211067781886424,0.00316773556171882,0.04730466791787161,0.01987578946052207,0.12003954192061371,-0.04271266331652965,0.00728153291582733,-0.028475857805207564,-0.0735205268075855,0.04409475733498067,-0.048779637366904,0.007773192352765579
123.01885223388672,1.25830078125,-0.1440160803993517,-0.17876792791358928,-0.008685580573953163,0.08730125328251725,-0.03459291213359529,-0.01146351273303535,-0.08500104452210937,0.11925034083880513,-0.12754090931661208,-0.21514475531843255,-0.02259844480583991,-0.17065383926673566,-0.19019391235941416,0.08237507045918263,0.06320979135006827,0.14538437696874754,0.008885859309136056,-0.028457194832748233,-0.21680751987308391,0.022347279853488097,0.008719999313815108,0.025277895000989394,0.08578828211766887,-0.10462663902580886,0.007702724566759661,-0.031885300982183014,-0.04365660893442512,-0.027757875626604155,-0.010844022239124965,-0.005957650661837817,-0.011027868212177439,-0.030587142715021814,-0.036333553361573,-0.061507952957003426,0.1018415517012779,0.02756079203550011,-0.0695392346325302,0.04163031047875152,0.0394616697273282,-0.016403190134407386,-0.01568467565526426,-0.03922555149605579,0.0583038347614252,-0.03517841369025026,-0.05524260152300101,-0.05429985843308482,-0.055557682088182396,-0.05309098320564547,-0.029182614831712604,0.09205488645320514,0.017256017120507238,0.07296311853880366,-0.04566292682123762,-0.007401163651788126,-0.0009344967506673164,0.029728613146885324,0.05320072250791244,-0.03395371553408873,-0.04222325052671853,0.02589878886203545,-0.05368985176753855,-0.00661817366061547,-0.03412647832152282,0.002969424203796641,0.04162085238824272,0.015225760024826437,-0.010966312283985693,0.033559161924263906,-0.012990011598289188,-0.03979734892112617,-0.0036679590734846473,-0.024315713221092446,-0.025025155436343826,-0.022804789779197133,0.016869509303853364,0.03296899858407247,-0.01330403921122739,-0.011845077624675118,0.017421101596385914,0.02038157717680005,0.00308343920907376,0.011097034573681582,-0.028738743806232966,-0.07931013531225697,-0.08569815360207808,-0.015306997099173075,-0.014874184967285726,-0.04978924633028435,0.03342331695021586,0.009784974874307042,-0.031176874322349654,0.05094693093355554,-0.053817107407774054,-0.01538865573067108,-0.0006795029945009819,0.016815081514851993,0.016943854711135332,0.029361527451419428,-0.04614299373951291,0.05238229618622296
124.27715301513672,1.3488998413085938,0.0377903786768283,-0.048294434835214846,-0.015390167088984441,0.11214203448103766,0.044922344912206785,-0.01824850370131437,-0.03219572461997949,0.17234808636804338,0.026256578327513748,0.04292668680942502,-0.13072149732465688,-0.026321140561141793,-0.010474982654425482,0.08560777453099108,0.005011297091153421,0.13027076211820046,-0.004921002081315774,0.04147516201583983,0.09364915762087293,0.0659535059327436,-0.05370991106691479,-0.05001278138860352,-0.024152110720417667,0.029522221037631732,0.005709001936099684,0.007189392564061338,-0.0022658114294670873,0.06487947114708768,0.004068492910238631,0.03534073346762255,0.051477171803813115,0.010914080134174498,-0.03325405166567848,0.036672092051670456,0.08618345115417618,0.049264472544908,0.027218279948804224,-0.006622716259267207,-0.05193939925847524,-0.04955784723898056,-0.002368673554171565,-0.00046740182005506595,0.0035609433400326657,0.06355987051867226,0.012911659106899728,0.028854869467657283,-0.023630977447174063,0.003788609517543359,0.027444855227911267,0.023692520489396993,0.03889216474946309,-0.06234099785598716,-0.028546868882509707,-0.05403155298647556,0.03266523458772352,-0.026558816572129988,0.06739761080680463,0.022780776996923713,-0.00930874877744306,-0.0071799499674275805,-0.03799009256836334,-0.006905991306622056,-0.01900896115210273,0.03204713050228713,0.004681091481868724,0.014276633843970847,-0.03414594811553916,-0.01119629508202321,0.06851816257209552,0.06562171990152071,0.043136361490635065,0.04330395664949848,-0.04639429355032325,-0.010674034946972416,-0.012034085298171059,0.0003236612428383703,-0.008849484555725562,-0.020645007714619204,-0.06464388004910356,-0.03244410959585886,-0.047450845338158416,-0.08866002805464726,-0.030771557964317776,0.02295126165175529,0.038986440101478566,0.0021880476309487098,-0.003709277946227413,-0.010427036429796172,-0.001197956597919457,0.026458306707298283,0.019827996769016587,0.00855278316545123,0.054530186350571205,0.010163326371277148,-0.07279318557531839,-0.057097195779950316,-0.032690058788566276,-0.026265482945163093,0.006344339746179192,0.011828848514360404
129.55154418945312,1.2382049560546875,-0.05695600201962266,0.031475745003979656,-0.00041234972843244913,0.033582538393921085,0.004030907319858596,0.04542273301517502,0.1307371934963359,0.04995868944955263,0.0944185929076095,0.034891530108742914,-0.10871869549903881,-0.007288675230213237,-0.0768511583528041,-0.06028788710448878,-0.0034704923890977787,0.07182052901367625,0.00879175276949028,-0.01679718741278428,0.06017999202493392,-0.01202863894087018,-0.023415035254763232,-0.08686980556024798,-0.004793093538405882,0.056142317252775804,-0.06212617380085151,-0.053106977977304556,-0.03089019318190796,-0.03577017229978982,0.062483297827779165,-0.005734414699750897,-0.04181028501105798,0.023228815247035746,-0.05926098314632193,0.018869245689891845,-0.0007347081259390341,-0.016275664257272972,0.008237716545062475,-0.03363509980233571,-0.015842379269452134,0.02850202688999504,-0.03046621068888332,-0.01824688566363116,0.0213489433776904,-0.005492203563847124,0.03867116004100275,-0.026034072108809432,-0.04431452808385283,0.044436732951609735,-0.03241392360742576,-0.03393589752956261,-0.01686453675869336,0.04296969305301329,0.03353235034534989,-0.07484440087279169,-0.06476084439717411,-0.0385985006525596,-0.003704317687695245,0.032658537231507426,0.07608927511305494,0.02540828517900267,0.027352084251285658,0.035014321188864314,-0.007999451998769544,0.018586748078726865,0.008144681852865123,0.03659796803424696,0.03282745893061196,-0.003101012382135255,-0.03906320284742272,0.009325226507118034,-0.04851369880276644,-0.019927527592954516,0.03858241610876732,0.03323966665808258,-0.05207033093836735,0.01656168354511733,0.03067509630527518,0.024263312782756195,0.03369205113317894,0.00723127105813974,0.0015222953484588762,-0.00815151521833431,0.008654468071364763,-0.02796096637077966,0.04768844940910032,-0.1169170441749238,-0.0070904097544439324,-0.006922072240146261,-0.026672499363234896,0.026767308290631064,0.015220329454199029,-0.026492332020242818,-0.05509051422165732,0.008442268769084854,0.1167331154217606,-0.019593886818946957,0.05526615026293089,-0.10309609501712656,-0.003654910093142503,0.04834772843169176
130.7897491455078,1.218597412109375,0.03901233900429128,0.06293436844284517,0.05580244195060523,0.12475239177505736,0.06738464255811001,0.0734289988228166,-0.0380758399602626,0.07496910870677653,0.019495023524633563,0.20961652860108068,-0.05651852723104926,0.04172839995159441,0.07386427207271078,-0.06866542569861757,-0.05494905849947468,-0.005289403358983249,0.10493537055699256,0.202275102668922,0.006181283611324655,-0.08499239608856755,-0.024777699988057206,0.09730121499929172,0.023985731452141695,0.005523521043688334,0.07233692967397018,-0.07009662404491847,-0.03159595486437815,0.02480060710241808,-0.047096241735653514,-0.005031308939884609,0.03090524797470616,-0.030507412573606455,-0.007556460325850993,0.0314339006770402,0.05558881874181715,-0.021714224232824524,-0.046739980709363485,-0.07070571477362414,0.01684060131559846,-0.0432064834016881,-0.019143244216954805,-0.05125248771542305,0.003915211761698387,0.04116795481406599,0.03266811406973894,-0.013639274563288485,0.055945734726327405,-0.01452962800537782,-0.01037474821225877,0.023716305860800174,0.002630079502866672,0.0032650218557323044,0.010939704099260103,-0.0638969405813954,-0.02631087823270223,-0.10955249051285315,0.05508099209701477,0.044240570359096766,-0.0012358982529943503,0.06664470546168552,-0.02218699749415099,-0.006794700389895929,0.01466070762646367,-0.035435380588487976,-0.06841717943928291,0.010292925459750704,0.019040307048468312,0.038599898585566436,0.005321064479089206,-0.04920846494516206,-0.00470902753822991,0.05808570636938145,-0.05409576377476995,0.01391579412256574,-0.03170458830566503,-0.006093222634938723,-0.00656036978824748,5.391595439268367e-05,0.005081631788961545,0.0030626070692811275,-0.005920831980913206,0.004739897380568452,0.00809214838530787,0.009041320253910523,0.03684557929570523,0.003999650717746217,0.00834534924487947,-0.0017793020392883065,0.001188463847716982,0.02014848933184535,0.04247107154211425,0.002154700050351662,-0.07530869099501647,-0.008411396261840318,0.015535019596505911,-0.03778094761224068,0.02858034055824737,0.10924923366010993,0.010480200124497534,0.08640997672142181
132.0083465576172,1.2389984130859375,-0.06420594878945066,-0.06481163130780015,0.11877592528150652,-0.10250356052263113,-0.0053811405652590665,0.027375826118331198,0.1140821156319163,-0.056999578651207854,-0.17745881326025847,0.02228164119901151,-0.08068857293224714,0.019373836321075904,-0.03202517721214153,0.0037879075511589484,-0.0047515045541273865,0.11027787916659829,-0.008754270039188772,-0.01620185831114215,0.04118135857862157,-0.025425718183579523,0.005059681918981707,-0.015438857465774898,-0.028756838282687613,-0.01602973718048621,0.04247645092010872,-0.009899353645386008,0.010473081128941568,-0.008292124763180767,0.07137386125207033,0.01962342211025645,-0.052127033733682465,-0.03203896000887707,0.011969065536989489,-0.03583766511987754,-0.0098104323530699,0.023643445741352187,0.028400021156390228,0.006091116251540553,-0.003898594317915634,0.02532920932733928,-0.028976628782978273,-0.006724948066954841,-0.012940022033115003,0.06670311138008028,-0.044077146553509694,0.025598241843927352,0.0004959999250982898,0.009310903549144982,0.018700859429823267,-0.06031358617997298,-0.007514004686174321,0.027949105292541992,-0.009411960296115967,0.052934813172197476,-0.0007413887377412524,-0.05238055611430556,-0.04485417376323835,0.017410641859684252,0.052770908058844455,0.09940800596679245,-0.03531464642359599,0.054370221746647046,-0.048334688914053396,-0.004273196006923555,0.0578472140814546,0.07187515977445255,-0.06186801843289117,-0.04794332491321501,0.029365926744077626,0.0007382913933788454,0.00905365490924493,0.016492983213194166,0.07216391970830885,0.01015165077293033,0.003268666008446011,0.0048260391405746655,-0.07616890078884961,-0.06966993165982795,0.006539957562988989,-0.0015951837583680622,0.000396946496461191,-0.002081943999617554,-0.004832662014864891,0.0034184987016136876,-0.0348182246744887,-0.04304319371959955,-0.0029703557088936634,-0.05917195238129011,-0.008155690930565826,-0.06978548537993948,0.07071801227250443,0.0435736309228408,0.021110769447101912,0.025714097785008702,0.04193042712152648,0.05778317351447545,-0.02243100454876754,-0.1261546480321258,-0.002887345144712292,-0.061279934656185
133.24734497070312,1.278411865234375,-0.06324516907064058,0.012259237441652634,0.053744043530791666,-0.026061894744833572,0.014823991109034275,0.11953707092503232,-0.05737370106364593,0.10855246539856281,-0.006288644951778374,-0.171231019646296,0.0416520999869769,-0.029175121686906356,-0.09488272398700133,-0.05422297423315187,0.07805930764782684,-0.0935059654439293,-0.027632251600256428,0.039782563565597784,0.09363750041862624,0.018578745870861762,0.04071523661261019,0.1060471634799582,0.04906637926720573,-0.11710817971421345,-0.023108593751495956,0.044095616567532865,0.03392226298920076,0.00549659666574882,-0.04726409227097148,-0.040850201222908215,0.006021191343634194,-0.015229240298553513,-0.06162827727776419,-0.017502751892926622,0.028508898563381714,0.012600540451686923,-0.029560273747728377,-0.043993182275493155,-0.07029944695005597,-0.0728988725154967,0.0017347411445244546,-0.0052753175072650866,-0.006450591658622182,-0.005307443902507995,-0.03480533890361506,-0.03706691880787044,-0.038029132155744994,-0.006696238137874777,0.023464316052085224,0.020142978757278565,0.027018226173875295,0.00803165393037414,0.04068390110614696,-0.0035805638669771968,0.030986781591348173,0.04117259833127063,-0.011798796020552723,-0.03745088031278076,-0.13711599415525216,0.003494688147234194,0.05706530388511044,-0.0164643447144505,0.006982301828834494,-0.03396313062894813,0.0738246437009388,-0.017770090393689805,0.0038395234737263126,-0.025471029143576705,-0.00010898126523514046,-0.014786678541582936,0.022779844110988025,0.016630612687510492,0.03693578158578199,0.04328758909038782,-0.08281019486543606,0.103414947259695,-0.045440755881874004,0.03127867063179578,-0.0891692388000844,-0.02658282765452887,-0.028558394940315836,0.04550615295372205,0.09223292921533999,0.014611164455571174,-0.0022095532425136324,-0.0027112595550638496,0.00021987664002918512,-0.01570078725210262,-0.06622319888208827,0.03184287672359791,-0.01809078220834779,-0.06505443512340339,0.011407187456641897,0.02048659053893375,0.08140806582797981,0.04516490093576497,0.026964902757327793,-0.017188576494537134,0.09469571950487395,-0.05662126152266962
134.5257568359375,1.538299560546875,-0.064311025520835,-0.0006836578002197575,-0.100457809779869,-0.0687043357042842,0.017494531252978413,-0.09576640830916573,-0.18911758965520648,0.06356399584090122,0.08630643955244027,0.008745879049040207,-0.09847131207461755,0.15173746365973417,-0.018551148676953816,0.11725985349843913,-0.0864551646656986,0.05779896090809249,0.04119441585186584,-0.0760499347574037,0.09590062928297083,0.014810461610653927,0.03331165570179339,0.003994657857999554,0.013865987840426228,0.044385891086440185,-0.02206205209277668,0.056728346290005505,0.03226945410180416,-0.05355496937498467,0.013312067719062211,-0.04599313165640613,0.041151611168663164,0.010949378824052152,0.04608989289559836,0.058136681388453335,-0.0840952046181446,-0.03823231865087333,0.06893382470232705,0.006659892089572118,0.012262167812582476,-0.021372297526233947,-0.055174838169305754,0.012725112073141967,3.1633335505396267e-06,-0.00030854112316980884,-0.04221333492919989,-0.0028984605100817436,0.03034237320493283,-0.05353978603156595,-0.07031928402810482,-0.012429874018249727,0.01604033303380039,0.04515532730934176,-0.04893004104420557,-0.049316497092743716,-0.006529286011565349,0.05457496479497028,0.07885492089343046,-0.0027946080235997164,-0.0986234774720192,0.03435034531694537,0.04500209911545624,-0.04027619242783099,0.06321893435112552,-0.00922891871166903,-0.04982710725317757,0.03558638987546133,0.022312139809180738,-0.012033833957123213,-0.01762779669552382,-0.02646576524316613,-0.01211715792039069,0.008999055219905362,-0.0033081095337148606,0.002599855416823322,-0.03645161473129172,0.0026766473608249267,0.06260632786413013,0.039807102857597754,0.06533815706453491,0.05388014741741779,0.008328920562863365,0.0198076065612926,0.03277710103757985,-0.0034618389438599907,-8.79240254984536e-05,-0.0513116386858068,-0.016728697023797708,0.005585214040662909,0.012866710833436422,0.013949275758385461,0.051049705194514045,0.020217597128022527,0.03336601036788989,-0.00012958067543429597,0.03150334040099453,-0.019182245441926565,0.07344075038059818,-0.014163510551204628,0.009297489500403124,-0.0014064412069490079
138.72105407714844,1.188690185546875,-0.007628064017155928,0.04285810514396758,0.03373828150677312,0.10861390617861531,0.10313455895080359,-0.13100926597128745,0.0259642596035679,0.03673503800896827,-0.1518589785326478,0.01739265070903332,-0.015048774320601291,0.08006116952508391,0.07040516799086978,0.062416631016678006,-0.13293245462886585,-0.03261025936914259,-0.03136139972519668,-0.028580373714789685,0.1069122310343137,0.06868839288130589,0.02061032679342064,0.05873680147708139,0.013829908360545262,-0.02527797377874632,-0.030479482100088707,0.015971287628800537,-0.06309747199947782,-0.04590326370821467,0.013669781589123138,0.030787791665988357,0.004996547720482459,0.014698257323271704,0.032635037956732796,0.0037676157016604955,-0.00833520597854738,-0.04005083913323923,-0.007923252357542918,0.04693215685196901,-0.010075307472427906,-0.036537998979189364,0.02636185800956286,0.028438349318592876,0.062281578861526764,0.009238273408898053,0.015903908330805384,-0.05049357319290723,0.007461401586840438,0.010837483169297824,-0.0007654912952787191,0.015790479550451493,-0.014328388495295854,-0.032979636200414754,0.051512342939623396,-0.09266755577693256,0.006606829522516523,0.05624233038970547,0.05438597570613888,-0.007447560955920151,0.03901919927672042,-0.05072498775781278,0.019143116659402167,-0.01902543450221385,0.016700944861004454,0.028959240400369103,-0.09709180388008751,-0.03864692345783216,-0.010043802296985354,-0.06687370418832826,0.03239499759036908,0.0016362710130414099,-0.045278804611880684,0.04897862607758619,0.08494426646509412,0.010909460501324561,0.0514281735379438,0.0006507255521981104,-0.06636424704680594,0.011177019741777934,0.001908331713296288,0.020764491519025274,-0.09103042937334134,-0.0005979014107670031,-0.007030158145718022,0.005608331948686973,0.001813883693275922,0.07274014108899571,-0.04724195315464368,0.007002035759649684,0.05331874565119909,-0.028987326057203888,0.022161238101644307,0.021187469924213147,-0.019575001775315327,0.05022938947118587,-0.03415552342402951,-0.10655494609102589,0.0163727008187503,0.0037543337086051905,-0.025362847621764772,-0.029738663716352486
139.9097442626953,1.208709716796875,-0.028219416976339177,0.05808502436747646,0.05585919481498802,0.0010373878133404547,0.012957710893169352,0.1402020022600813,0.06243692316724264,-0.0752239771117489,0.06607894775756805,-0.09699050221301063,-0.06755768463435916,-0.08325230538181891,-0.12416527921530403,0.0009317208341607999,-0.048651423845880636,-0.03687211089455237,0.05582808176367903,-0.0578419349746004,-0.045158730568138176,0.03363694546979678,-0.05220885341767931,-0.016439379124355284,-0.03187513846688396,0.024214425265201962,0.0012949546622069014,0.02199632067697872,-0.011474316885188027,-0.057437880612643336,-0.058918093919340095,0.004588358899124289,0.03192878291564455,-0.004074124164644937,0.009043156982040421,0.03520585337688918,0.021862490643363562,0.010905906998316567,-0.0438691802468735,0.030553126208492223,-0.013966033487018373,0.019315015403354396,0.01453935986499691,-0.011121924882206676,-0.030601317431951693,-0.03006292970437905,-0.04228528721492629,-0.03239537276260054,0.04169694986431529,0.027659937186966573,0.0653018049369525,0.0811203422112239,-0.04814376555577382,-0.011585045215255989,0.0346148321346102,0.02885940812699428,0.011759303014798718,0.03644381002432167,-0.042960049618608456,0.016067205016085006,0.026096319001543616,0.0658968863192051,-0.06940551325750124,0.016410352992346992,0.042887790601331494,8.501806555887351e-05,-0.010439273353384786,-0.05452597403612576,0.005713491647916086,-0.07574522750190972,0.06814049362183885,-0.09657235095752509,0.0009921678503080102,-0.04180167790035137,0.012560330498195132,-0.01673717629676911,-0.006683886563729466,0.004756867196572958,-0.021050806835793457,0.07917087030926447,0.06821595073358303,0.07464830908510914,0.035351809697330136,-0.002548762396111424,-0.006775009926420317,0.007364425142771908,-0.004606531168268044,-0.03705212833260956,0.030812001814419836,-0.005643473737818253,-0.011944144691355855,0.011275505627002863,-0.02185952800952152,-0.03939781535508794,0.02198607036073099,0.008988808426788238,0.0326255267420341,0.030425409951217848,-0.06840562332094806,-0.07236207104035017,-0.04062619205468641,-0.042978784226670355
141.1184539794922,1.2086029052734375,-0.04506089277826318,0.057932803490426406,0.08729031647729185,0.029819289841959477,0.011280941064651741,-0.04559482013829571,0.015568358229765544,-0.039923246067078096,-0.09097647173796507,-0.07964951033393355,-0.027404073926138965,0.007229797342071284,0.0018559670556216323,-0.03536963310692191,-0.05069042925096025,0.007970150080639407,0.0072546416950375215,-0.04450419193193018,-0.07719142892760097,-0.051506600416001344,0.009501128619392311,-0.0058616387673105196,-0.0026012006621871065,0.023476184296047864,0.004203569179893061,0.061823672198400924,0.04718543200325466,-3.183460001785555e-05,-0.05845904321553337,0.029263912107678758,0.05409312522602874,-0.006409681870056701,0.020571283118152497,0.04319573268825426,-0.01902743737107475,-0.007990853143514873,-0.04240119878460637,-0.010409199304081152,-0.02025214850509341,0.06303825727376801,0.008057904666871524,-0.013550024802464759,-0.025076520973983395,-0.005284793284309902,0.003936832629006279,0.010346040334571156,-0.02766797660513791,0.02980637710341612,0.002644962080866689,0.004290812807972971,0.018934031399789268,0.010226945574042046,0.02529071839742828,-0.03915345102483218,-0.03800233152749054,0.010246571389403611,-0.06319546679601303,0.0185734610153478,0.0020242222394356614,0.0582228050140608,0.0645422834206463,-0.026479435899037132,0.023857924741050248,-0.03375075077261996,-0.037193655021395926,0.00252278946704744,0.10636930991648325,0.005040894341764253,0.013555304198915905,-0.034217591837944455,-0.08616974533180713,0.023112075685630375,-0.001608360675654029,-0.07307113292212979,-0.007283223240486275,-0.05255471724038179,0.04993843760442707,-0.06695115812179318,0.10344324271454572,-0.04653082718414479,0.0025819456914578376,-0.05276244018767549,0.019471713206279398,-0.039215172990581,-0.0014428991741742628,-0.030895004262477675,-0.000758324093077641,0.03761984689135233,0.006826005934383407,-0.04622254313902887,0.029633672451882438,-0.03235219168312995,0.05259193456378684,-0.025196814519640013,-0.046426240491516196,-0.02054590371397492,0.021876180310279922,0.07955230416047403,0.0199771376372528,-0.03055586776833482
142.32705688476562,1.2484893798828125,-0.041954328381187615,-0.03890330851971429,-0.0858521050063934,0.026645463057163064,-0.03704762143160402,-0.053199390543784614,-0.05883425020224532,0.0427198085608217,0.04613656910633046,0.055688590050218756,0.06360703518857592,-0.08199287256133128,-0.24742895872549098,0.0484524640530106,0.1157658227902355,0.09460300624538134,-0.12675853819748123,-0.10191319489042899,-0.05228587804293885,-0.03936111549226306,0.0022503405976877014,0.020062777802972408,-0.0010171970986719292,-0.06289644675445302,-0.011995278234501134,-0.007284690063707189,-0.03804490731244595,-0.051725099608431344,-0.03937471859778481,-0.04050287915204764,0.00667715454454058,0.06546737955384063,-0.03312939669052489,-0.026065137864403957,0.01725647811767897,0.06114430046857235,0.026956376295415675,-0.045014497971443884,0.032715545077973154,0.028354573616679944,0.0633567249191268,-0.09815117764075036,-0.016958914436859217,-0.017436863683115637,0.007830067434251482,0.02546777818907859,-0.06703995137115805,-0.06082232602647146,-0.03658984349879642,0.0019292354110743678,-0.03387135982378943,0.016446530626613522,0.050145480975329546,-0.009957572276061305,-0.04306670029166171,-0.06735477971529197,0.01729359865424208,-0.07599025227508231,0.008347608418374175,-0.05015849779896479,0.04386922461921433,-0.0025230662744307603,-0.037152690345686454,-0.02427826502620626,0.07477293612015962,0.023033131256271586,-0.020478057601255824,-0.011721431574622626,0.022178664269181636,-0.008434349557347865,0.0715213581476699,-0.010577396905539285,0.004353315730940895,0.04322074501607633,0.03911726260847324,-0.08906289841903556,-0.024920834968911818,-0.007722390782570077,0.03495816571707025,0.005001548773047176,-0.005056654059639212,-0.04304860878497509,0.09582277300357228,-0.0014371613019686265,0.009144532415860478,-0.0076243714591625635,-0.032990397885312786,0.004193350599042036,-0.0031067033021538073,0.007173291575095952,0.046117602703837315,-0.03749784541771413,-0.011668303197987825,-0.009178334844199264,0.0713313982122001,-0.012023245812295767,0.012499049250735528,-0.04100085633403952,-0.003958297300308631,-0.0022178601597142994
143.57554626464844,1.3683013916015625,-0.012233735071220275,-0.043260410863135895,-0.04980045760973243,-0.11816929840238573,0.08088408795638082,-0.035344563039443416,0.09948721761423722,-0.033209426413183384,0.09466260476471326,0.019806170003347362,-0.10927403434977412,-0.00045385174695683874,-0.0989752112492715,-0.06579551751230253,-0.05686661520543208,-0.12434067259087639,0.012871899467770582,-0.110266745442678,-0.0012739152527025408,-0.04840821205281495,0.10167609123537512,0.0314635673139319,0.04679731641408391,0.01567438612949168,0.016547735205177837,0.056160471200423036,0.012744574483181427,0.0022568762667336288,0.008306408309023383,0.009570217660557934,0.013284664380348102,0.04761275025611578,-0.02214524390014424,-0.04135950557811524,-0.08500952279182364,0.06813347463681682,0.03414388143860952,-0.05771114192394454,0.007376618542337711,-0.036134988440066865,-0.007766549285798247,-0.027239922880007594,-0.05187227500965526,0.07898299644049919,-0.019305276318957062,-0.0034622759769123573,-0.04349632472371964,-0.01874600036998536,-0.07936345227375018,-0.03979379714814736,0.10555531171748445,0.02835135665347549,-0.035841339961351706,0.02161384982553677,-0.041444365871685006,-0.06677876932963385,-0.03749676454450965,0.07893741081265576,-0.046592626107870225,0.022834376904960534,0.06255122126732426,0.01164007873433641,-0.08542975037619269,0.013433341625566989,0.04763833365180149,0.025855872570366832,-0.024246262829289524,0.05775602586671424,-0.053893984372132574,0.02652795637356651,-0.03009660003885707,0.005030245439835417,-0.02589637213621801,-0.022692507795300722,0.003240269284906061,-0.032984438501873034,-0.0021575554667362293,-0.005657363385473198,0.06507124724232276,-0.024539187002510593,-0.004303266050018967,0.01269101060946914,0.0600854807161721,-0.022266136009986656,0.01499963524117941,0.00921252617160769,0.05170593675001903,-0.0027611702846783623,-0.014443598786529514,0.02937537990990524,0.02347463152698258,0.0078544619512642,-0.008521389518273227,-0.006806338576231727,-0.02557557059826825,-0.03944790670365861,0.11686148266564512,-0.06445093166175789,0.03505824469080243,0.08488230923229512
148.9991455078125,1.238800048828125,0.02116135040985047,0.08697790378078422,0.03458525462401428,0.010406773136004828,0.003742132071706525,-0.038303311878917,0.11891815956929927,-0.031969750975461765,-0.09500244454433483,0.0013620150653918077,-0.2222242179342436,-0.05249385705576468,-0.008521476911628086,0.051087242268833086,0.0014225036194585022,-0.08040052587365043,-0.08336874446486844,0.05528794909613721,0.026362140387661964,-0.04790184430410399,-0.07621596721496268,-0.019535173036328846,-0.05849112496596787,-2.2450505419342043e-05,-0.030043620625112785,0.05577764884597339,0.008401243300562106,0.004762967975794893,-0.025881544242833558,0.03155220575407755,-0.023727389385604526,0.07215284350598597,-0.00319023270650641,0.08321729974610044,0.012961852452065308,0.0764975895611729,0.041148121615237704,-0.044467252710801396,-0.08465895932165912,-0.01588091921120291,0.020278465846812588,-0.025320237766987497,-0.006912580690407645,-0.05928012006274831,0.005970047811655527,0.04138293688146291,0.04438230565303367,-0.014897318924055766,-0.02996132938636385,-0.12210252063150114,0.06400694194955492,-0.020198280706186116,-0.0180956503359685,-0.027061731786627824,0.0773398951068186,-0.0274477646366137,0.07697169032172889,-0.043722069034332185,0.03335179183189087,-0.011551703401479298,0.023236667762601013,0.015002777651141549,-0.0764426242714383,-0.011100340994945156,0.06262100720944877,-0.029909317511170555,0.05149196437821747,0.046816161345823115,-0.00771593258781824,-0.04385957680926915,0.021490639368221962,0.003215023950872054,-0.003624836869699929,-0.028256530272014562,0.05261244904067159,-0.0024146125977949086,0.003970415582069282,-0.023285135710323847,0.02238795036165227,0.024270863827030163,-0.00911064515578166,-0.017562386808286132,0.07751460678103443,0.02545577404229114,0.0065090482759370665,-0.012917449969427328,-0.10613440509309578,0.0029891000447912625,-0.02289609093503562,-0.0006042929376550848,-0.01618621040461478,-0.014076576342997447,-0.04359200897179802,0.057745738465129016,0.021069049466336323,-0.018547260150429824,-0.013948367833823685,-0.013957809076646809,0.09553213416475777,0.03846065757125354
150.23794555664062,1.2288055419921875,0.01589465637908057,-0.015560026270792948,0.08753496808818631,0.06714274333322144,0.04787104185571345,-0.03712389565048399,-0.029233749279376442,-0.08684136520642842,0.03176985517001626,0.06701268369775745,-0.08424784437216912,-0.05338690419205634,0.009705537096843238,0.003293566396741777,-0.07081248614290349,-0.030918522905912474,0.05842631810119714,-0.0064464381656089715,-0.02251856134311638,-0.044538086587332174,0.008084238695633494,-0.05033588553844824,-0.006279092687095247,0.02104078697199245,-0.05371955038008348,-0.06401667745095259,-0.0019881174492106246,-0.04254528634146713,-0.0298732724484315,-0.021628157454518855,-0.05040953619995099,0.012015993834775411,0.04489469523754806,-0.0501422556724928,0.019711427767177454,0.059880958920224006,-0.028659336807022914,-0.05902694063737916,-0.004396454329749157,-0.08892654286114789,-0.03450166688529585,-0.005505438175301724,0.09083946028934978,0.049543938368451265,0.04535049187483811,0.0728666393551066,0.025400330499025976,-0.00861288142731198,0.12582388428132985,-0.0035227082267246575,-0.025649561102720948,0.009817113840827243,0.02952745352136241,0.018132954910962257,-0.015065814372182757,-0.0009509206242984479,0.024852160356550735,0.04571579921807829,-0.06013118255264151,-0.02666613042202613,0.024181591111211057,-0.05527788998849131,-0.08702834124704767,-0.011474159273233905,0.006340354372656676,0.025709126986426706,0.002379027503630448,0.015446117825122924,-0.03179505770225368,-0.05283576078634158,0.024083965614010584,0.03472432210731041,-0.004449280083167335,-0.016258627139396475,-0.01877499957433265,-0.007415530108811369,-0.02530550446048051,0.005856922839838655,0.03394830887462669,0.045633540836686345,0.007833887191194842,-4.5374234483519776e-05,-0.051491984037607255,-0.008986266025134427,0.014101672635453604,-0.03458028016677077,0.015024191390279095,0.025143173875283018,0.008028431233992278,-0.005651748672954711,0.03233647160898423,0.006516892522946743,-0.09100843250690968,0.0021675327881224404,0.01501965406015264,-0.06613458340632901,-0.0004161794570324833,-0.05738662910822786,-0.05809145593732211,0.08746238176734294
151.4667510986328,1.2386016845703125,0.07826259806582561,-0.02162288400665194,0.03184865610734646,-0.0030610088941768095,-0.027934643655303626,-0.041111908222166815,-0.03378715441291316,0.050607355645069824,0.039482346168979436,0.13621355822071873,0.05937391469388782,0.03416330082016792,0.08080530924992689,-0.01554493517688306,0.015892043731376728,0.003606017964438813,-0.10553433242547469,0.003145767414986716,-0.03784054431702488,0.05580651523661828,0.005635572109515916,-0.0428595795512971,-0.03126439125451569,0.006460264544342834,0.021969043856463217,-0.037976712984114216,0.0021617725118012517,0.05442985328000273,0.0656602214994554,-0.06930614374933733,-0.03534975004917791,0.03163576746434518,-0.020539709405816856,-0.03733918753034561,-0.025836285497051765,-0.03574106620971225,0.004959170232996163,-0.059159677152212424,-0.067552512948592,0.04927739511904504,0.05731920639622209,0.02794864369455502,-0.021256193350153357,-0.04768471175404336,0.07596682339527971,0.030777336877669013,0.07054684993338103,-0.0149267442809438,-0.014890748243773441,0.0003227658011938422,-0.01782615747421196,0.012468722899153808,0.02933643335169219,-0.06836075078589889,-0.06086175191448921,-0.017391663218028104,0.05197664858768439,-0.00468851921940864,0.02558905238348125,-0.007108933230052027,-0.020327045966461926,-0.06050619003281467,-0.017556814738406947,0.03625038717653278,0.006228465349984169,0.05365856541441466,0.006775911419743985,0.05615797187589083,0.001920226762868486,-0.01834664541273278,0.0035022382414804515,0.03735264779437928,-0.014428669246799483,-0.09294524799432351,0.01118543802541351,-0.055714662306492836,0.004426706512410898,0.04417813157469676,0.002168075116595062,-0.003465988113262646,-0.0011964386669666804,0.03802871784960489,-0.04523197900069321,-0.031017528306741697,0.015040389174631213,-0.023985638656151623,-0.005623854721539797,-0.007378962345607857,0.028154682079182328,-0.0014148528748663492,-0.006650551681716781,-0.04356038464192002,-0.07402113685703747,0.009503911297183011,0.058787649825899346,-0.09673459495363534,0.043599812523651416,0.03417599933373798,-0.06742088577504801,0.07762593223689626
152.70535278320312,1.308502197265625,0.06732438682864707,0.04803325532750909,-0.03428275159086393,0.019612351456449538,-0.06566608075049406,-0.107775379406489,-0.06495910187489073,0.013311464992878537,-0.015188452714949306,-0.16602595180333846,-0.05285194825626395,0.021902071858426898,0.022430769444966456,-0.017344485839733838,-0.0476571128895658,0.03961350732049737,-0.006638658770779193,-0.03146567368573805,-0.07463920404526282,-0.01671253564530559,-0.01757290534308857,0.06682480485457352,0.03132804454531096,-0.03724019140470289,0.007980830524218649,0.06003392454315242,-0.016605637127169157,0.040005315302193076,0.037711535009950406,0.05840747219727264,0.020779676479612437,0.034411824985739525,0.009714892430386798,-0.03042661076413731,0.035762837953155296,-0.0406146275398011,0.031044519848648682,-0.09193313442033896,0.05885730554779271,-0.03576734652344386,-0.04703675353998078,-0.0334002280595124,-0.05542935057281099,0.05389944041926931,-0.04435154644024104,0.004190222751189129,-0.009229174640727023,-0.002528262739768714,0.018798329207977246,-0.030999052803587418,0.10007790513123112,-0.005622787999998629,-0.0273683408157704,-0.041239711225506445,0.011584996786968338,-0.05580384522925002,0.010109350106354885,0.027879010892700104,0.07742918975801848,0.05170455425392754,0.1105559405902784,0.04662920186028348,0.09042546656279828,-0.04386656135601971,0.020964511397090883,0.02186393251960869,-0.00560976268836685,-0.0018201872484014392,-0.014856981148813366,-0.014664581056365169,0.0014013805881521214,0.024201471343590374,-0.08586824445996755,-0.013402663856038595,-0.009413328332597224,-0.046251895519570464,-0.009625850517092537,-0.060730614891411724,-0.027611285422354997,-0.045502202177681694,0.0006733564492598515,-0.09432776231951666,0.0010413049661951443,-0.0012598368601127094,-0.04407126888297353,-0.0062976031413549665,-0.029185305992359127,-0.01301214138223591,0.0021054814106671853,0.008799405144317395,-0.06622173764018241,-0.006207907368314459,0.09028277696796186,0.00426526223048551,-0.009554876078163115,0.0018387913173419192,0.08383418996331532,0.06312299700509742,0.12832218222682168,0.015223239050886225
154.01385498046875,1.4181976318359375,0.14576734696653387,0.004906806617914404,-0.004889011949952948,-0.03769082216223782,-0.05618940490297947,-0.042075275645484994,0.01130429569613798,0.08259921107269441,-0.09357055352039728,-0.11418777282743596,0.09142458616293883,0.08127144302959116,-0.014074840363774908,-0.003678331192750982,0.031469982189590774,0.015397801245737208,0.031155323619028875,-0.042692537099275576,-0.032299232853771856,-0.00902355960577532,-0.04826518863031584,0.06160679171997143,0.03511395370447343,0.04121251008742045,0.043570574640045226,-0.033253796536699846,-0.038347494136642776,0.024441627704208227,0.015751177807712385,0.04139295092635088,-0.005764391221592779,0.014168445269801686,0.07193925494202222,-0.015293013856977112,0.06062350988595971,0.0014098194165963734,0.009760673059661431,0.043970987296485506,-0.0003273523353111164,-0.023261549282334426,0.010879887049000617,0.04826950615095567,0.0568958116207887,0.01237592537647251,-0.03766956271066188,0.008302604658481854,-0.0068232676638291835,-0.01987277076081252,0.04238888214713209,0.0670105060627776,-0.034547384961925595,-0.004268868133874188,0.05317858898066191,0.05299885772165278,0.022392140423875186,0.025761046854610375,0.06923656774781467,-0.030032499048687808,-0.03258770653149248,-0.01898605419833128,-0.02187208815256972,-0.018731325420056226,0.07594484300670576,-0.03065493746169293,-0.0356268802102314,0.004937120474187318,0.03892776093818858,-0.02603211461253203,-0.008642525304895366,-0.04519207841213703,0.07569662438308745,-0.05513895326783158,0.002112679901921667,0.045535877964502106,-0.023547849018483488,-0.0010814265939926388,0.005022124620632977,-0.07258237879323248,0.01042198956016506,0.02051637146175244,-0.002011727166560085,-0.015139690430929883,-0.005945012611949896,-0.0005066333814014147,0.0016931971964364734,-0.020399333529965584,-0.022161981374973928,-0.10218420838209402,0.017622025224618143,-0.003139014221959222,0.08649305615790442,0.016357637630898703,0.006986216938235656,0.032044134155482684,0.06136032902411543,0.10857248032000698,0.014786152620710043,-0.0465701441678739,0.043302961528057814,-0.06859120934600065
159.22764587402344,1.2187042236328125,-0.0872965562579851,0.008769073664198023,-0.06310569056942245,-0.03338023970472199,0.0014828069879484328,0.07979433045765703,0.09384261803783057,0.01825667027155286,0.010467123651850749,0.038460254174488964,0.138598407314274,-0.028739759977111,0.07288204092503457,-0.030774510781767732,-0.025192732451130233,-0.05251388285322816,-0.07197779527409164,-0.04323562757043374,0.07157033250120359,0.07173110198267552,0.05069659385773455,0.02762060503387894,0.03015125780084066,0.009549766526750623,-0.052088280596257364,-0.03439598804558374,-0.0038134045999732294,-0.0390525656490754,0.010236290227488584,0.0661704582742122,-0.04064396936450277,0.008614117731023996,-0.05764525477318838,0.03665947340311158,-0.006934442242156292,-0.040419907741584035,-0.010903242720612716,-0.08710686183869328,-0.0932975590782226,-0.0178486173983003,0.03268870251747074,-0.06587252486449152,-0.020404341744003383,-0.014472297165191425,-0.057194816399360374,0.031274317990509906,0.059441829901681405,0.016812309745265694,0.006776358210101946,-0.037336205148925466,-0.006707315977581323,0.052039583593369375,-0.03815030132095629,-0.11648594811750396,-0.07335570699611768,-0.014650280300526836,0.015454900337016972,0.05393347930915383,0.00872177647880848,0.00648761928290369,0.03735144840437098,0.010298880014831494,-0.04066303817371401,0.02836463137032595,0.0474406259383629,0.011734844980696428,-0.005466961235966429,-0.029721087889769814,-0.048438443383021855,-0.0441108256091164,-0.03911552605665826,-0.03417903778848123,0.0034215619332513686,-0.0020529920912832397,-0.0009707057296067662,0.008855043024168788,-0.022075230866981505,0.022629207200560525,0.03701014520154075,-0.00022522778492572356,0.001870818696615298,-0.09520803287163289,0.0021963404277182104,-0.08715189460203983,0.06793817723019252,0.030358546429494117,-0.012131861093689989,0.021160510514286066,0.02074159877610696,-0.026094741400118016,0.0013359796181997752,0.07799709301098348,-0.00520167406456557,0.013697886829006009,-0.01532037663689499,0.050696009619680536,0.05600890755480113,0.017394223803163012,-0.04289047949931073,-0.07934049706587804
160.44635009765625,1.2288055419921875,0.06727504740282554,-0.04921730533986212,-0.07760538033667977,-0.0921670220473508,-0.07038687009918665,0.08195494974755614,-0.05961479755444957,0.07578998274099143,-0.19984740794381306,-0.13942909286991353,-0.08710173621073239,-0.10309007203063458,0.16266617432693353,0.11143304671599123,0.06349765747034351,-0.040508671849934244,0.023992889845881334,-0.049416731958769416,0.07151127022873263,-0.08387717382474795,0.014282406383897033,-0.030511206582313755,-0.010211892893312263,-0.017116719823022902,0.04772633277372998,0.0026036774170884163,-0.00565316391979276,-0.0388946637799026,0.04216724775224506,0.04338782018702633,-0.033252266386257195,-0.07535950519655948,0.03712387279662057,-0.07200359803294588,-0.03278511893541373,-0.03652761134999761,-0.026175216494660092,0.05749420976873195,0.03893424290425762,0.003792744731706729,0.012845817416733712,-0.06901286272419328,-0.050235192220859426,0.01828163506568807,-0.11909719160436631,0.020764727105158278,-0.03941253646419748,0.034261540430573126,0.03295300471110443,-0.03955833768810349,-0.0426927652626421,-0.015042691778467341,0.02787942014998411,0.032091793308230344,-0.01111545005871241,0.0676445878308367,0.02942934543284924,-0.024866726502870196,0.026011920439370333,0.09059513344587422,0.034640303558058555,-0.012035129269475687,0.08619531414604406,-0.04682675693876964,0.012227173844287058,-0.02947452792443936,-0.07190458346952479,-0.031245217247155524,0.04820193326677318,-0.020907896543077616,-0.002024524757915386,0.05369804755450456,0.02359054408553797,0.04994190207144654,-0.03768585190650218,0.02576006635137945,0.04424723062945845,-0.008864433841165465,0.052972587007655406,0.005504328566883964,0.035336294269886416,0.0053363389481466995,-0.059282764704683806,-0.00666246988164512,0.003812259411574811,-0.02905323431802295,0.012477658699487927,-0.03134139513667447,0.10587223861589744,0.030243693475311577,0.0024041842166552915,-0.010250552959354007,0.10262009756960665,0.03125542490353794,0.04052968116858529,-0.0019110227409735512,0.014709549028326541,0.0802952524602661,0.034864735283303146,-0.018037200176420992
161.67515563964844,1.2285003662109375,-0.03783473236709907,0.004536705681610042,0.10086864563794729,0.0042780298404248365,0.059295224162099903,0.00019691023378601204,-0.06530762833615968,-0.0037413126402849294,0.11929725879770355,-0.0024172325377427705,0.06494285683214536,-0.020435668417922704,0.05018908372167192,0.02845672363646734,-0.04942747687939203,-0.03971900966338956,-0.04739228908010942,0.015048387229195381,0.16209939341748514,-0.0523445607371853,0.06612966557369791,0.012515449761712856,0.04400784075515347,0.033135161668769814,-0.12130341085464683,0.006531125816623822,0.004677584232317011,-0.012927027274985334,-0.031622879861546285,0.030905700108139166,-0.020374576175036047,0.052442795502074945,0.03684395457554361,0.0525387554764826,-0.02780257037797937,0.0028415204703378695,0.0623247152969651,-0.03812627484726809,0.03083842043404904,0.05477303901206548,0.058220938091173347,-0.0561689607390924,-0.025625715651354956,-0.05917304620842673,-0.016307146322944797,0.009094198260698164,-0.0328389808462398,-0.00011735237930528378,0.0006625816121548412,-0.0007175644790856778,0.013930908236433216,-0.044094349171226545,0.09540007233191715,-0.03858060947764293,-0.004498414822611332,0.03569687463142748,0.0025001562339628716,0.04533137958363711,0.037664958572147134,0.06136034402219771,-0.00017857903113804516,0.022995602651055512,-0.07449660049838867,-0.032034869703226304,-0.028199265547624863,-0.021444437454961947,0.046029149681108224,-0.046950234045676144,-0.06333489143783326,0.018548886703552966,0.04721626628611856,-0.03857834936891448,0.06241565685047259,-0.040982928998375655,-0.07133192158258207,-0.011925539737936279,0.0012034732370352964,-0.02025086646233794,-0.007042083258804226,0.08894497917261027,0.005015596540765668,0.06508051959635594,-0.0006847607243002639,0.005133419272008231,0.0335330766033523,-0.0056540421053718325,-0.009606633864104278,0.021507133209058327,-0.02206215692107553,-0.05086448473704877,0.011537422212310548,0.017586002026625826,0.0220953957497499,0.053719492922297093,0.05800022582770044,0.0654872838933515,0.028149508632168335,-0.05055245305975863,-0.04155184281366021,-0.06436583124617348
162.90365600585938,1.278594970703125,-0.07073407636578397,0.004211513389941517,-0.04443907658710511,0.09302770022425205,-0.06455776873006636,-0.02903640749706006,-0.06668630635430779,-0.05963140714160716,-0.04695185047922876,-0.020503553622823717,0.028756030282110295,-0.07028252552226702,0.030199681031241196,0.08124062610032279,0.12045187374498864,0.0006024544092592637,0.03836977378582375,-0.114951450940118,0.09847522059059541,-0.04968418285806339,0.02867001152806503,-0.02149932683597048,0.05044125798592953,-0.005549009396917394,0.01188113556906814,0.009659433003302444,0.03061859476254825,0.02576060936817179,0.021314732904460103,0.003458201569440761,0.015222286271462673,-0.035445844359061826,-0.02901552835811251,0.03958103985029236,0.005660741613049428,0.03789362124138593,0.0392721622026325,-0.023003956702043055,-0.06988724552403017,-0.0160474073602576,0.005650119101008277,-0.008161832675906481,-0.03008783993103674,0.08094031958633587,-0.039309922117026115,-0.046923269131353924,-0.009134026857340327,-0.06709063793438506,0.028032330215300175,-0.0013220696426176517,-0.08039636153095427,0.10236695632226098,-0.021818245207697907,-0.006298139508109464,-0.03443386329701134,-0.04978903194660805,-0.007095173465074774,0.02336936814997533,0.044871513307142695,0.010070172712885482,0.03997615880336495,0.052062783226656265,0.06823220010519646,-0.008718938746457766,0.0496624631822576,0.022443876183495012,0.01622031022916166,-0.028701475796073926,-0.03839685364653137,-0.05924413789178232,0.02000395019413137,0.007594636945436363,0.053107359703047245,0.07589229239007916,0.0445011929578891,-0.03292012086289898,-0.04776040299724991,0.02856017948240617,0.004846974287840992,0.01561323121882368,0.13415571347684943,0.012048184336106042,0.002599580384153912,0.006150698106904473,-0.10077153961941823,0.00013771795239369113,0.030507553476068296,0.016255972047596077,-0.019035220708201107,-0.005320708487321312,0.05381004940123958,-0.0008576985410875078,0.014284176970812312,0.05071661922503942,0.05247177593669529,0.027709935414071997,-0.011742521162462332,-0.03389113053853419,0.11793973255670115,-0.02891455605664628
164.1822509765625,1.40789794921875,-0.04582908016055439,-0.03062074533837318,-0.0018167799102153498,0.06632065969756858,-0.02214429800704644,-0.04586889393496405,0.1035270123999067,0.12354834040591677,0.12567462761746812,-0.1237655780595609,-0.0345257313563459,0.08084163516699311,-0.07092184161855326,-0.09915774671696595,-0.04214629638533195,0.06737997193795603,-0.023033835781743672,0.034162952984430534,-0.04627683905485361,0.03339185589861471,-0.0549931982596704,0.00714558137589796,0.01616731049737714,-0.01801946548089099,0.1039589589584438,-0.07350049707580161,0.016773322135369015,0.06782796964954242,0.027219398910324776,-0.049494106798211215,-0.05274153424738767,-0.06918147566635152,-0.0320150518799458,0.028845603578918383,-0.013461843801888466,0.020455193948029905,0.022385873967938053,-0.01443556800053356,-0.0003140557301976295,0.03381524104509097,0.004449641239720683,0.005930124330506057,0.03735284822081084,-0.06858502295522341,-0.07095289400460293,0.029613141329242823,-0.002352210293526986,-0.11468294470624177,0.04850535599353892,-0.009569641831138828,-0.014799853932160342,0.059848055868894884,-0.009051691587936145,-0.03026019107567919,-0.05677136678515523,0.06292364123483098,-8.177169620577859e-05,0.056137794777100444,0.01755384723686003,-0.0832425369356561,0.029559549553070233,-0.0738120290521931,-0.09087079328858162,-0.023817939587693845,-0.058283870123332526,0.006663717703985425,0.058438884420293276,0.002255150511536237,0.0535365088703232,0.001521364441280865,-0.002743309870548112,0.021084559636700688,0.020125894911284224,0.013453724963244127,-0.03203176850164756,-0.061588629282541114,0.02357050765103802,0.037337506879344576,-0.021271457898719114,0.014925623350197119,0.023747303413197647,0.024746880514941595,0.002893046743377618,-0.012950451591996207,-0.05341731563787165,-0.057686629570512106,0.027419226581204107,-0.054968756147342,-0.04279752605519023,-0.022548807774401384,0.06245453885795066,0.009073407674625656,0.0767307616682018,-0.0012395490760744679,-0.022489251795913927,0.010172958930298343,0.007473543006035787,0.037892182773501426,-0.08276716411016882,0.04525306499106102
169.76585388183594,1.2083892822265625,-0.0429752922868487,0.020255316490345572,0.04817162920835044,0.1276592298806048,-0.020945208966531927,0.22168456876219064,0.09182109510659278,0.030216675329778984,-0.07996081236331579,-0.018378182579174035,0.07357226738515059,0.036190129907522586,-0.03238106996653307,-0.057960048281903556,-0.02439020181183301,-0.011021990953163356,-0.018811723620291702,-0.018578803050123598,-0.035014754955826136,0.017487850518229764,-0.05368561923340019,0.0004874120009791356,0.019060933124670772,0.02167481105091864,0.018673765640490357,0.006647594004407217,-0.00790654792076995,-0.008851047675268203,-0.04415641022066606,-0.02711855165008275,0.006317573487450243,0.04911500886867105,-0.07344891093754184,-0.03899608306396916,-0.031199485592638236,0.012566231456349775,0.02667574702462261,0.036719385848890576,0.05048657551596381,0.05925203982976423,0.0066690776958628645,0.024741122124406115,-0.026498441993770702,-0.03307730704512781,0.08344056948395864,0.01855521414646652,0.04625429791668896,-0.056849279300081774,-0.09550936754130286,-0.028486399231497372,0.021283895051178836,-0.033741619130757655,-0.0138343643449872,0.007825928117886828,-0.05412629645673839,0.05938494463303677,0.055185282934933425,-0.07460382637394179,-0.004713367208189042,-0.013242719913214473,-0.060746867204691635,-0.013192859802551533,-0.033622293599908884,0.0026408422817794097,0.023076811857247505,0.05853712744542487,-0.05322583560348027,-0.032975319425935706,0.0008006603486427079,0.04997331092418053,0.03438577244792214,0.012539908801026648,-0.04760645407219133,-0.017180565553245746,-0.038092499378335774,-0.00044224895707406357,0.09003064906941897,-0.0006168962717874454,0.05170933364287038,-0.08017864762031643,0.0029060136373467334,-0.0295180166853977,0.011303895831277576,-0.00036875497690448076,0.0061863467047378225,0.011494011115139462,-0.0011944571809393398,0.00973222812349278,-0.06610110606624298,-0.028773447952862366,0.043356308065853055,-0.0068295293555085896,-0.00041818155113481953,-0.09892742180022385,-0.035934675930288616,0.059266620810832484,-0.03660378105459929,0.01901944800687428,0.018870155573121467,0.061835596794343806
