start,duration,0,1,2,3,4,5,6,7,8,9,10,11,12,13,14,15,16,17,18,19,20,21,22,23,24,25,26,27,28,29,30,31,32,33,34,35,36,37,38,39,40,41,42,43,44,45,46,47,48,49,50,51,52,53,54,55,56,57,58,59,60,61,62,63,64,65,66,67,68,69,70,71,72,73,74,75,76,77,78,79,80,81,82,83,84,85,86,87,88,89,90,91,92,93,94,95,96,97,98,99
121.08000183105469,1.5978012084960938,0.09995799328346085,0.04458760401115237,-0.026945448446722826,-0.13222999394604576,-0.0733427924035412,-0.026808232376178326,0.34049661068986126,-0.20228083789977352,-0.011552525237055564,0.03121457761157953,0.06495311945469696,-0.06987285541005751,-0.03267839976578261,-0.13905848653561512,-0.23026154417522574,-0.020394760424873384,-0.10641587857693319,-0.0860523498722624,0.03356439996653759,0.1802826789446074,0.038364163434975895,-0.18651596180829333,-0.16614979963028387,-0.24607580606861942,0.4556320836456887,-0.15924220003961656,0.017067407500748533,0.044356596395300124,0.009362979269722072,-0.1993550399563739,-0.027487412763428948,0.09471576371714864,0.04548642453423503,-0.253501953017333,0.001224490472072362,0.4057078496298043,0.292010784676166,0.10194317831604717,0.21686598225148862,-0.2154681578540758,-0.25280089411852197,-0.5693823804930421,0.06027819040013835,-0.27868875647373786,0.4310371055914492,0.587990422910278,0.025090831504300203,-0.2586138108315615,-0.41332867792600414,0.05875733883620879,-0.08100515119329604,-0.15023172450799072,0.008168630090361907,-0.2622455350984883,0.2723847744630695,-0.005203691353715359,0.21450484985553853,-0.41731023625745733,0.13342758208684768,-0.0886338954534234,0.020687740488198696,0.058873590249092875,-0.005404839297416547,-0.0036618824832255815,0.0015949454115623343,-0.01760081093610842,0.053007924357094366,-0.05504820529823932,0.07492678764877458,0.17130055438251934,-0.12202364328086358,-0.016133374772499303,-0.12278647334573482,-0.0022623906823702254,-0.1289696186123901,0.02483249345462695,-0.0507398342016317,0.03303394967817886,0.14335858304948143,0.00667762169047658,-0.1377416646850691,-0.024488484945097623,0.0003073103278968231,0.06620913225128595,-0.041728097487425765,0.08916950193887553,0.11415504703811882,-0.0006832377836338963,0.07703863806579211,0.12099836956529675,-0.006092907403787945,0.05325549514070706,0.012094292458121022,0.049214043428619535,-0.0598096218781245,0.01142203799818909,0.15411106578605918,0.035744811586976594,0.14584767832323994,-0.0028999665255880908
122.67780303955078,1.6084976196289062,0.0040012375048278995,-0.07698460102662359,-0.08950044242490546,-0.1128217320669537,0.11309998335077945,0.2159790160678252,-0.02364050649414004,0.015477191223976224,-0.08636182756640962,-0.05059828801127192,-0.08006359255248412,0.018157951982041707,-0.00868614894348271,0.05976471452842984,-0.011281444932194894,0.0009753924673407312,-0.050125008551940964,0.04877415362376209,0.1396824752317538,-0.10879242442605802,-0.08946854333545398,-0.11705617046856355,0.10773323108519474,0.09860093344611089,0.07904706918201809,-0.12239229136032294,0.05796707998070895,-0.3230283569962259,-0.043149669750245846,0.15650766343093164,-0.23449498542990907,0.11514973828180722,0.16959184588950071,0.11707750421004148,0.1824445333959004,-0.10913115325739177,-0.05487746372243987,0.039681775350377514,-0.10794615930916962,-0.25455805288644157,-0.03773487916183102,0.20951460266439081,-0.17547798568908396,-0.9093876848299589,-0.18324538567797755,0.05233372260182883,0.0805211550743921,0.9413757216022662,-0.3647547820735858,0.2643525959780427,-0.13366882155134557,0.05889416807899233,-0.014184629307617916,0.10455201529873483,-0.28192659942940435,-0.23000433067982806,-0.29276181072209406,-0.07112282136171993,0.00464012056289951,0.06280881390484992,0.0979735322243971,0.04157306718835076,-0.03177932280818778,0.043804325135443814,-0.023177405718493378,-0.07515066006188044,0.14805987675797044,-0.06009225369315278,-0.1354690687687972,-0.08830988803056551,-0.012989363602870112,-0.07234152028676046,-0.019179413470104212,-0.010590649542406894,0.05318663113957796,0.15350622404131514,0.09534592612996608,-0.005006520401731551,-0.06700090383315016,0.15090201005783088,0.12538570875750232,0.18763192406605508,-0.056338287239129446,-0.08709497502342854,-0.08779301801026425,0.047040767168885195,-0.08235719904204362,0.03928518626403114,-0.02132894895999927,-0.010844600717843933,-0.10629678679773535,0.0656910684809963,0.1018108477952328,0.0792732829590111,-0.07367795363910135,-0.029827613214778892,-0.09058271141348194,0.07473957512575488,-0.04126478828904823,0.1363637253279677
124.28630065917969,1.5883026123046875,0.1386188311506904,-0.032329256329670646,0.043722615654907586,0.05237488811610243,0.09717962632866525,0.05944276414499203,-0.006623642936695397,0.010803742129623178,0.032388752153144636,-0.04295160576580631,-0.06901532842929808,-0.07715265369869663,-0.09399080611991084,0.03399858664770421,0.01642656513700745,-0.04677234538041898,-0.1291915585535005,-0.10572550063470323,-0.007614409653423726,-0.10838651227869375,0.11148210507877505,-0.060091169848774766,0.06853971698039413,-0.12325325026032533,0.08240434414788755,0.1927683139944603,0.057138417380176686,0.17644684730829718,0.15939746329203397,0.1067786832293062,-0.014780170310455993,-0.18108109573014727,0.08177318505499465,-0.09535994047386724,-0.26518301163803826,-0.008627003994023937,0.1841009694444702,0.20639641951673102,-0.1956278878479294,0.1416045108270445,0.1536584298971511,-0.2954980708935649,-0.0862098103753425,-0.33037449391665674,0.042179974180066734,-0.16644720911789085,-0.4824338963363465,-0.26177166300111887,-0.0243079771208859,-0.4725291753193911,-0.7457092580114941,-0.5856170297394738,0.37349250120993316,-0.6827316468618588,-0.11408416505918778,-0.093604948934371,-0.14988243928044775,0.3043504793656218,0.025919256689158995,-0.03713048918682818,0.008660013143393402,0.0009808151061459838,0.030348659461876364,0.03058457654047144,-0.03240043621646574,-0.0024071071094804264,0.09085543515388712,-0.19230144012105377,0.028901110622396396,-0.0065267143777023445,-0.09774106471848687,0.018811850536617228,0.1238756856970708,-0.12031561175629905,0.08936213449013843,0.09780086079860371,-0.04321290908508023,-0.1265222481452134,-0.1535107695929075,0.2781168356383024,0.11314815824150538,-0.06393399037645048,0.12761390792314456,0.07298880002425782,-0.03198357427019969,-0.05594783817767755,0.06659759938575777,-0.06318728174791309,-0.006185576218127563,-0.049086705697156854,0.055748444882294204,-0.14645659377734355,-0.023971955750629374,0.06304086827656555,0.10932655092381029,0.00946237348573502,0.027844123340252283,0.015653069091382664,-0.01538964749792419,-0.33842911333211395
125.87460327148438,1.6382980346679688,-0.18523855622068233,0.24747022516557646,0.011918595731354937,0.03696693901700751,0.08236033274867179,-0.10350701753997893,0.16029633650110167,0.007565862833494107,-0.03906904829136152,0.05202738577028121,0.12873691801395024,-0.13795816254340837,-0.08318671333237537,0.08198604158872395,0.07114905022686016,0.0009828930218760074,0.13966021924253674,0.02193215369861664,0.22840367757789484,-0.32727030980350996,0.4421507514037991,0.2048068652030577,0.7674223372415063,0.301709486654807,-0.17795635255671854,0.4475276561846596,0.4630643776871448,-0.003526010913278764,0.0005022261587578278,0.12202958567727928,-0.9042454806956638,-0.3399576918093993,-0.21355354760360407,0.6173332658778004,-0.09917227406109992,-0.20354115479875443,0.5817197884440259,-0.13526144160941359,0.6400937626285679,-0.2281880294803466,-0.7486570232067874,0.2425364588527528,-0.02303776798401735,-0.09947052502684034,0.15266973561489774,-0.25896550912241234,0.02284265702479148,-0.5622643867325706,-0.3063037971959647,0.3695889614827066,-0.36259390904947864,-0.6709332205982933,-0.4615967232051038,0.1551392313059817,-0.03813161181932467,0.41697235319644066,-0.14137091444135336,0.11469968279406101,0.27436723912843297,-0.04043617311925375,0.054988378281257175,0.33243256329787096,-0.02039222845182378,-0.13044121388181099,-0.013063245847846882,0.0032232618421852675,-0.07556215373044962,0.014405280390818065,0.07598184055737386,0.05160001594818258,0.14032394615869928,-0.040868254156079344,-0.028685227077043202,-3.771021643811628e-05,0.13606339732031708,-0.003285656420869418,-0.01967736355202545,0.27842981329448785,0.26299684441188875,0.12028191548860606,-0.18951700882246764,0.11109214174430446,-0.12678658433751122,0.08753507091729389,0.004959720067909281,-0.026382987040661866,-0.029480603693806354,0.002942274020068853,0.0011784684159417066,0.0012476596291246898,-0.05244048841546626,0.04257006875885838,-0.033250727945973474,-0.009670850149954219,0.023687772274989683,0.033656807431392766,-0.1254056069250166,0.021968962039146,0.15779786499675888,0.07648167228810854
127.51290130615234,1.7280960083007812,0.2151452511398419,0.059322271586119676,0.1143112676385371,0.12010038676467263,-0.13265872018842403,0.06520284215451011,-0.11248198100504317,0.03278028251192402,0.03083405305330659,0.08570370727077448,-0.020014329213030924,0.0024456622930513596,0.0017521460726735386,0.051920920231687734,-0.031736018914738054,-0.006579835660679079,-0.07188038967644908,-0.008505830277291479,0.061342167914838,-0.01856519025548893,-0.02398377700951833,0.08579204009591328,0.008850744554683345,0.022143790621756292,-0.2244545432761211,0.1529659204320624,-0.06795446658751055,0.024120132498712116,-0.24564660571158575,-0.03987080201793305,0.1913958854064916,-0.006108186394489873,0.22950789053741852,-0.06239424101116454,0.08624205069479758,-0.04234964119971062,0.04723211010007199,-0.1030819079834566,0.047823252441538025,-0.017021070997649417,-0.05482591021501455,-0.05746394469304761,-0.5943614983874539,-0.01138540875427431,0.48564724134771087,0.47648837355571594,-0.45618038795351395,-0.39620278621902794,0.1830254991632354,0.34447320362754646,-0.030206292763592546,-0.24027027941293236,0.33130511974695825,-0.0348152803870993,0.030695971881811036,0.475776116374894,0.03595805199816046,0.06262674479110013,0.02955589634390797,0.03413122616261473,-0.026839168201262992,0.023650183083757936,0.010492043111599396,-0.030832828600588967,-0.04434602698617236,0.053378767859182136,0.008754344388899625,-0.15059892843231582,-0.14860270885412777,-0.03537763688985535,-0.05741141775780241,-0.02837099532255413,-0.07077213097571076,-0.08192732952413065,0.006028601107199566,-0.04041587734911245,-0.009204757403722778,0.19599247660484714,-0.13383070740425113,0.09633429936475396,-0.12255909141924948,-0.14274422863726588,0.002555604631704337,0.08730411567664328,0.09329779378128278,-0.11922619163755997,0.017766773708599977,0.07416152201598722,0.04904036527794542,-0.053229932667057715,0.09010834453432831,-0.049620028632025644,-0.10148386370152666,-0.06069666606446456,0.07325737180276434,-0.0785833584982359,0.031993178495468386,-0.0025769868149073424,0.021630547629279264,-0.010188021856307863
134.05540466308594,1.6082000732421875,-0.10044824421062606,-0.23913659968751907,0.07513323505121339,0.019240646620263858,0.10615915647748705,0.16876292557419018,-0.18122543792678592,-0.017703788609936946,-0.07049978507476087,0.054605351522547335,0.0978909236105423,-0.0503095294296647,-0.09594003157180844,-0.21177679757051024,0.09539982782071929,-0.05799741713297359,-0.11387078719998953,-0.019813095262536995,-0.14320323915502994,0.05297454236766827,-0.01201272819975916,-0.1365888167790199,-0.18942850973645098,-0.22830528388454957,-0.15536304636970327,0.10358630880123855,-0.19096002527841166,0.006875747182538525,-0.1120293690157652,-0.12022153141716205,0.10292035274495506,0.1383883292150722,0.16312053204007732,0.2464191515306628,0.10186781306200002,-0.03644373821984748,-0.11511948080118276,0.09911277442769834,0.04340198214281388,-0.17426929705206123,-0.3029670487143723,-0.04950014228220651,-0.1443500127268783,0.1164614563602039,0.15887861906058462,-0.28180835157973383,0.4012428600018336,0.42948874639488716,-0.1868908544176447,-0.35127714121522097,0.034032826977347275,-0.16815508494342388,0.0782503555836845,0.0455143972641713,-0.09340554151791217,0.4682478257901834,0.22701559130069204,-0.002498473710331794,0.08212308782373505,-0.0440631131853648,-0.0010999742406169084,-0.007158914583456975,0.06030998519115616,0.023785382464954482,0.058515995114054496,0.05910520612356357,0.057292764191185105,-0.057349590499955284,0.13809527786803355,-0.025231205164905603,-0.10667733762255444,0.05311050565715278,0.04467694918527572,-0.021926210458925666,-0.019080983145914394,0.016474232301090144,-0.04276297696149122,0.06359215421407137,0.0394283292091727,0.023269675589532048,0.029066690599733387,-0.005711383231426003,-0.08750770577464557,0.06074013676662204,0.06996228888980507,0.25935086307584326,0.05837121348775616,-0.05935055267254061,0.011952250371447017,0.017612054790075243,-0.021834764147226713,0.024890767865663795,-0.0037117877824090714,0.06473114722422338,0.019267535336691198,0.18576637204328394,0.0038774998013299455,0.002346058932825121,0.06025438145269419,0.20115935189037787
135.66360473632812,1.6183929443359375,0.04708432972223514,-0.1151008817124011,-0.01672045285309047,0.11038770653364532,0.027225681317186612,-0.04422512146889411,0.0035782385161180464,0.015489191462701613,-0.05838152463795168,0.013354026334733534,0.023509851216547833,-0.028414994601476447,-0.04214006081132862,0.1575768272598218,0.055988454905543425,0.03244430313990243,0.17007513871866212,-0.10128988771198671,-0.03813677153296202,-0.12517210657655012,-0.040760491125189105,-0.13161250962870785,-0.051387041168852614,-0.03027611740534108,-0.20473968800571982,-0.005251098427946304,-0.3012099014639929,-0.0841450025936533,-0.1580264028778079,-0.03535945843339775,0.06046143201459337,0.01990285317416418,-0.017377308377639667,0.06673206170288284,0.08478671019306516,-0.2276116592618243,-0.1396250824359066,-0.052774097183037855,0.023067025336036724,-0.2876056318152651,0.02596002462918509,0.09875861639182369,0.2579962987651839,0.21262802580615658,-0.017967697898110757,0.8337849599214228,-0.1379943994974307,0.14199255633664346,0.013673976814508335,0.1050226068485513,-0.2699237651513764,-0.05944508175523681,-0.0632162519523206,0.2350910079415371,-0.3298479277489415,0.24042836926755679,-0.057861742433174,0.18282535001760408,0.007094085575708132,0.004832392107579488,-0.0721819146418484,-0.02705167812222785,0.0070297588376369785,0.03174197313582324,0.04073349039223265,0.11485463002069676,-0.009592954061320463,0.23790199542634302,0.10044236741715787,-0.026490474005026226,-0.017365482608186586,0.023257642544413395,-0.0036971525382383076,-0.02798536220535338,0.0021610821999121454,0.1608592108074979,-0.0006061034752920039,0.15570117130480343,-0.022475910927651343,-0.14468903349330237,0.17586857526609986,0.014905394901720286,0.004040779439981123,-0.03518305442998713,0.25851304416531096,0.00021880436981524414,-0.044834089033103056,0.1041663629791765,0.0070800430499738535,0.14734049387281703,-0.01620944597369408,-0.07503380388007895,-0.06743374998623226,0.00793462195379111,0.09205470252132171,0.02443518140664846,-0.03866198413288156,-0.043710111995327545,-0.024364473824966024,0.009687875519927433
137.28199768066406,1.5879974365234375,0.14986502460730064,0.07710797031596683,-0.015869508832699525,-0.09565998062822961,-0.09738068500311392,0.08134808168210157,-0.17861287944085147,0.15710873081639296,0.017021793338253374,-0.01255424177855644,0.05243665496261575,0.09756343881325717,0.0347739242868562,-0.0007707107071771768,0.06485082613859895,-0.00673183153658881,0.10724679280837311,0.0484215717583438,0.025347004162449643,-0.0011649145244427479,0.008707307155966126,0.03778835774849691,-0.005346247089520738,-0.018387841903972805,0.052969818645830176,-0.06264558145817703,-0.07005122692935187,0.038265537120108994,-0.14408393200342987,-0.12376466723259386,0.10119651024790094,-0.006994991229210089,0.09968510023997697,-0.0740999305769111,0.03797183243837853,-0.1145555330591255,-0.16673879105970377,-0.021358071303976628,0.07347942047514348,-0.10007434111782329,-0.1325239455200989,-0.19417682150125876,-0.21081922218433172,0.15838744615129094,-0.19678808160092587,0.056387195750526205,0.08199294574859402,0.28558746171553934,0.3795832010505471,-0.5734277943566585,0.1897917297520936,-0.24559390493183628,-0.1608752484582915,0.2039188499932044,0.3254449710221649,0.12856273048579478,0.3512064620220898,-0.35897331339739663,-0.05763917398102878,-0.028751613610605582,-0.0011804720102304067,0.02072278530341041,-0.0025170809196328383,-0.008166776300316755,0.03499590523982507,0.023002889617066688,-0.0637088668668428,-0.01861489712521474,-0.10907051740489122,-0.007658805142371542,0.1521641496328227,0.017932583301059186,0.022007815016725905,-0.11058766362549033,-0.04246841600821649,-0.010045513718736238,-0.08800512994907489,0.006847535756910082,-0.2726638534633742,-0.08210112259127851,0.188166616631767,-0.0280820890218774,-0.25948028598075773,0.08973956118851223,-0.007137913168533404,-0.11609170347077065,-0.005171190539578797,-0.06503682919132804,0.027124968402301036,0.013947041590352718,-0.013117584460052002,-0.009515958016189159,-0.012982365217864986,-0.06101526557672158,0.10339376198778963,0.006608961854329222,0.061524549485740446,-0.1533248700062592,0.06385801737083417,0.040341814123344054
138.8699951171875,1.6284027099609375,0.04138124151770166,-0.009131998932681046,0.052545243389720206,0.08631738125020866,-0.12716424422846,-0.013742211117622295,0.03474834456746269,-0.06355950022107737,-0.033819731985455924,0.01998550099438537,0.3265026386743484,0.096126594281885,1.162931061677758,0.08852833021309457,-0.5276588981538367,-0.9806835717671668,-0.054531482659457876,0.4016352707571541,-0.40026137173568127,-0.2255995621162431,0.3429395564077547,0.09431311348489468,-0.9311811382830721,0.288858821675226,0.22895745333416587,-0.1483983751246865,0.13323193525532262,0.06034491914769358,-1.1128963323826682,-0.8786149199300098,0.3617894757296004,0.23517168650547654,-0.12243755008858828,-0.1840041373688514,0.4533429761830395,0.06279130109890294,0.11727005579407562,0.5237996054542622,0.13726420297819208,-1.2932948383100487,0.11450514326682099,-0.09291529311374022,0.1627497920163507,-1.6082198579521212,0.2679786241527625,-0.07027827539918724,-0.5949856210823239,0.03146030584230522,-0.041302741388038966,-0.2115213897379288,-0.010639841653695303,-0.1306924511628358,-0.022864105908174226,0.3512354007836989,0.24533890781573855,0.11114843515653458,0.03059231503941975,-0.026982704117439922,0.27637628162060374,-0.17388369870435086,0.3414122372073262,0.36854168761798534,0.3618509508395736,0.311674157694733,0.041125383120845696,0.05330727868840604,-0.14145361718086885,0.015545149290654328,0.01221652818302535,-0.04506589257402226,-0.0030424726330635565,0.044202854474476604,0.07741568055624809,0.3150360933068465,-0.004604824750212372,-0.036732148196839925,0.026886809184814328,0.10058344216183931,-0.03986587399394494,-0.20112968651053392,-0.1274876601737461,-0.08597118640964985,-0.019910272988532242,0.29048303754933785,0.014562913194626997,0.025961890080509004,-0.008516387145486186,-0.023542863992350702,-0.2071243836843091,0.014985628552618662,0.008831220262242373,-0.0019020242793683154,-0.05135371456713339,-0.01664261468615968,0.006648337930727246,0.04214478192439199,0.022361935469345687,-0.1133878525160615,0.05574653493369224,0.016292124934424806
140.49839782714844,1.678009033203125,-0.1198607800019851,0.12107313288752197,0.09588332604078305,-0.0008058684943582986,0.1755990495402936,0.07336195355027769,-0.01588974474324037,-0.0046532699178110076,-0.25745600655349365,-0.059339378197577425,0.12451641705777602,-0.028909419730194896,-0.046480269893349704,-0.1395466139865462,-0.08182658029133554,-0.015734152568174814,-0.032066431220966536,-0.023283617383768263,0.09034906142711506,0.040454010482280575,0.0378308030416554,-0.03279986053048575,-0.01741225023158244,0.012333208299431858,0.6040292068272788,0.21466040975906545,0.0028092023828487933,-0.13974266164625138,0.0900235240911986,0.07659433181430772,-0.03412432892570387,-0.07500997082137978,0.04718938566714111,-0.04767947223764138,-0.18737407043401108,0.021425550828952276,-0.28237534848640233,0.07795933816924622,-0.21856014169298776,0.24146568429564863,-0.056551706225812765,-0.02373959651678394,0.06390248853469283,-0.0009533325875633464,0.24740198215190615,-0.3992382935246005,-0.00983782361689664,-0.1070536829562055,0.5647948134692724,-0.6438881657833259,-0.071687751502837,-0.07410484626670306,0.3020908068103364,-0.17973777567311272,-0.20538834862017571,0.34232705427973875,-0.07052840614714448,-0.21113776229069794,0.04004488144799187,0.16782620399590215,-0.049663421046929224,-0.07092708301417769,0.03408721355602532,0.016796525269141035,-0.0026117288525325058,0.012343654023771343,0.03621125034896269,-0.07940888360283747,0.056270496415073146,-0.06326416276943816,-0.07378137481220082,-0.028845794510643414,0.022287940499479384,-0.018432755239299492,0.03197373448366977,-0.06574365917460269,-0.09843407888211629,-0.3777675220937848,-0.2524713001320658,-0.08535894767025698,-0.18687313000650574,-0.07055670669574007,0.07503838538632125,0.045446898066427176,-0.017344355057706463,-0.1329037194945894,0.07380277061661333,0.07282842578918336,0.0002614496183721859,-0.10054662044773374,-0.041289309191500395,0.11159840731944441,0.0009650998151220053,0.023078590441673874,-0.0023139526826759975,0.035144922719867244,0.08272253028187541,0.14545528373312427,-0.06301718700174787,-0.061878069411319805
142.17640686035156,1.7578887939453125,-0.18441040439098208,0.09619854197080288,0.2788361615243825,-0.26066299089446243,0.23032589025778374,-0.10385247026494174,0.2229064851753868,0.12562738785117758,-0.2698651363905261,-0.1120445120612595,-0.0903741493675166,0.07463802594422005,-0.004255315288617885,0.00587922064961654,-0.13040203971597183,-0.012226672392804228,-0.011051911207443282,0.010693254175041885,-0.17389094029384095,0.11222647190630941,-0.08497115563949534,-0.17990329499870278,0.10564517633616105,-0.3557271218459274,-0.20024634591617463,0.15688564868614321,0.0410008765164226,-0.16764484625398252,0.8207016961924585,0.08312267091843067,0.2872023343572717,-0.10412401119069394,-0.12966744128942967,0.2919592041745467,-0.055098881099657285,0.3397083212265567,0.8551607053510969,-0.24623057672728244,0.13718144659640671,0.2885418638450487,0.5430568827399785,0.0759773457849434,-0.4679687509381672,-0.5240430028882206,0.0852099544496415,-0.17298891584236553,0.09075996794963267,0.4049395835462283,0.6921511747417965,0.05404805966618619,-0.038536838617683755,1.1367424196100402,-0.04079748978430239,0.0983634049476761,-0.10737013600563239,-0.25212546887862963,-0.06621823550362123,0.7400855620539302,0.09630280671691968,0.037273060502685126,-0.027672498533489805,0.021290394928465444,-0.013474740447907023,0.05313730699288142,-0.019868307013249834,-0.04368096921954184,-0.024176393926912683,0.10736639314037641,-0.10624952974774232,0.08480210175402628,0.07606792145832478,0.12864838246398,-0.08231705499216298,0.015267489376047608,-0.23024939930253066,0.17452672740769665,0.07525991749194991,-0.001725023494548335,-0.019537588009081678,0.009828758374966572,0.018968901432408022,-0.06783437558104853,-0.10535429255403518,-0.015053333096019451,-0.034088581416628724,0.04560184278085333,0.10450762831404302,-0.16023542887812356,0.09853247483232185,0.04653014032059243,-0.015931206854996167,0.004036849823911101,0.1483599337812068,-0.2976300139304762,0.0957175449280289,-0.00884068605252425,-0.14344243628376382,0.01390836757934412,-0.04441471965210167,0.26280144716645276
148.91900634765625,1.6277008056640625,-0.3148387188961177,0.03617676972525599,-0.060719496400224775,-0.1394169412132667,-0.0747068214554165,-0.19633121409167018,-0.1264458671732095,0.14123340971897197,-0.10106037223871334,0.05035607722514063,-0.059562840969666186,-0.16034555794290245,-0.16888776820773455,0.017734453135070744,0.07640839727370523,0.09949861570893205,0.2770387842555383,0.10824389487608371,0.056994257361544884,0.35230469031084716,-0.36631995796384975,0.36277486395816205,0.006466664280768353,0.0630254694189875,0.2225879367632215,-0.10386830210034335,0.34368499521275886,0.18617359798129257,-0.03011815918398807,0.35041290840618866,0.01952807054604129,-0.5178771249208663,-0.07032119733549154,0.7325639190246203,-0.2526574519978241,-0.0858702742137159,-0.14953329827005868,-0.731773681372981,0.09629181163454247,0.028558558527271738,0.17142637266408536,0.12073260845723965,0.5806574708267278,-0.2573915887592409,-0.34616887825715636,0.14404084839906664,-0.06809107610726195,0.4558878195577259,0.09304942614372981,0.21086304137217216,0.24158427254865705,0.4724169523474838,-0.14438255922268256,-0.13973137515705436,-0.16162518530863906,-0.3192506964939379,-0.37712250973929645,0.42246338766957775,-0.7973278922115143,-0.0404290856818629,-0.1216586957219857,0.008717599708025336,-0.020622616147848185,-0.03266078768104604,-0.019422759042907717,0.05485377922329618,-0.06559994669392233,0.07884260996005907,0.08786004589476744,-0.08898300048486746,0.06626584178897756,0.03725061207012049,0.04047097335900497,0.03441572600697142,0.02632223021972965,-0.10556565102131144,-0.0181723434956723,-0.21790282380822196,-0.014335818406491342,0.19227983126805173,-0.05166391234711384,0.15707865588167425,0.017504359435868665,0.07825451849180431,-0.031031566662697806,0.010475370413000465,0.07671249436309463,-0.008997421106476767,0.04386255476238181,-0.00041996896792960496,0.09309313173446078,-0.03936118467158425,0.01723708225108989,0.09438822454758139,0.12866734460779178,-0.05963564552400362,-0.03852052314731832,0.04472508668056276,0.13131298771919597,0.06251145585205149
150.5467071533203,1.63848876953125,0.057294087486108675,-0.0881317337160009,-0.17967668910979653,-0.08813156133847944,0.06242403342295946,-0.07418562216764171,0.05460381796483467,0.09226535519484692,-0.18409404535175103,-0.06011416591232849,-0.042431397765587194,0.10195394322559537,0.04435361597260604,-0.05537919261704233,-0.13121450760682837,0.04149810084412008,0.02377406841910499,0.08110732315273991,0.25501791043960587,0.006020803291101939,0.0014266004946489191,0.14551978782431527,-0.16309060806678316,-0.33570872535500135,-0.05710136493462137,-0.26949971245683974,-0.08353650393408582,0.23716694632437468,0.08166274906861394,-0.15600373451691116,0.03435457639859794,0.10044965854469973,-0.016655644275419823,-0.024914094958787547,0.0007874546523193109,-0.09659293669834078,-0.2515301111193116,0.05533674619856306,0.1164473844444823,0.1018604196053885,-0.17280604843786104,-0.06896843505410881,0.10404139174393745,-0.06923519242998769,0.24586212510348376,-0.20098739280726563,-0.11535920374608348,-0.016926467096522846,-0.027756168484894407,0.4093161669899052,-0.2162015255943367,-0.0036014882578651874,0.8747155474030534,-0.03230964983467437,-0.006930897831845577,0.07625272409767106,-0.13578245397416383,0.08704701419492238,0.027368157703877502,-0.11680084314163759,-0.007818704117056815,-0.004610530981044053,0.07053828925595929,0.02566228243326379,-0.0037646294021004,-0.014032894723740143,0.02537278554024901,0.08877407965186343,0.2232936967321674,0.030817981671027794,-0.08202107261820542,-0.051770812260316205,-0.06365313968600383,0.05062578840611604,0.0002122271866753394,-0.14442072643503978,0.19615946229368503,-0.04557747033726417,-0.11292994139482389,-0.11280252763664764,-0.1277136299709861,-0.16061048888823423,0.015908043206608526,-0.00872838619170993,-0.08609835993629243,0.0032198454107815414,-0.015085636614701997,-0.046762906892731146,0.08080250324663586,-0.0010606983884972187,-0.04218814457368644,-0.04034481265416181,0.02075939281866178,0.015013160779759577,0.01883593343076792,0.0729778833890938,0.0154224897017185,0.06582896632319664,-0.14954684465545515,0.1839613944142567
152.18519592285156,1.6681976318359375,0.17756052967709843,0.05045593948934904,-0.13548084937159127,0.17462168272995462,0.46813252386711174,-0.031128299542779313,0.05847440352940106,-0.010546379201373385,-0.05798588575873803,-0.17486556311340581,0.004603450079101703,-0.11842006520551987,-0.06680067174414617,0.018015905131295605,0.0874467803963569,-0.03572598643211737,0.0038387293103453487,-0.01167829084179384,0.028092967291088438,0.1423229306967157,-0.1752957376781958,0.0764759121030212,0.13343579786923715,-0.005379512318465816,-0.03762646424450672,-0.1292447983459068,0.16163247584606838,0.048372228795835776,0.07543891698414337,0.12251132893851298,-0.1388341458611516,-0.05970479571531427,0.03058491409006743,0.008354755646268267,0.01542605088687338,-0.10454516683830427,-0.23257365427481752,-0.21514789368496334,-0.018489293737847537,-0.10043232398384798,0.22024786354066045,-0.008140359975519606,0.2335955572574741,0.21690384938620097,0.03666601390016551,0.03190603725821872,0.11785272760384868,0.3355974754656639,-0.0488473717497601,1.0121551071935784,0.31004044403044106,0.04575315004507377,-0.6899437640742423,0.20984159606976835,-0.10313224892343431,-0.06610041578789602,-0.5037402067843262,0.012777721868061712,0.07766311592413014,0.027042332108331686,0.06587709058448706,-0.020802161777497226,0.006815090410090241,0.041385893460298556,-0.032691035639053,0.0011831816288394139,0.031074643038464446,0.03905301469862211,-0.03936369445904113,-0.10405787693823643,0.11488981809800705,0.07842162929141547,-0.049782577260606434,-0.027957428395346137,-0.031833457004130386,0.006331902014254608,0.1111803257697014,0.05094290357557512,0.16657446151014854,-0.023004724817077847,0.18819574366234906,-0.021092282471317184,0.22112354486019,0.006881587560326249,-0.05793696553924552,-0.03460095025878898,-0.11877449433232967,0.11598791471255937,0.02936902400203834,0.07470907379223843,-0.026479926498753997,0.047396285137511304,-0.0011341380053897067,-0.020187043471457854,-0.06502431409309735,-0.023535599138234824,0.006278717476679985,0.0001676308456254696,-0.24796470129517822,-0.02645606620041472
153.8533935546875,1.6183013916015625,-0.033681044901772164,-0.15320654180072468,0.008220287957379205,-0.034327738380652784,0.035454628180912814,-0.13628219216024773,-0.08536405989453302,-0.0022709129008461303,-0.06714771078245729,0.07101944487799339,0.06992155577795087,0.018748953949913633,0.01317234358027193,0.01572318546299821,0.001313175357748473,-0.07967254307343588,0.0031995079540036303,-0.08239444633443287,0.048862091565514895,0.07754713614171209,0.0857623209883388,-0.17879446446689468,-0.04710493463745355,-0.042618283108627156,0.04871883122105452,-0.26021808564585075,0.2197887647100524,0.10526614169826477,0.11111046133979825,-0.03164012892040281,0.11323543458722839,-0.1799800849591119,0.18900858760500766,0.008992197138382943,0.003857117050308677,-0.052219509951533016,-0.06492664284838026,-0.07421498568039633,-0.13159019919159698,0.27545098020935344,0.656184517683428,0.3672413212616983,0.003903078664450721,0.007712978140357634,-0.32285149657408324,-0.8561144393899194,0.06547260811667771,0.11327103130137178,0.06243425900227485,0.3324805302950574,-0.33951402338124526,0.17974863345166875,-0.05272063550057618,-0.22712748344679354,-0.12059612582695933,0.25349879157556043,0.3133105188731178,0.20037370587909065,-0.0847303121888095,0.12261173389732723,0.07641358183763974,0.5600280322784384,0.2186801258941393,-0.2943481714814958,0.03342161298068984,0.036183239964286594,-0.08578489036548964,-0.0036081829057706544,0.029921982890557173,0.04152039476120291,-0.14213407076805712,-0.06804063746209886,0.06384051704970442,-0.15294408877073798,0.07551176036282484,0.013526458019843993,0.06071617943730094,-0.11247291463205025,-0.06108021516260774,-0.17002322171518752,0.11969664970813451,-0.1201799464413977,0.16124700071510742,-0.024033758248941564,-0.023444663554170964,0.12008857490651824,-0.08364181918187208,-0.0012568806565182334,0.0016582027938498373,-0.058140141443022396,-0.011453587598675777,-0.14987621185951047,-0.2547215010960331,-0.010097478434019008,-0.0160822672888326,0.08728842313252824,-0.05460260053922409,-0.10963485143906239,-0.09452947816184108,0.05482607602518336
155.47169494628906,1.718109130859375,-0.07692497029973039,-0.061022739644733155,-0.09716408407762371,0.137573562168795,0.23018359297768387,-0.11247113879679865,-0.027342938552407797,0.010365024785145513,-0.06556748934664314,0.04732039043648947,0.050145428009447844,0.11264750496941513,-0.04010890502955736,-0.08317748290213031,0.14094421867838414,0.015852965949889178,0.0025330797938764764,-0.02639730349614104,0.022461094666930023,0.0025687771225134373,-0.017973954399751982,-0.03677838727944742,0.019413915633615036,0.001180692209915672,-0.1019120402192967,-0.1551939561501465,-0.046973378010787714,-0.14427086807582054,0.12196541043906454,0.1444588756941824,0.020890086697502204,0.002966067514811545,0.11072634872496685,0.17192365228429113,-0.3198249973964222,0.0949376000088161,-0.1154535717533904,0.0038665352306387337,-0.11652056892683013,0.39936354531080764,0.031447454011829135,0.021953318461860688,0.2014195726260873,0.08634591391122858,-0.22082864220433523,-0.1576650378038139,0.040967065914593724,0.05179053755265623,0.21162583897058604,0.20830698930177038,0.10170016155510053,-0.15436114557019032,-0.1573349336711824,0.2751795399373573,-0.010849414379485119,0.00490929661233981,-0.05864327128541638,0.032354887919117815,-0.02209261548312799,0.04991004412348732,0.07118076246657536,-0.03222485121720137,-0.013371734815548974,0.00299647648398354,-0.04174903131558621,0.015732223804011118,-0.10402565000094165,-0.1028453556951687,0.04134019361337863,0.0274962606994848,0.019942005678896885,-0.056666178981275406,-0.14150469576150992,-0.058083938652049576,0.11998553868447363,0.011215987262745532,-0.06583309882368762,-0.1498688745405082,0.06912597330082745,0.06714741884832374,-0.10199697122902882,0.027194678914724164,0.1058640484054403,0.1373767667568725,-0.00536055797086306,0.049706164702412244,0.001754003099807634,-0.08103443087566058,0.04018464623876036,0.010632936252549213,0.2911721940308033,-0.02920280560579535,-0.061306523235700024,0.14636360501234186,-0.17779880632191045,0.04283689858986636,-0.07034752867199115,0.024138293494252477,0.09554492137951791,-0.026624877217163327
162.14430236816406,1.687591552734375,-0.056944987861032685,-0.14092201072610203,-0.26657818810911044,-0.21459814248330394,0.004337078509663429,-0.017683687485390127,0.17117944450764885,-0.0060978920505920025,-0.07281814630843388,-0.090504602686095,-0.021584403404791813,-0.07520637217097252,-0.012293336900368136,0.5573591380379879,1.3130803730968337,-0.12422896972338954,-0.5940127641614051,0.2361685995605331,-0.42616126993309156,0.10403339310503219,-0.658319655980152,0.0029850068859579512,-0.1593256021793605,1.4121760417659446,0.8828206819953255,-0.489287998264927,-0.008227565897927034,-0.8839742164160099,-1.602625856526419,-0.19609549828334863,0.365762195991457,0.18308440273481258,0.02131852872196388,-0.2580797911201182,0.5424971719655287,0.5778185204705357,-0.36321341730087087,0.1404944493566647,-1.03028145025357,0.39466128154189783,0.0016690832852183923,0.08685214845355817,-0.2223610198465727,-1.4886468152469117,-0.8206479263062035,-0.166809244231659,0.6248230008952332,-0.2781033900502107,0.44051005711364133,-0.5174470641335382,-1.2977987306835987,-0.10563537364501248,-0.2607855298192955,-0.1583325575733679,0.07416496943570779,0.4068581898852387,-0.24817429899826193,-0.05566073472976034,-0.9679170622711889,0.0028586342889752175,-0.9515047234177261,-0.04976377452277546,-0.14094146569169558,0.0341880865515147,0.0501299244487698,-0.04082013060269801,0.1256116355660795,-0.023921584389638227,-0.09090652507534341,-0.03628698355016841,0.14058079563753012,0.031584773185956344,-0.01427936571936124,-0.05892911640476677,0.18120119791845074,0.041605515919791614,-0.08086875399803291,-0.00373964832960616,0.02079406915094499,-0.017208686383319106,-0.011641836475063286,-0.2704285988377986,-0.04662863076486856,0.1018628865762326,0.08369172986591587,0.1091193962924798,-0.017313856439394103,-0.03781975802871938,-0.1122248484294348,0.0015435551508637807,-0.01901296822712855,0.016011691786443648,0.009756052464993344,0.015751231732449533,-0.02548229865618644,-0.0012452250168728564,-0.05577400193813708,-0.002225299857359018,0.05043140935443765,0.09054388571855415
163.83189392089844,1.5985107421875,0.09702996220485219,0.02395189741581763,0.030329147721478614,0.16548774011029785,0.07751648891542266,-0.16339466677794798,0.0520721703988769,0.3344233363801933,0.20545286253460962,-0.014213280769897516,0.0028796030206113907,-0.008941803905788678,0.023864850905127175,-0.02133945095975006,0.015835107417072787,0.016471164904205828,-0.07363055019163715,0.0832088325209644,-0.014373141816241122,-0.02075141699146514,-0.0284390908389213,0.005037806488066014,0.04981221574853895,0.04878202183876182,-0.0033340670000272824,-0.19946201769088093,0.06183616142172874,0.013494514073112572,0.09096544416024245,-0.03658722415931996,0.01415038235767948,0.07547926437760391,0.08163731828138647,0.22273278727528897,-0.012342552246297954,-0.033569166220071125,-0.02944960440481837,0.001420341173006547,-0.2680037332101765,0.0765034199137011,-0.020460527241372255,0.18322217280730724,-0.2638623876757634,-0.07558818951137909,0.26751936827461054,-0.25377889971574624,0.09010896825122866,-0.1322602707213133,-0.07806754056353504,0.039889370601393706,-0.6205076295244418,0.020386585418325776,-0.1371837319564159,-0.17821256127526597,0.3391522033193579,-0.3740322551946685,-0.03319762422201772,-0.06399927511704505,0.05666671192053087,-0.08997994632909753,0.10382439524126365,-0.018016239900341798,-0.04290503481013118,0.03545407307798344,-0.006293844181287008,0.016881762811672474,0.13541221035629059,0.10429949068679001,0.1211435444878878,-0.05006397983567874,0.13096868336370757,0.043075301726950746,0.07811549362437394,-0.05727141834235493,0.05921744013563785,0.03284940355395845,-0.05932781789257668,0.0871063710309024,-0.06517361723366814,-0.0927972154500434,-0.0956642990904741,-0.054426791791368445,-0.008639704081109,0.11832622270993287,0.05094784374326848,-0.013112021063449658,-0.14480637953747302,-0.03670284818452641,0.05263646874657829,-0.09549485922937463,0.09872557776309407,0.05809895436322125,-0.059075961433391444,0.0830637510350284,0.14627190375051466,0.02384642845522981,0.09146617630563894,-0.12825402770600333,0.03368927668691217,-0.052721663629034736
165.43040466308594,1.608489990234375,-0.05434651000096112,-0.14758555349845726,-0.09609738571550674,0.32074893539448424,0.10446336737746846,0.11459600291652469,-0.05055142256868722,0.14791363307108576,-0.07551498435880896,0.04964759692658642,-0.060724624200840585,-0.03241157220280605,-0.0016714095346886258,0.0682121363106263,-0.0053328057322042195,-0.006957578390972196,-0.018847266141076693,0.0002947215090863643,0.10934631527231166,-0.18660157899699223,0.08702143481741677,-0.008766764269841893,0.14357034592990586,0.29624611665074513,-0.08852023175522424,-0.056675797949979796,-0.2562986641745715,-0.2366334320279438,-0.07759792064698263,0.06753643711479579,0.2795687032652389,0.22831709829822125,0.22350076735626545,0.06286024914600402,0.10642310402731173,-0.32401516257715524,0.48952398467421093,0.18181145740176452,-0.04972683296202002,-0.22424515336021664,0.2134715520663753,-0.18110275310893026,-0.02873730778937856,-0.5923930939648575,0.036027671242914394,0.09278619557881247,0.0872476243570095,-0.5628276792937194,0.08190324475120628,0.19847420180757638,-0.27798745403038366,0.1302505604007031,0.6824775902580098,0.0729683771337873,0.41462440241084664,-0.01531350545012708,0.22143289018155468,0.0008326514749618791,-0.01959222427211578,-0.26119621626159667,0.017371439090666907,0.13875983131469358,0.018888226957735232,-0.14487228668274374,-0.015853190311583394,0.026685269852111723,0.028389086495185886,-0.004037588050082745,-0.008994679259814028,-0.038354259816486845,-0.010006728756303672,0.0712343944618859,0.022437013715037903,-0.00864835475017062,-0.009752088063290401,-0.01568087611698052,-0.1665316385410115,-0.14144962257974014,-0.38181198854955384,-0.03977896507620941,0.03947253193911669,-0.11377229876460661,-0.17286742479933206,-0.023388194142640043,-0.005231457504962905,0.05755963637865498,-0.041787526159112603,-0.02430275158520759,-0.06977546798664888,0.05866724180538033,0.032494419395963196,0.09260512327503449,-0.12030693122195726,0.012060969059765073,-0.01935607830214185,-0.020262044563967133,-0.025990186296694407,-0.04875701938994504,-0.09466746977619915,-0.025319579065574346
167.0388946533203,1.6278076171875,0.11710422040612718,0.005305186412943634,-0.057357367532663135,0.09948292713932011,-0.22836619503896396,-0.049296590511880595,0.09667046948390678,0.06517876441106725,-0.015662867692546746,0.016559766218599253,0.06978550505836494,0.03361768035583089,-0.0008496116404259485,0.020186362716607047,-0.007225470954473831,-0.038310900579424184,-0.05475878346013952,-0.015509359871676965,-0.008472490976420489,0.002069370214343725,-0.09940725393611734,0.007234762261115045,-0.06569940491015863,0.038460323216733434,-0.10522350636432952,-0.07497971196718425,0.060036933267527855,-0.05849444592242466,0.2325231450042659,-0.020440642038032794,0.036634568844402325,-0.038550386907795484,0.03741505301879326,0.06495395342433363,0.1879618686845173,0.04591036603201809,0.024875280016116125,-0.04197745088587184,0.26353066608651543,0.030823029237369043,0.09437072624995803,-0.035259175340781795,0.060013366850660235,-0.06726405256033849,-0.18896422676512967,0.25357939259817897,0.19397666179104503,-0.17534140265650336,0.3780462459685639,-0.013188630330552882,-0.039114316741091566,-0.3857932409708965,-0.30362956737123925,0.039491257055987036,-0.00043570047360842745,-0.12185519418950108,-0.032342917893109696,0.09352865563625493,0.1697903116613754,-0.004004881489067302,-0.0031749463557489833,0.04632355456714421,-0.014380476456357677,0.005399036599432213,0.014391912842052882,-0.012619307928878599,0.1411532614183814,0.03239147996326974,-0.10903081449443167,-0.1617867441322243,-0.1684964088864757,-0.11675779673815001,-0.05807293470280854,-0.09085894994582364,0.06265364941293063,-0.18910641039767181,-0.12027545467181269,-0.2317102306340914,0.02110835276770609,0.03213355108867359,0.10320250045422948,0.09971927511510024,-0.07228018933105479,0.0015511964257773178,0.04686349453161184,-0.10199421611807996,0.04560290791522314,-0.03407260252226169,-0.1868950859993069,0.08729029213319434,0.025788741416401466,-0.002270266011480125,-0.057424395530761535,0.058805760728822834,-0.0894718119491573,-0.08153897152177039,-0.057612436751198,-0.029904668253330345,0.20907739363323674,-0.16600235830037485
168.6667022705078,1.7780914306640625,-0.17214424016212473,0.11295539881780402,-0.0010806595154444149,0.337627288540765,-0.057229501303886716,0.2549287683680749,0.030521367385662496,-0.009177590800087987,-0.013518132237493794,0.18980540671863666,0.006050272362930146,-0.17655154753832294,0.010238786295122704,-0.00290413820354058,0.04023425749151577,0.02360214053458224,0.1051317376144355,0.07536015158031414,0.048925683638322906,-0.16755414666074045,0.041448676806743336,0.000919706256371372,-0.015402539280723083,0.04270083240320645,0.019172762185198894,0.09392627600976375,0.00478580794835402,0.27355697678309926,0.1865123536745032,0.0457958644055283,0.0014860998849620102,0.018677391644146037,-0.007027754560410502,0.20316455718942716,0.11934629569792955,-0.06005636081472158,-0.11757420662580664,-0.10233820356734558,0.15077128203542153,-0.18832554559890724,0.13776039773695803,-0.16706757649358556,0.0072611099965021325,0.31602128587214495,0.5528790342535083,-0.38329631432732025,0.04129105081709093,0.09029528190171973,-0.38621690792529256,0.007457080562525626,0.6568525932161149,0.028713476441549413,-0.44405290474660003,-0.04155552764811704,0.4467693490845923,0.05828391611449804,-0.13880269428056705,0.18789905233954887,0.007217878620405086,0.04162246441569614,0.07142550784731755,0.0699501941947247,0.06899835736221918,0.008123540112540328,-0.005903251466508929,0.08160309807883326,0.050901245615823855,-0.02131869557632694,0.1262453601230296,0.06593363583744383,0.03367319374169312,0.0180016843996393,0.08688643935674266,-0.08323357470945485,-0.07621504194109645,0.2032870754668849,-0.04897229561334473,-0.09819329116218964,-0.06374463610679178,0.12578339181880055,0.07117371845926955,0.11778443441949354,0.03662291794728223,-0.0008981897076292063,-0.00029755332412732924,-0.002954125474664817,-0.14630942848311673,-0.17132329411844463,0.09150780561768809,0.05685844408199643,0.11320833478227169,-0.06501055063003744,0.17652476221330574,0.04809726154421227,-0.12473546385788448,-0.15894313042984326,-0.03704520511912322,0.07360678702933375,0.29186254924517246,-0.0254205449603134
175.43910217285156,1.6083984375,-0.05609083708922412,-0.7214587272440843,-0.09660633173922382,-0.27427930406877477,0.0015409513007547107,-0.12723357108013672,-0.008117935339383455,-0.012608166845057273,0.01913132693868398,-0.02649733935857384,0.031878416634641235,-0.10864707992681137,0.2037909472577254,0.20149637119139133,0.09397068664875373,-0.24057238280354848,-0.13004352182582174,0.019557746395125808,0.0957359941847398,0.46211157687132626,0.2575560400833052,0.2780787501070623,0.06348545265562769,0.4304377774822038,-0.004845711211744444,0.7484327566192421,-0.024218108411534902,-0.36429596276273024,0.03975058132743639,-0.01381706390897458,0.06363192815534194,0.027542606377606287,-0.179699726234751,0.017490475262705064,0.026524579504306908,0.05938193265291971,0.06580780190662633,0.06683195585603607,0.611641693007363,0.6517230240305829,0.027178151212102798,-0.16495381050283314,-0.009798082969025707,-0.04112269324525345,0.02662630516772646,0.4829764053864523,-0.3553375654102424,0.42861168424457,0.05244042940270519,0.029330199644795923,-0.1820171061795002,0.012628562311762098,0.2204327461403315,-0.015300894477628476,-0.017935988712833792,0.048942415485977914,-0.01803135731769305,-0.3108735447580694,-0.3560570739558779,0.0046174299603138624,-0.008548167336288888,-0.11435862242621708,-0.04196187356302883,-0.005822247058207642,-0.023479736013503352,-0.013075553214677193,0.000578632410260474,0.009600932440672866,0.19551652033921668,-0.029989293684589552,0.022689425701036443,0.12364317618672423,-0.05691153791099287,-0.0298279076670112,-0.12915449808676782,-0.1039504613864621,0.0016556510603786129,-0.23837000820215357,-0.0023038371404620122,-0.01813941983350945,0.29105244539139424,0.03281256632658633,-0.05899644224660286,0.03604431116664454,0.040926756868615265,0.07844766680229508,0.05671091426051443,-0.061061776993040454,-0.06267477225492422,-0.028457273888505448,-0.08121359746421991,0.0890318002883301,0.033328952864470504,-0.0764380162575985,-0.06217169404931262,-0.07612809400494736,0.08275817323321275,-0.17309404646353355,0.008859960594928315,-0.12768154022532593
177.04750061035156,1.567901611328125,-0.28902313930960477,-0.27613003147512116,-0.01019341156852436,0.06028065505534031,0.0714557460609246,0.11780943774067121,-0.04913482364854395,-0.07338146346493198,-0.09701152376807318,-0.022821223708142102,-0.0072908263709808,0.02017117946017506,0.020523024297072305,0.05986625263616317,-0.034911854645166926,0.011301514749077833,0.011001487657766628,0.10513665200979112,0.033539959689462946,-0.16884235476247736,-0.16334863376127157,0.05101322579272216,-0.19375069187475064,0.023014651759518584,-0.28603157613786057,0.0840235419555736,-0.4550584194138916,-0.1569741627913188,0.2459242243461559,0.2649707150938495,0.024284474264339252,0.43005167216892765,0.1423495539646617,-0.487205708267272,0.16822929003643192,0.11070266942162849,0.232692885240386,1.1748619693438727,0.25313324011359184,0.3933696645938128,0.40729579603257215,0.7410380854019065,-0.48591272292531495,-0.12776023050717936,0.7390730629239703,0.4830466562520487,-0.08743052075041263,-1.9546149543132085,0.48021566126512744,0.25208112167118146,-0.5710318780467141,0.5553924533389369,0.08767936661691894,-0.3037650931689038,-0.03978307573137278,-0.41297533302804224,-0.22734355614635604,-0.14925134352646896,0.1925006791812748,-0.06967061722871315,-0.12955745587921366,-0.012150568333143145,0.04327108943046662,-0.05595644124329807,-0.06262095177016909,0.08964663674040094,0.03568884792147909,0.21764429836558097,-0.022065814113033936,0.031246230621765958,0.040860511123387455,-0.07214351103733872,-0.01594811172119575,-0.056711687024866446,-0.023794726389707227,0.04420727189494157,0.07467146208123927,0.04974965524564187,-0.13787462194594433,0.2517543219063394,-0.08959673614685565,0.06958697164653592,-0.05741111493032376,0.11274713725476207,0.03551802854610598,-0.06174952643991575,0.10434553783465138,-0.01868545032265319,0.03283877113418587,-0.02213143226653688,-0.028141462947432774,-0.042530745096076975,-0.10564616571966713,-0.0007090007930286401,0.04764913095554857,0.010178600426503728,0.012839811954400832,0.04266776371015307,0.0014308144282377394,-0.17537288731672662
178.6154022216797,1.5587005615234375,-0.03855442917457637,0.01977258728938973,0.016220883295311555,0.06880813612015269,-0.03883975802973375,0.18268628978350662,0.19380329544647368,0.04660390972902131,-0.0002458957554161284,0.06914864376657989,0.059217944503462405,0.040152865884842834,0.0738881905633966,0.2376406137452118,0.05041527222706317,0.14379899329962928,-0.005950669688617654,-0.04480116504747463,0.1484069026425644,-0.12775642408994256,-0.5706783386311834,-0.10671549033513056,0.031549004281334704,0.10981835746836698,0.4147219348651237,-0.46355737269445557,0.14761235082897364,0.14633474732552437,0.07181680321714098,0.3900542359478679,0.07106094010807004,-0.026127029494037085,-0.3683261569975523,0.19528519928212285,-0.0831177127610018,-0.3098047337993847,0.05900250987813502,-0.17585533688596938,0.42536403276239454,0.8409939496508286,0.7508725404045307,0.6277406724640309,0.10826640010770662,0.1281165613947986,0.6343903682620422,-0.19826880784184217,0.8494844244704537,0.018266389084688653,0.7545549556619126,0.3466482912475797,0.12865172690258703,-0.17923686394129518,0.047224002449820085,0.059379431594467624,-0.2762282787072247,0.13438451549524502,0.4223890144300677,0.10201388175869947,0.008369783068922193,0.2560184204879627,0.03039739630171595,0.06962446013976027,0.216220942110183,0.013809833129064267,-0.0057873649958880705,0.007894322391572313,-0.01844990304748501,0.06900695138934063,0.03694701525164374,0.059162384356832846,0.15864710170821822,0.024066730604723172,-0.025353067917259144,-0.06263607244599079,-0.009272442964474789,0.13875351668286723,0.012180148518050798,-0.03591835040397817,0.08379231808020085,0.15403575886021648,-0.22091912539923356,-0.0012131060224728901,0.061702164850856514,-0.12047042103370448,-0.12044569437476979,-0.22239786073146334,0.03166212875491717,0.1883181670269582,-0.02316976520177209,-0.0017622501953093728,0.0005738389617473694,-0.056933323384250056,0.06899431633381035,-0.02759653734995486,-0.007871551140880128,0.00017537254177954877,-0.09012090877641599,0.1830061016266421,0.01677542552669428,0.26930456432202743
180.17410278320312,1.6378936767578125,0.2801135611916954,-0.13025496536185888,-0.20876572168777363,0.025636996953369986,0.09861136897572147,-0.07965195344726457,-0.013630943997459344,0.044215112715951646,0.04726146125019582,-0.09804759123070944,-0.006829650364798777,-0.02783055194221121,0.08253651450828142,-0.010585981065195867,-0.04423314070735977,-0.05905205641905538,0.0096377961711939,0.010512413915801976,0.05608784251742745,0.05681257712950772,-0.08553533928552198,0.32695270311051783,-0.021314468083241042,-0.01569470902005872,0.11607727158085834,0.09592516921337169,0.024791599700457384,0.11432890415823181,0.032797733093827455,-0.05241698365964732,0.020034992249844247,-0.018809904179128565,0.42119522668391646,-0.015938961042962357,0.08686824461587522,-0.07738066370557223,0.1160899953825307,0.25797674468030746,0.12307282378440186,0.3353765289707432,0.15736031515427412,0.2012442262169915,-0.30550089024450877,0.010162639558676146,0.15642176736366542,-0.4809959101982675,0.01442708477148355,-0.8054581235506892,0.03000218716808986,0.16312610544554193,0.2127917374752975,0.4213364646021513,0.08550198426101327,0.3569857602505728,-0.13195292367434497,-0.22875586705395964,-0.0533888123562372,-0.2674942514876798,-0.07188278379504204,-0.15871183990457868,0.020653153212259853,-0.028268972660138593,-0.023309445404105834,0.00024910183500987055,0.04134222882075774,0.08498358807591938,-0.028620159179485717,0.16669050632461185,-0.11619009668731178,0.00021081248622863494,0.05829964268658343,0.03155819091560986,0.08306369987933006,0.05344231150565689,0.06204700723623928,-0.11990927970622078,0.20729114409845253,0.08392425567951783,-0.04347463185987592,0.15437891513745475,-0.21521112889130425,-0.3565455994215338,-0.17282700356851177,0.12656886224312133,0.09817377025512869,0.006986790889252692,0.12192594443993623,0.03442474784090019,0.10823136146731141,-0.02672016084246625,0.019572872025918037,-0.054875541845299955,0.058461862085042685,0.03686267228363263,0.024963073905936217,0.045779223086433174,-0.048585765426287175,-0.03756780388132311,-0.08502620278817155,-0.12478446021190806
181.81199645996094,1.747802734375,-0.1277578588095481,-0.018379551219244256,0.2580555209302341,-0.10924186135512137,0.047759870587251924,-0.09436504041709042,-0.023054083689085604,0.00108631285248306,-0.006274313060166001,-0.011608063577636798,0.0013473432503904432,-0.0013178351311746227,0.0024377823304547893,-0.024111781971854526,-0.0064500954560316875,0.03145308228311959,-0.02622878084277882,0.019456973676652955,0.040734268019927376,0.11951827387865369,-0.03202115243984068,0.027383243909383362,-0.0007658802890465737,0.0563163232740587,0.001711030343558989,-0.08013802691286313,0.05084489923371126,-0.05107034163220412,-0.018648244024051467,0.04118987474264825,0.12413843242738547,0.041697759450917485,0.09260416825100608,0.12606856380995587,-0.0888033848552781,-0.3059924738622434,0.09304913152740535,0.0064017628070240085,-0.3557369330025979,-0.6649808654200583,0.7838920686430617,0.2608228328975922,-0.2887305746751603,-0.5308171698367985,-0.32194571504639435,-0.551655282527785,-1.089430915350096,-0.12893405627005167,-0.06677652205611259,0.4519484124856577,0.10126167677689296,0.1472680425552311,-0.5807059193465574,0.09132419403429061,-0.5943936079346714,0.079862448222604,0.21840159129607448,-0.1023216008930379,0.02141165365950666,0.04520002891773787,0.08315093246772318,-0.049295581356836427,0.001411335701779155,-0.0012815368381756589,-0.0269675405244605,-0.09007963294233284,-0.0011062237464458079,-0.01810828621061855,-0.051469304988053174,0.05349264030465119,-0.10348538703430715,0.048937453485912885,0.0454590503672108,0.13910725828349502,-0.02626648803827733,0.01776817206934657,0.04199714591376181,0.006101768957665732,0.09540633650153077,0.016976375680177267,-0.12925824971880606,-0.017855536797953042,0.00334451741759404,0.0321297503034982,0.016972342072923582,-0.012097634467562905,-0.04475308901071491,0.07169565840665645,0.012904045094506024,0.023290619581625056,-0.0934310329544233,-0.03300596811428573,0.010139340909890406,0.23033348716247676,0.11334275834967428,-0.013135805478579978,-0.06413703947552137,0.16736932750527592,0.12268486652853333,-0.022905752069909628
188.3748016357422,1.5778045654296875,0.09564493497247523,-0.1596637306667949,-0.08996867160926701,-0.02652748655472187,0.32387522188546003,0.16762857658699515,0.04760806712852794,0.1923166038681351,0.07617327936822012,0.0016104244059061564,-0.006464849291647055,0.012629920796337235,-0.07475568274612089,-0.1250332642084327,-0.05678118900695896,-0.04131953387070482,-0.013366197049924446,0.018899620102381734,0.028399040224035593,-0.0896332413859671,0.029949921936651358,0.04081504912093105,-0.06116655366591658,0.0010591176740680636,0.1221290380592353,-0.020826937251523285,0.14084417686776768,-0.12229192753475267,0.010125358082797473,-0.10307434831002349,-0.033713259343184816,-0.0833885491191084,0.09924091017185346,-0.08203604447450172,0.21839214815424135,0.18120747922755923,0.23097028604367956,0.6737683997700967,-0.08651028909271687,0.0511312222092713,-0.18277595193695828,-0.1012926525178358,0.041005069072917295,-0.4095160819646268,0.028874076977488866,0.08772090673553248,-0.32531820116117005,0.34946157842835235,-0.4251692146069,-0.11309664534574304,0.24843006991309757,0.2283994375933016,0.17972951056285047,0.4233938138440376,0.19252918032286265,0.03945775213339701,-0.40616845960850234,-0.030365688422477895,-0.15145100553505786,-0.009985187973385273,0.10286153957087034,-0.08466403014014791,-0.2074553499741017,-0.07913227831328765,0.0022752973051393967,0.0153722723193974,0.019406284365950585,-0.040769722982190976,-0.23528922210038697,-0.12163948992624034,-0.009104974840246357,0.10028119221505839,0.0036668382744960352,0.06439674981551245,-0.05816328372324083,-0.018926948637671484,-0.06308288364692206,0.031964759898976486,-0.15841775373645486,-0.19267108551666792,0.12639434073176578,0.10444446147714781,0.02403265702224306,-0.08784285668452185,0.09857332523933554,-0.10935899806160423,-0.17424597273207823,0.006482226721929381,0.005757902394298122,0.011615051370520766,0.05554145953314298,0.07801013829430643,0.06007658424714223,0.04861813079634687,0.06449756621037186,0.03312644751181859,-0.09770210003651868,0.06653691697080111,0.03207880493811334,-0.06270804995546449
189.95260620117188,1.678497314453125,-0.19354376588610875,-0.10546430345683527,0.12119457529374489,0.17711729276878177,-0.11557570600786402,0.28134197680219086,-0.06896075807019834,-0.20209404886130836,-0.03623150371792101,0.08395066941957452,0.1838519274902686,0.13899376797263344,0.010814166188906118,-0.16206920690375884,-0.04126680740427974,-0.09403601182314134,-0.0019341199868546971,-0.10331789737669152,-0.05405685860226504,-0.10048628202891281,0.027454317377560662,-0.08165831370762737,-0.05064125607983626,0.006445949238209904,-0.05902678381155665,-0.00930146546439579,0.025156097719609836,-0.16254175579751481,0.09698295805450552,-0.0343476028561739,-0.027446380771578578,-0.041595048676280846,-0.044775391807032584,-0.11900203992702782,-0.11388567864047777,0.04332048712759119,-0.08883724046668398,0.0355253998506593,-0.016598350722755607,0.18375051709637963,0.298226210512723,0.18130879265396868,-0.07877086859823723,-0.3919680789543135,-0.7596300311633097,0.07741588979449295,0.38390224934175166,-0.18335951992583144,0.9825566267413626,-0.20035343187082114,-0.35444791983150103,-0.09278938642699554,0.10023562136061157,-0.3811028939856944,-0.16891001399069444,-0.1513042593333981,-0.0032668975436218727,0.026019798491563256,0.005235101289614016,-0.09195865860279163,0.07565265706250551,-0.06507084750555404,-0.038612263278304575,-0.051340476406903535,0.09231788993932688,-0.04434082021973569,-0.03536884477500643,0.017349666828798353,0.06392156426221557,0.06589101158839702,-0.019796635981049318,-0.030107528900733108,-0.02198109448036309,-0.06915898830573024,0.033163496888790084,-0.13084026894270778,0.021076704480406716,-0.03670163427622636,-0.04473840016465112,-0.04444649118137237,0.025603705087698422,0.007891653675794984,-0.022134801103957387,-0.10756251343682684,-0.04605603417092647,-0.01362190237690634,-0.004194350417852938,0.044721920925159184,0.10943646935997876,-0.03551192978455311,-0.0654592752101336,0.007383330894856152,-0.020223592687557423,0.01744137464469326,0.0012545253889413304,0.0360300443112767,0.06649708345869722,0.22272221009271556,0.10111226004956582,-0.058412553939601736
191.631103515625,1.638092041015625,-0.20714591130328946,0.0994906266771286,-0.07402011337762139,0.46749521543312483,0.03759065666339922,-0.12392211767180861,-0.0537913363737596,-0.013241854140228122,-0.11358670300564896,0.0845616469032679,-0.07896754553902276,-0.2405540761241917,-0.34400144435928626,0.044402278817581305,-0.006838030857469584,-0.02503843943734325,-0.04369142941625162,-0.0024344283598647072,-0.02962362874924033,-0.10337076516219261,0.011831641939953261,0.2843751954348626,-0.027695800489216375,-0.07067709636829607,0.18405428420928316,0.015174203698373578,0.003562525231161101,0.02249292686595951,-0.27390918898543914,-0.023201858324685187,-0.4433616673813133,-0.016338791220799204,0.057215189817879514,0.11584796671104233,-0.12640781831784434,-0.1047509474114752,0.31571499756853844,0.4706767487555885,-0.5089831407978598,0.06860473677191817,0.14383964016244982,-0.07810920119443704,-0.4127209160087331,-0.359663554308105,0.5140365506330178,0.012712346893307913,0.15218014975352448,0.3422049437124294,0.48115864289288013,0.190335099761841,-0.42216092733080357,0.30586507716033606,-0.2871159122609176,0.6563914434238411,-0.0638459012404219,0.12657604654758478,-0.2966481127293067,-0.11946874374216175,-0.2145483884627229,-0.059878801341383625,-0.027541535271679133,-0.012221125174140928,0.0375624791870157,0.0122751666972792,0.09930945712444483,-0.01545170472736868,0.026399303980801658,0.07852385006517362,0.12771039835369746,-0.055324828214346235,0.014085056797011369,0.04349756096173163,0.05907660183579653,-0.03720380378722604,-0.054885270952873454,-0.10539763516172593,0.04941115476627989,0.13890588308531757,-0.04030314738756101,0.05412164821229876,-0.02205087507523884,-0.024548276000421115,0.04351386516535656,-0.011934465182202071,-0.11585148311001307,-0.057884378923054924,0.06410466692566212,0.009691466745321802,0.08706170084107014,0.17726259615660533,0.054776299979778176,0.006184764856347044,0.006109378454997789,-0.02112745513914986,-0.03490759557765582,0.07345617009559621,-0.0466779854720149,-0.0501025716329969,0.0892619327876652,0.22886203752395307
193.26919555664062,1.5781097412109375,0.2445924281935684,-0.07791710812639845,0.036068941123432896,0.16047325293802453,0.002594068690638818,-0.009878875998825448,-0.003373206974265952,-0.20156452644480177,0.03638191877891108,0.0541163395908798,0.0025897712943673545,0.04716445216437824,-0.014556539152084965,0.15354405540069327,-0.030709058952576807,0.03307243355092627,0.07851860794869164,0.03782192053322145,-0.006918104992812384,-0.1818579817497864,0.16646565500944097,0.24730171819669627,0.7934227642701369,-0.10554597135632873,-0.5012071543702215,-0.9020812698300928,-0.7761063428148233,-0.41818774423750876,0.23146406349947338,0.4636401214816107,0.4812136827366958,0.5517255278646092,-0.036623642445524074,0.24587638454353858,-0.14124091762829882,0.28916505839545115,-0.2660542153203538,0.0010834277200419823,-0.1083730750572677,-0.04155040187559132,0.010268541488333213,-0.09478360850613171,0.5667739066954749,0.3303767710553901,0.5080739993870212,-0.44887834787528413,0.5874519432116323,-0.19467527095065032,-0.7439268579516629,0.6924498266239696,-0.3871969501502444,0.1895014335444328,0.48956128890947487,0.8397413560856447,-0.2701693592755197,0.3113780001721126,0.0647931897874553,0.07259378673911761,0.14527430410874906,0.08314393087044598,-0.016562240181223334,0.027808286309917968,0.08000909562472902,0.5578972244972472,-0.0032220822989017382,0.05296020119590905,0.018058281976973678,0.04920885373092074,-0.07036810456170575,-0.10568162273178164,-0.048611122399335814,-0.0008985585564297872,0.030933216967301665,-0.012881428836688523,0.2087039134354289,-0.15980367028213488,0.1862508391617156,0.03184989512554559,0.0033938817826561427,-0.03762725560356417,0.06925381699798103,0.0684197527417648,0.007603863300962355,0.12927964360186336,0.17638053570129125,0.07256393664411019,0.03136104880603502,-0.04573124702639079,0.0018946396911738023,0.007616824380897213,0.027334710147212414,-0.03269680293430957,0.11160575056965402,0.17155505212184544,-0.06803189913869384,-0.10401139519960936,-0.05433689012659869,0.05701785353066397,0.14772877885222171,-0.1516820533849027
199.7519989013672,1.5482025146484375,-0.03350102000920967,-0.06854870491329904,0.006541581539300725,-0.2266350610472451,0.11252527865889839,0.055535064935087745,-0.037606683932960745,-0.16616473161333453,-0.05228410631622242,-0.0064380470074370255,-0.020645308415432627,-0.09102982838070196,0.10185085575980878,0.12602367397337697,0.015854076883166056,-0.10830164549495158,-0.4150137415473839,-0.051926337765510935,-0.2581741638990137,0.08984854550518041,-0.1711817067170511,0.20409850075224248,-0.09103654857646058,0.22113060830992193,0.20936513691853212,-0.07934450810930173,0.1509935050097441,0.05127073247858787,-0.2698994770003803,-0.6465761688746525,0.3018917778632704,-0.8760619141146715,-0.18994981127954133,-0.19441848378152368,0.47509339030126896,-0.7874761734082155,-0.16795077519510956,-0.20736051442048578,0.47449033773582056,0.36071083409691973,0.2221011952033218,-0.2517531149306324,0.21068585080068433,0.12248851845302457,0.668829671166203,0.21828904028024088,-0.37767414346554584,-0.5069976986542714,0.013350969677320523,-0.058489459592444504,0.053896663999460706,-0.1817002898425968,0.6009980138160533,0.10220014734200072,0.4220681701601995,-0.4867411357219348,0.2871709750226336,0.1406732630014572,-0.05153327059405319,-0.007401830090182728,0.09029516857706679,-0.10780460369125677,0.020071312130642883,0.04332889216131568,-0.06458999811645805,-0.07891952660524769,0.03912638578929106,0.15884971879736196,0.026597093622068836,0.08347302787559263,0.008459395749175716,-0.03462077368509661,-0.040097092591749615,-0.08247533404283791,0.09584435909199146,0.10851008930239049,-0.039031195480435314,0.18032882438504075,0.03177702770855857,-0.08288913602677968,0.1319088118573694,0.027747982979281258,-0.07133034003287624,0.12715673940979882,-0.005772511235291947,0.00015014265665990118,0.07480104782215993,-0.025166422769225934,-0.006647188411814831,-0.08431229531325554,-0.016054293166069437,0.006132582064060339,-0.08781891048904301,0.04745012064857634,-0.004470031056928251,0.09465688735442192,-0.023758694035025306,-0.014668991466045108,-0.1371306813398281,-0.3778251663937312
201.30020141601562,1.54840087890625,-0.23476492917692854,-0.02204873506889282,0.1463511728098815,-0.12485743288825993,-0.08596484816278753,0.009335137864843805,0.09107627292569279,-0.08976053770322535,-0.00964744783240374,-0.12088523737952823,-0.04324254831582326,0.0057959229198274766,-0.00636909908655226,0.09494195296064989,0.045995735733981954,-0.039156281190864076,0.026885905389756146,-0.0018893622550312115,0.0013605214897506098,0.05356214380495297,-0.2892231835875288,-0.040253836001200145,-0.04277321676163298,0.0006070649796816145,-0.0012504380856872659,-0.16898093588981747,-0.054604722561327174,0.26671477491898155,0.01398382610978763,0.19415632704813202,0.06967382072143982,-0.24021722154360678,0.02367470096470159,-0.14158067655448947,0.2031059431870193,0.17313750608328568,0.11522767180774372,-0.037750761406673224,0.003983600076706137,0.06269993013801392,-0.33795160840485094,0.027862073232410293,0.12148809503315997,-0.05961996363593179,-0.1845621316221441,-0.033666938987271494,0.6440625202808573,0.6221687620307503,0.3834582041004943,-0.007662023527399947,0.515143006031749,0.13722282603405786,0.4099826313679097,-0.030574372208927274,-0.14034967892105787,0.08298574959315001,-0.49983964788019064,0.2470708312467457,-0.00767869695551814,-0.0006394939146996257,0.022536865751934813,-0.06166894822908963,-0.007476276182705395,0.07897884409609235,0.07878487664907255,0.061117804581420986,0.058464259648432985,0.036036717352487306,-0.03313048294587563,-0.023833371748861604,0.10561663788806021,0.005647393169093952,0.04401028336066693,-0.06911326620193392,-0.03098946524740701,-0.012722026721101246,-0.09884643972993234,0.13031498931365337,-0.0036374705492559084,-0.11033319824237385,-0.02859444572421728,-0.04936438670613037,0.18620609304045735,0.033320037787967396,-0.003355682175606202,-0.021457209334614844,0.02781495206716692,0.0863820804984047,-0.034855318554435036,-0.13551642771413164,0.06711477289711212,0.055290566086675055,-0.009162339998149215,0.0065094060980769525,0.043025863824721046,-0.034572840964199436,-0.05765066385346452,-0.12582786693531173,-0.09402824662868428,0.11136104191578025
202.84860229492188,1.5482025146484375,0.10256658633069371,0.042727375153160274,0.3619641617678814,0.10723012429804474,0.057186211670400826,-0.12268665333094264,-0.12231422958272473,-0.03831305406770275,0.09264846647782657,-0.010848514579514473,0.028233225522098084,0.10254341190541835,-0.049197785799226325,0.05472359249941008,-0.023857015283420505,8.332524175756121e-05,-0.005344591506114616,-0.07056704989587462,0.031629443503878925,0.037342752755001915,0.008768973115641253,0.06550178774844793,0.005642358947337889,-0.07925430333666199,0.06562695929248817,-0.08337779524109479,0.02124428937284343,-0.016139349599138847,0.15786609388829415,-0.19336314863073023,0.16787642359211724,0.13640344057808798,0.11748539056630385,-0.09566797422300817,-0.021952187566044945,0.10045715111182352,-0.066639813909703,-0.16182063055971954,0.016939886393983805,0.1261446439749176,0.4803580610848185,0.08591918312284036,-0.026828200960491672,-0.6587511728237913,-0.07607571222337066,-0.02631095009383319,-0.19341528410193137,-0.1010996808270423,0.5067305692968833,0.1303584096286026,-0.17145658706266165,-0.32559866227039536,0.2772572115386055,-0.16596885300552774,0.319123986936689,-0.014998709550472167,0.1898528089999416,-0.2816765666740113,0.16424613351620138,0.07158582102795699,0.0017216316964385886,0.03911706289958715,0.05567493126767376,-0.0015263756340545872,-0.0027566753429620165,-0.06508654925195573,0.033680464147929606,-0.08093470223549279,0.029449861576041642,0.03565727886448486,-0.01870510064013725,-0.08036556445269193,-0.08593821822289002,0.031002658808249386,-0.05901981820079803,-0.06194835747945564,0.2122190310597384,0.005497933500070044,0.19790454901983234,-0.081375226933437,-0.15153333789369644,-0.045002176544835036,-0.07411242705065194,0.11723378318348948,0.011452563050023533,-0.02441632609415885,0.07932782991771747,0.05173576784666617,0.07580120657971584,-0.017937361188683554,0.07866536874177657,0.06773765557697234,-0.1447533298979995,0.06302967224361178,-0.0254236343485318,0.1606173038344412,0.017095667515830543,0.03071270559054038,0.07263904538284893,0.06968195323343877
204.3968048095703,1.557891845703125,0.06332183803880792,0.18787506875305438,-0.049741388586406296,-0.1831258447779186,-0.050937909170884976,0.00820529643769714,0.04970482911174029,0.006138772871689776,0.008823179399243717,0.0022632475072389127,0.0009424118208681831,-0.04628872985325698,0.0041286990224340125,0.02191249967126465,-0.06714454056311453,-0.07192697799787505,-0.1353413960585923,-0.05546786053670927,-0.00304737271974353,0.01782207307191861,0.006403390156944149,-0.008508206556087377,-0.017267216602913044,-0.2737791301471028,0.04092131135543084,0.1263971947063485,0.09276259458104534,-0.06100666625034164,0.08364777575773438,0.05301013553627038,0.021041413889397016,0.03965885780858747,-0.059806664921902994,0.1343481836361436,0.11457985160163849,0.09386361846974701,0.6082654953722273,0.2470726777394529,0.42843026661632067,-0.040011429643733804,-0.263446640027312,0.11682260825205595,-0.1761677911790695,-0.5404147920983682,-0.0008100582948812329,-0.08285278521455491,-0.012140020542130392,0.0024588768769598533,0.46759218790085877,0.33479749115540414,0.24190789493981388,0.06358936855307262,-0.10179378294960337,0.07098719049546422,0.260895512752395,-0.41047329696358925,0.23388900855860015,-0.01955116973767769,0.04591278120479941,-0.027758706646363485,0.04628335827264663,0.10968807427016439,-0.0512615563678797,0.07966448124419835,0.009859612589513593,0.07621605176053105,0.037281281430529674,-0.04283402201785558,-0.047215466136585775,-0.12098945467661505,-0.015330929287273552,0.04660774598012876,0.01561138330738765,-0.02423061951213576,-0.0924462881401022,-0.02056284308678849,0.18177762032372516,-0.07742847896507202,-0.3666081506914022,-0.2604331858319726,0.08038460667855608,-0.08658870509817322,-0.05775038026105685,-0.05518667632632853,-0.073598367814692,0.05887114950973013,-0.12948734873613243,0.07615879851853811,-0.16577687614828956,-0.09101971716676321,-0.03225361948927183,0.0663952184718691,0.15209739302435307,-0.07184611749753479,-0.04303138494942598,0.06187451394111995,0.2325534574742974,-0.00843229907401117,-0.45345161891558317,-0.022672617917100114
205.95469665527344,1.538604736328125,-0.02389336780436655,-0.07059456589137383,-0.18860499213473775,-0.02080400863430125,0.11935960458716349,0.1158367733059473,-0.07420146531878526,0.003358754306230462,0.06729078568605562,0.11849669274496685,-0.0025784114287911767,-0.009823356658386668,0.08068209259718254,-0.07451433391300824,0.013679925254760614,-0.017171230679929803,0.030382404257243652,0.017551799789749314,0.02545230914193899,-0.03730149020771626,0.17725408866062925,-0.2744073095762274,-0.27053279172480216,-0.2807222747767434,0.13888890452883104,0.00929450609428662,-0.06027650929057257,0.009160085635706229,-0.17529929009861964,0.17372800251658457,-0.019076229545543916,-0.02490082298970619,0.10998344095336779,0.0012449523119768282,0.10035894449101929,0.010081040562145555,-0.11654545212320044,-0.24234452781700866,-0.24886905882373092,-0.44853789326380344,-0.3039726690388246,0.42732472104218655,-0.8407013540942683,-0.25646983856551236,0.17504299201048654,-0.1414024041024241,0.5050976200830488,0.22897441141343963,0.19495189249354805,0.23069941302978972,0.047820503689838596,-0.6297259168023583,-0.14251149795127793,0.24343242279589045,-0.20299308177504538,0.011824479004683773,0.13354124229653122,0.1876784366978362,-0.0036877797360994717,0.03334906119203608,0.0788724847603179,-0.021130879521440396,-0.0388225303387888,-0.0008736387671284656,0.000554292270233181,-0.0063879242690658075,0.002633328310868783,0.09377142910036135,-0.015216774546402911,-0.05313032595732313,-0.08810814958298309,0.050454035046666054,0.03289617031891641,0.08921254032385284,0.01319032393724301,0.010346452840280866,0.020064770313476116,0.06461612535109006,-0.032480086343153705,0.09316448629851705,-0.14639679500106648,0.03310651330095522,0.056941363250498124,-0.09351304092252782,-0.11950714304981774,0.016802675097159783,-0.12193820589072556,0.04845598996691271,0.031258636559026956,0.004436532254747334,-0.07662225340324977,-0.11967460209103896,-0.017118543653975825,0.02606000989600772,0.05887473717392083,-0.07209189923580224,-0.04953146414249185,0.1383474524804641,-0.22110642611423015,-0.023438799452645827
212.20799255371094,1.5279083251953125,0.0049446763638863744,0.25440840566926404,-0.027377054388552147,0.19319620712011468,-0.09087450726957509,-0.37142546507827884,-0.024981282705596457,-0.016071140788629697,-0.006113292541955528,0.016713288495113984,0.21397296599169346,0.04188375013352788,-0.01956292465925909,0.09569056234690013,0.0976707018949449,-0.008290588466807802,0.044114259316107865,0.02347384644993983,-0.0014442780041728578,-0.10987949553636253,0.011610969411255197,-0.06764778816059024,0.030689880731257044,-0.04093379118873627,0.02905983662930528,0.05201314027630417,-0.03185478247464815,0.04858975634692587,-0.04537857440524739,0.2126785008337202,-0.11656660999951661,-0.020857869709571597,0.012926925006127464,0.051550810551936416,0.012106546467293214,-0.12264734037824637,0.10984626001839629,0.008307886300985192,-0.09483411807755153,-0.3329410621981922,0.10655594558991834,0.13466562746011412,0.26389368493693083,0.019318415457841652,-0.07712582818696954,-0.08780684717449885,0.23758403380407114,-0.48540345078108477,-0.2843779953702002,0.3473002332848262,-0.17632650807750694,0.1497931323362517,0.24002042405339954,0.1544734794837569,0.4373974789994716,-0.09305065388671076,0.13252541300474396,-0.08223943041161597,-0.10588646132080413,0.03364299689355851,-0.05654359392566997,-0.0356057646640543,-0.02542474122301133,0.053173917798362905,-0.00017940625363708877,0.0034169847753015136,0.05731140266534287,0.003664635528329728,-0.004799303023647491,0.03845919603457858,-0.07323703209082003,-0.005578907515161172,0.0064942328527627284,-0.04930513008889073,-0.08256288384709042,-0.016610120908537647,0.0940170411669801,0.026999948408314725,0.0506899997255274,-0.1933887974036293,-0.218918450682133,0.11703469247602315,0.08866323496718416,-0.07723040942660474,0.05558106166674948,0.07235592988212623,-0.02697180101068918,0.09106995655235818,0.0411782858710977,-0.08880949416917999,-0.13487144769384912,0.09722211355831284,0.004837762951037291,0.014190332374132964,0.03636416695349477,-0.003207525655262104,-0.01283207929612929,-0.07179975529766727,0.12267207980321695,0.10345379261401774
213.73590087890625,1.568603515625,0.23803100273400984,0.0761170159386226,0.1724903061882618,-0.07177845322041589,-0.07207635629782919,-0.010112505552587121,-0.16771227719801726,-0.029618874507856822,0.019960838205624228,0.019887372530538502,-0.08277602596938657,-0.4758857912171841,-0.034125880323480004,-0.01503152633902284,0.040109750245934044,0.015033261236002704,0.0013298051083307436,-0.03276045524124616,-0.049507629211820926,-0.10135918850129935,0.05202381496458529,-0.1906406945130186,0.0363210910055694,-0.189986647375552,-0.18357509191419555,0.051275629865481565,-0.04255046405227944,-0.06487587324798202,-0.24020707796643923,-0.2106885606621482,0.24871203795232463,-0.024701261824420694,0.044125265665788144,0.13689109008401762,0.050505679795165924,-0.09835332351283445,0.09275110445275847,-0.2167326039667023,0.13704342850975065,-0.09948062191905728,-0.2635322591264453,-0.18951859624995174,0.06783755597177335,0.11503683542015625,-0.35458796497865275,-0.07676900886790865,-0.04929233743069295,-0.5245003365191112,0.13634902532700177,-0.21018273755150976,-0.8392598175674748,0.035031970614224944,-0.7784031352149834,-0.15529642071944394,0.19955188527259934,-0.015060728200925525,-0.1057524568098624,0.18189438838474997,-0.01377182613846814,0.003028422705606399,0.08914942100838212,-0.03867971577897541,-0.016913343432940865,-0.03715673484817634,0.004736454861700025,0.0743603909856121,0.07067736362166611,-0.12130758461164871,0.14482445432070293,-0.01631707892431701,-0.15783546544918434,-0.05013297786623662,0.004457654955311059,0.07087161080778162,0.09605981821462943,-0.08331815183058924,-0.02081002892191918,0.03641867911090649,-0.2058214949303498,-0.10883620041171588,-0.002908461653896968,-0.04391697683868358,-0.02557789810857674,-0.04397537540351313,-0.017821059594449754,-0.08892487057637595,0.026895959740306327,-0.016967859517798424,-0.027943658650307318,-0.007433529613603563,-0.07191786352311365,0.016734044684430446,0.07261406716704455,-0.005976985805387758,0.012274520675943548,-0.08189238642517857,0.2018655442283444,-0.08491380986651528,-0.3005794694382749,-0.2164005464799953
215.30450439453125,1.55780029296875,-0.21920659064772147,-0.26398369640650965,0.0030169036668197605,-0.07008833296404125,0.5952817309124757,0.15002206416362962,0.0857884780036762,-0.12192118950354433,0.013801923412812318,0.023600040720058054,0.07221804156168904,-0.05974503110974089,0.09643300337578448,0.06979104468330748,0.1030150026499714,-0.05851876001529797,-0.07265876397079067,-0.14570544809455435,-0.37212126740428797,-0.04207597948542456,-0.0682045830404827,0.36719139483518465,0.21931686582374674,0.07202313555775688,-0.051777534057497215,-0.08333930425340053,-0.05076290748958609,-0.07291258602269358,-0.029409633688420977,0.02307645347737189,0.12791787167224317,-0.10811706714636865,0.10751058507802728,0.1837566667488302,0.09786455709757834,-0.5688466343632379,-0.3096299545630006,-0.02613757913067217,0.14231167163981817,-0.23902845175572507,0.4706706432002944,-0.0806866646766752,-0.3235416452822017,0.2622566165414647,-0.22759988057901898,0.6678527920808562,0.3446425896801013,0.044622266379833145,0.6516476127817357,0.1187181999270653,0.12131931113566402,0.6547607979370547,-0.3349556035068004,0.2976301521311482,-0.09550986900156748,0.23025522100246681,-0.19963389086499939,-0.004149657020549873,0.011894320623426307,0.08757989081702403,-0.039682157468072236,-0.03444888226428661,-0.0440455566621099,-0.0010241688161212765,-0.009256590396741234,-0.038968725820802894,-0.06283720574411969,-0.04887469242138722,-0.02098409702885973,-0.03687035065856806,0.008359254454474753,-0.030121865796988254,-0.1513746235397191,0.08251375992963816,0.1392569613726792,0.0859984169006033,-0.18341964878784284,0.15410985819823145,0.28300953935406103,-0.16666447818487085,-0.07579173789877147,-0.03913103097534319,-0.02272894636980253,-0.06251594776746454,-0.08151018766804279,0.04953672382237525,-0.042174700941849254,0.003542284156239245,-0.03886188896659781,0.027168067455996408,-0.11979775342038543,0.030935682165282044,0.07437851786536712,0.03037721387883261,0.008018896385054248,0.01875192108946048,0.0038094879583709775,0.09677685179905124,0.1516774772891587,0.0922209216945478
216.8623046875,1.5087890625,0.22596996203702066,0.006273010826037234,-0.04415175224031131,0.22933537672777288,-0.05923343996967945,-0.11480065540133834,0.1451011204943226,-0.05166927145630936,0.044297769271615196,0.006155039962005171,-0.09023923810038598,0.02061768725037335,0.012796803329757814,0.005910136239625459,0.01272719607005805,-0.01646247756137893,-0.041621207472452536,0.11198787365986414,0.05300528615046104,0.013302716990011579,-0.06706004060781026,-0.00447127682005365,-0.04538884631507031,0.06276639338396497,0.16176494884008388,0.013614663306480812,0.1654359474456958,0.37406233567574143,0.1238841137621247,0.24142212025801454,-0.09938557478903641,-0.09875847405949924,-0.06700564219430477,-0.0022312334827384595,-0.08017253592078527,0.26579661661740867,0.04133221759112597,0.08580101420204593,0.039796836786915604,0.12798682881691645,0.9677314181294022,-0.2964023525582892,-0.2196485893280518,-0.13199046598475278,0.04072150096213865,-0.040848160833963726,0.19647810157214493,0.10164757207008535,-0.349958002736354,0.14607740870226643,0.5346178295516905,-0.2504447452264904,0.2854396323310595,0.23040213352103847,-0.30024929568303027,0.1687035244138346,0.025109595669659084,0.09537389899106431,0.06990762802565759,-0.03626518553914671,-0.004414033207883359,0.008398791738739744,0.008785736159897473,-0.03864605070576076,0.01328085503453354,0.01386494473094406,-0.0878186501739163,0.021177741241067423,-0.1860462207396187,0.07144218856232024,0.014608426801742328,0.07053031624493311,-0.055623874882267964,-0.043340794078364005,0.056110621025888895,0.029786900756387544,-0.008857935330909505,-0.00819819990384098,0.009046303404406982,0.048015662343668525,0.24354004230670603,0.09016073771388844,-0.13661938365257112,-0.18379116217101643,-0.05842598266381431,0.10537896777252145,0.15700480666592892,-0.0079029535617568,-0.015849752665076308,0.010660592820924256,-0.05219151872779432,-0.011470001152388592,-0.16093978024809252,-0.01565108128630992,-0.08818614415404805,0.049903735818427206,-0.01857440430191084,0.1090788702793826,-0.061199913328045606,-0.10411800176369634
218.37109375,3.076202392578125,0.024616790137820522,0.017594961501018316,0.14319570280807226,0.06422240142938589,0.21058484204163813,-0.24630611837902744,-0.10887083643015928,0.034952665485768614,0.041147182649390865,-0.024104409401213018,-0.03561709067461141,0.0039110235567700775,-0.09595313751823689,0.048680622643059945,-0.02687276526586739,0.050890179335992124,-0.052705886396997144,0.04977549059274863,-0.010759572705216991,-0.008533691909890236,0.013799221421326929,0.036551519108689416,-0.17271767457403583,-0.05430021583577884,-0.028339058814535682,0.06777172173382756,0.22771787749750755,0.09196076559677221,-0.05768366865416401,-0.2556766047786475,0.01729372815132601,-0.009375845939003823,-0.1476391651186476,-0.041040833016968994,-0.14531874727261423,-0.12631983933240043,-0.14843093273768193,0.40667674901020173,0.0340278653364707,0.10338608547010357,0.07233430368281553,-0.7604031147754433,0.06676242104585503,0.18632835162375558,1.0346289882008508,0.2016077471057378,1.092954027827632,-0.053801096633014175,-0.18752462986677182,0.09717953528641156,0.5736430289378158,0.04260018580122053,-0.14824939931645556,0.10629766168006444,-0.04170852767585309,0.07028560804283526,-0.009693873601773992,-0.023657849144043473,0.013352447737938603,0.03601917192778515,-0.016127685695430986,-0.010363319178804387,0.006321333564697775,-0.07882767680146974,-0.01894335878210122,0.06987620924977396,-0.012165563369302893,-0.020634449319460894,-0.04164305112171546,0.05438591466913609,-0.25897029385483555,-0.026720685160843687,0.015452304082889307,-0.03167243884182388,0.061814727392892205,-0.012093119404608424,-0.13538026621994081,-0.11802073821992633,-0.0554181276604062,0.07278682430792337,0.18268191001148676,-0.027784092728078996,-0.08783051251115621,0.05273690461980939,0.005120783885033418,0.053494287585082706,0.05467577585526036,0.055638664260080406,-0.07858447336984903,0.07515926803747437,-0.16112501208992072,0.005100314806596468,-0.036014237114034404,0.16836021493549824,0.06199397755422385,-0.0633831235834655,0.1283042734594682,-0.16365160065710654,-0.20048893817604385,-0.043349752375386824
224.74339294433594,1.708709716796875,-0.0425308634636313,-0.11960204688307742,-0.10163093577216936,0.09952666276062647,-0.23295259230652451,-0.0033576014874863447,0.001594783176918616,0.005797936763841019,-0.0034862428026382055,0.028318448588978834,0.22744980112029703,-0.1686540606671538,0.037640141145199014,0.21012796625843266,-0.006168855126343211,0.09072093930413233,0.06121038792675119,0.6049752212659602,0.2188147339698655,0.5445811002597396,-0.1578910955917267,0.3792161461718153,0.33214734252477224,0.09194254413402342,-0.5975026271116304,0.09775635276506656,0.15978183235822607,-0.08164578272457407,-0.39129839410396683,0.0595401079647178,-0.20363239906444747,-0.016793949628062396,0.3954743132404577,-0.1522076424889288,-0.008265742189526193,0.05996537810418709,-0.6512654975287834,0.3330301703519824,-0.025998746010842576,-0.029249841158092926,0.015123402732043767,0.13545717735180718,0.21241432963556087,0.16228331752838307,0.16862402096425835,-0.8469476994645848,0.0023574866339917677,0.26962766607078215,-1.0831488919323025,0.6173138828427535,1.6896911504794192,0.10298579124965952,0.06896959839427677,-0.007398011146739255,0.1282189497594028,-0.1575953874745737,0.14795487058372014,0.02509917798843827,-0.05209193300194846,-0.03196493200088563,0.01754525696806388,-0.019573365613519123,0.10206404369655679,0.03437389941490156,0.017408526796625204,0.024796632249348537,-0.05714734966993135,-0.017720310270251213,0.045034350037854075,0.06060102666031459,0.006603074133765314,0.06687472802480265,-0.024005156855855,0.04356537507527025,-0.09696342021906403,0.03281367514822241,0.22203458716835842,-0.1602399653720114,-0.0731936066068633,-0.05946165365489382,-0.11648817634968975,-0.08433109603701841,0.09750360404507992,-0.09177677520317805,0.022708647332099804,0.04602097983901034,-0.08044755827559762,-0.18601907785859514,0.10193018425706629,-0.010233381600842424,0.09522182478677063,-0.004761234165309341,0.06127324208741746,0.029906266050951587,0.12482602890752796,-0.01778008854898754,-0.02599713295944951,-0.0019582759230127064,0.09538212304883208,-0.03271194079607447
226.4521026611328,1.6282958984375,-0.03805270861745833,0.03462927447356026,-0.3808725430891803,-0.19733387766095262,0.07241458416729607,-0.0633458957895654,0.09440688701324951,-0.15062290806218837,-0.027841048910240224,-0.18151282392853904,0.053423863994427105,0.15452883288870678,-0.05710107264628181,-0.21786345478433014,-0.01252066670919992,-0.2668094503461503,0.038686022298396225,-0.007856121563209213,0.03783099013773323,0.0823279564175676,0.00613992210967755,0.15344049734391632,0.04867892142950202,0.0009960102790064647,0.07555835428872715,0.03849137893393931,0.014752371662793447,-0.06320964121743575,-0.04364361237921866,-0.1690595562483213,-0.05431544460982169,-0.29888614739569674,-0.18000181911779609,0.07066993028025215,0.12283523111807558,-0.16962558508396008,-0.16188847124028158,-0.34810468411025475,-0.14351525086569286,-0.059724304524042954,-0.18317320974535423,-0.04090040973793808,-0.32615398967280107,-0.252057547486172,-0.06568855474985094,0.17294728713589438,-0.0888673813643999,-0.3596002872688824,-0.2795808116254423,-0.7023000848503136,0.002533347390484979,0.12127945461586473,-0.33873543990186544,-0.5532722572715021,0.03903103581948241,-0.12798924520939187,-0.1267178892973454,0.17503575278517808,0.005549222099773793,-0.0649174967834437,0.006937942430725654,0.06959825385002245,-0.06706619507503431,-0.05150492665233468,-0.05717796747655181,-0.03878833025443164,-0.011376198872122135,0.19210054233067742,-0.25171395910633343,0.09991272173239032,-0.10678408594010969,0.028896635074755737,-0.015781306741514352,-0.021895850764663854,-0.07077405260223499,-0.13346887206773259,-0.2010923452278655,-0.0730958393814129,0.06340372269431649,0.14930979150610302,-0.05455620298216581,-0.07505456998930254,-0.007827872432594961,0.08892924086156279,0.07332338787445906,-0.13157627693769877,0.17096572128141166,-0.022570247907000237,0.0684701265639295,0.047772325172930646,0.05484056657388565,-0.001956827014534918,0.1346716767628132,-0.03486880918236146,-0.00037755371112535704,0.047852602092092876,-0.040016601121077855,-0.17134101062123194,-0.14838483219237003,-0.16892281642889626
228.0803985595703,1.6678009033203125,-0.18197602524689704,0.3206990284133488,0.0028067098452560107,-0.09281781410360976,0.04069151115924538,0.184274172314529,-0.07127533239291398,0.02769292019272903,-0.01776379840231467,0.08722941106402853,-0.11927328708478824,0.12494389768344288,-0.05010133038404226,0.004026042145596109,0.02748760456369828,-0.03993770604250031,0.0005308278838252585,0.004660766789407301,-0.006488163042131084,0.04453164060433244,-0.031656160277583195,-0.07158328236303606,0.06936137351923057,-0.034150067420073385,-0.05047674608148256,-0.09811466331997744,-0.08072421409937605,0.13407475883203437,0.01929978998312072,0.07115989438039365,-0.02569295484280548,0.12641608754681077,-0.013971480516876439,-0.09510277613517643,-0.12926774499333796,0.11153296002887388,0.1378235806896631,-0.0496005420486831,-0.02169005969995863,-0.2707774112819551,-0.09142414196886894,0.13005318093116267,-0.07118887271195437,0.025579540007361637,-0.31445076112882414,0.04232013262999475,0.48754948212016375,-0.6554786810649816,0.9539249234972104,0.6343468828324779,0.10056422097155346,-0.06631365263940986,0.04832172501162632,0.1742496401305856,-0.20451479606022885,-0.16328348436258655,-0.08373889565455478,0.11760640837448508,0.10934071551230332,-0.045324604451078006,0.00142348709210275,0.02931462516778108,0.06998106526776293,-0.039848242634867546,0.004013677419159194,-0.015796228473306598,-0.10506139641864042,0.09526715892069229,-0.05886162384612745,-0.032793677016515345,-0.09085535910841804,0.1011030058127069,0.0018557758961055028,0.07943305508018547,0.07078120618064816,0.0938780867621854,0.1643568294623249,0.006611072852495051,0.06028697273856942,-0.021455516725657597,0.06256766838733066,-0.15410326944480968,-0.053966775545387036,-0.11681794353808082,-0.0917972199253514,0.007124667763559916,-0.05838373254129816,-0.1591291354159428,-0.04385450846507339,-0.11261539629492419,-0.0026097551265947903,-0.06323037159587333,0.0519796669846361,0.04906097242547892,-0.047650840681363604,0.10358778495326816,0.03378520838226656,0.013074225468849161,0.1216091861577671,-0.026281927478122892
229.74819946289062,1.5684051513671875,-0.031473710950594445,0.05196255473733558,0.006604475524024787,-0.08061280428955735,-0.0872265690787987,0.0025712776485370265,0.09903166011556228,-0.08708752347487095,-0.08987680494973703,-0.027310382756213874,-0.05721929125603893,0.07102517928392892,-0.0885800602564436,0.0031709841785134835,-0.0031207887925269475,-0.049797721112038076,0.0665187480814272,-0.007279210140842509,0.001618564617069121,0.004467339417982524,-0.011167362522516551,-0.10319213157096857,0.015756069556111384,0.12929268577240968,-0.03997818881956578,-0.00787135422061175,0.05376747216655761,0.2512758568573204,0.5760171069702293,-0.2388129917254188,-0.1027714792804448,-0.3331064859960803,0.09707979306825512,-0.10646171147469258,-0.014307721771921855,0.012284267374066918,-0.1498222079482251,0.14243920084252182,0.002864894099842863,0.01147992294203981,-0.5553683770581765,-0.7787153378189065,-0.1285054359098783,-0.6263769474795569,0.6731804229346665,0.008246015253704664,-0.0666777079450025,0.01601456376838974,0.31169684140632065,-0.3549622258388752,0.04787218002237387,0.1951201905600609,0.20489690114731032,-0.38280912510163645,-0.755321355856246,-0.032502552934078686,0.035798717151555144,0.04882134047005936,-0.16884654284164352,-0.0513141933698369,0.05226836151995321,-0.015866846413413065,0.05045125502483565,0.024279177607361313,-0.1073282106691409,0.05584624608546268,0.09229877972914563,-0.010255797480613213,-0.042764217478873504,-0.035759641216712296,-0.01527434358969644,0.034336345911362476,0.03872360518512565,0.15088080038606075,0.2944081147871165,0.04987233018969432,0.06601567176571055,-0.20286609726135862,0.017712811688912464,-0.008413667076273343,-0.008076676859893188,0.12840183052511717,-0.05308309528667211,-0.08587672356014256,0.043599102288275564,0.07501497024276008,0.0528100095255273,-0.08476599894559222,0.051106912375510856,0.036484403820840464,-0.03196426186900622,-0.047937715335118966,0.08478657047287882,0.0344826578255964,0.07572572448988166,0.022916730977743636,0.1230477141405108,0.02322778178503498,0.2191569342263847,-0.11235803422987342
231.3166046142578,3.24609375,-0.11292250737857949,0.10477247009371549,-0.12677816674221,0.06537051337519592,-0.20335210734232123,0.01680834407961185,-0.06121392187348876,-0.257578248260211,0.010798124970272618,0.05037078704969244,0.04148808152277103,-0.043450738135051285,-0.06500329680295737,0.04796900346486454,-0.11883775057756964,-0.12099767048107793,-0.1484698673145629,-0.06796233402443164,0.03177941914491804,0.021952869868471614,0.03176756343109594,-0.05581579117515496,-0.16319231686419725,-0.025063469123974995,-0.09271433644816408,0.07719596008574044,-0.02594339339700466,-0.40404389080735026,-0.036292809456475145,-0.14497605630092938,-0.20383042504453439,-0.02735942722899068,0.006130124277959781,0.35936137057335066,-0.05964056315822812,0.08124031258881895,-0.38089982237883496,0.3839117745932716,0.004074473302107968,0.15935211606210015,-0.10446457938929485,-0.3355535281996021,0.012736606150040151,0.08374971806666058,-0.1113801893799309,-0.40031703081257136,-0.045126876707996345,0.46177314010990733,-0.03282997864727128,0.5093242079870497,0.6111919520400457,0.07672008088570427,0.3528230228948196,-0.03276234596750799,0.3219163435330001,-0.14617950341283406,-0.08948350268052627,0.31414527723809976,-0.08947246473823076,-0.04977457911805672,-0.12439619411363674,-0.10327259439783124,-0.07914371040838912,-0.042761448993468794,0.036791508855958804,-0.007754454752870629,0.03568188691035144,-0.012040877678200567,0.021634881537225908,0.03639137638759895,0.02252863188138509,-0.0754525071165497,0.010542306587372055,-0.032711881652384804,-0.22656932817714884,-0.11489080927190304,0.014989186116754016,0.1263490546849804,-0.07797803305054256,-0.04546453359704671,-0.13231729351337426,-0.05475929831621529,-0.056500039488098466,-0.07422193132349016,-0.028341649494775793,-0.06640816247693199,0.017238316845096163,-0.025489972752767355,0.000564500727672695,0.03949637074351754,0.10844857238245799,-0.03236875340754355,0.04154343599189175,0.05302901664519999,-9.531119489001715e-05,0.1644375569022907,-0.008293798064315717,-0.10552258608700646,0.016837667969129826,-0.05227793056662068
237.86920166015625,1.6082916259765625,-0.0035800810645580383,-0.0646294325398568,-0.1454616499496304,0.23897006821974084,0.2488802604019379,-0.24901938130559442,0.08023272198653862,0.016336917090754875,0.05735957600333723,-0.003837204680372592,0.043264315758401374,0.017123223326400885,0.09894273449495955,-0.013690815802141848,0.09040267519149031,-0.015322688566794126,-0.07266293268335673,0.12902460629274154,0.06916140198777024,0.03021096169301013,-0.19222403716164932,-0.03931091126100812,0.01624479215387465,-0.04652089003685425,0.013127428036111319,0.03060389361589269,-0.3543649091372586,-0.2643695716124972,-0.06549453807746514,0.2944820646277774,0.06964350676317782,0.04352760035454115,-0.014628469517180265,0.004271860619940004,-0.1314935122283348,-0.09992378908190432,-0.023271354028913067,-0.03688899280033802,0.46982246010899137,0.2830752382607795,-0.2494606595295002,0.33223262147489063,0.708544283000244,0.23939568610846618,-0.15211280127710208,-0.06239766115705708,-0.40435868459584057,-0.24051567808908947,-0.13978866418858504,0.1255548120564504,0.14519267911755246,-0.2648941921372847,-0.08470141032430173,0.20882677236479452,0.4289285769323367,0.12950072099130894,0.08486685302403064,-0.005079932075566396,0.4693171218483473,-0.01061792688716029,-0.06439383105360921,0.0927768851768963,0.013139677554808606,8.319962195088614e-05,0.0014568263087040869,-0.02589507916755503,-0.06629836155333599,-0.04794514181210913,-0.0643988658872019,-0.01839386597085708,-0.0329769273514468,-0.18225710139941032,0.10439516709286403,-0.03692442060415366,-0.0922828671225786,-0.11813804872564437,0.14916277908294132,-0.1401925033248088,0.27905455939045753,-0.27040970523835856,-0.050340444231741284,0.11123347337875747,0.07782351928013947,0.06160487016524292,-0.03924062699636816,-0.041958830858150636,-0.06037013590381586,0.013472908286845844,-0.0009438916462521135,-0.037390281281882105,-0.0532125747950041,0.09579589651767421,0.11396179426650842,-0.08182130852213931,-0.015082001078189466,0.01189063974146328,0.03180110034217621,-0.05116318520277439,-0.052515837429991906,-0.18710951108179005
239.4774932861328,1.5876007080078125,-0.05565026504163062,-0.004133636939638693,-0.20239471623411515,0.3263599402882768,-0.07971476566928512,-0.049366829856554606,-0.14205484159955967,-0.023083104599859128,-0.09615334124848919,0.01218816694061473,0.5307274832359721,-0.037793905084099196,-0.15727232786112677,-0.09076473902436508,-0.0006225854070178796,0.07253733614207536,-0.016429220228014754,0.1898455050672608,0.10406418051906008,0.09582948420464801,0.12801750819463853,0.2616740924186846,-0.054379651838894524,-0.13151887156452902,-0.025650262421764082,0.1321264616120951,-0.006976439855408939,-0.1486818534632479,-0.06264923208468581,-0.05303616712059303,-0.0524193414741469,0.2035711576538744,-0.115038852689139,0.502480981284026,-0.028533372307926054,-0.28400160725565904,-0.21474594410815998,0.14075579947394962,-0.07670094726060765,-0.0889999889733388,0.10518662876119947,0.09959796518792514,0.4114440603525541,-0.15396343722279135,-0.2572851641072737,0.15387789393038265,-0.08063723982808615,1.0171734220421997,-0.5679325242100026,0.4033123640061412,-0.13777263072669266,-0.3378144418594407,0.14995705855251268,-0.30424764232041224,-0.13859488413400442,0.005271145840578357,-0.015817522790405575,-0.12275640683858295,-0.18715000261333928,0.05385887378978725,-0.017124844023126005,0.01905132648343366,-0.041419052451904165,0.01166726628061782,-0.1253492618755768,-0.04781627328687915,0.006749128170381779,-0.039464155065075,-0.03394228735901865,0.042228144737333405,-0.025256181592669735,0.044108598948822186,0.06342283173699878,-0.1895497485559144,-0.22339560593793248,0.12858125675842352,0.01233756589153346,0.22410376013477598,-0.025677462537111152,-0.004431996267667601,0.04760068990883744,-0.01367758807771799,-0.0658607806232317,0.05969798830310431,0.04958267302205599,0.0080829925234325,0.0043782898317515214,-0.013673131083481197,-0.11084813361214829,0.06160863121503422,-0.07594549453398657,-0.0028385527813094306,0.00559621238691689,-0.02876249712164272,0.0924413389831609,0.028986044357935448,0.042892404277757916,-0.06005454491913999,-0.05647293058287508,0.005751427863484884
241.06509399414062,1.6381988525390625,0.003832890873949363,-0.058529712296570655,0.014201181909197638,0.05601981007734188,-0.019752432157727557,-0.08548881981048398,0.095209332982137,-0.022847345581653737,-0.016132162314675007,-0.02154204314767392,-0.13844387054180898,-0.13720173344020967,-0.000684977039617545,0.00012800868321081573,0.0010574364386993131,0.014969300795235488,-0.0034773436648040798,-0.006416743608779122,-0.03332725886010161,0.05692006022348703,-0.086849566896292,-0.23540814175629113,-0.16900933814344404,-0.07012896410618459,-0.1478295252050898,-0.15318995025582519,-0.023375343698488885,0.16652859496786532,0.08020966304784108,-0.18075980777711506,-0.06575428199542592,-0.008442644694034624,-0.11877349132685017,-0.08715103129608087,0.31823729262637257,-0.06604487628766131,-0.0869362991554149,-0.14086597349072988,0.008443417946071062,0.25550586540646336,-0.009614261165767399,0.10293194015162957,0.14740827561363115,-0.13732486186301526,0.043181335955972414,0.06626532651605961,-0.14677472800907046,0.15442841450223843,0.2670054216705425,-0.49638865472627247,0.14297935443560436,-0.08132769811487958,0.05146924910170575,0.06356542569010443,-0.031616615436717184,-0.10086813380578834,-0.007587470805418564,-0.13016226626427577,-0.04008013952959808,0.050970489128032974,-0.03045605609437777,-0.15767754509656254,-0.10796812622330677,-0.013445353619108182,0.03583519047979393,0.1170340167710073,0.06570882612029089,-0.032250674700984285,-0.1293582372323081,-0.06839209899717183,-0.1364678855188713,0.04140420592545495,-0.016357088574683327,-0.13600883582535364,0.10739248784363335,-0.03983293404660562,0.040878839490804446,0.05776534778843802,0.0622993823876201,-0.22290994235603148,-0.07013723543562,0.0834478777208641,0.013585659207394593,0.17039493204785464,0.08676610029344844,-0.006662978306757897,0.0030615218491674943,-0.12953982675358444,0.024027670502937068,-0.025654732040970168,-0.013919034720145355,0.04295515209617849,-0.07855462971166445,0.0016244066261230199,-0.0014269153913013485,0.13416151195374287,-0.07098822143534657,0.06279706111528752,0.18381359964063707,0.057960419072506486
242.7032928466797,1.628509521484375,0.047111866891322185,-0.028566572019577866,0.09942088841434123,0.02583846618787982,0.04278244331168758,-0.009936634448804502,0.018501512069951348,-0.01716334180665206,0.004218859819412886,0.0011753374954944114,0.027926023896896097,-0.0647984122386464,0.05399325360108631,0.03743921043225171,0.056385409115646906,-0.009572393486067662,-0.04003293664129378,-0.35616733087627456,0.19234028845615508,0.0427508324244556,-0.046178176131934666,-0.06063941834345523,0.13010717013859624,0.06481077090501587,-0.2338655301956038,0.30679203591498627,0.2644383903663795,-0.08165614442565175,0.2139970604855721,0.1090580680419985,0.1937708579997303,0.16099070322700998,0.25899611711541976,-0.002681880765230611,-0.5274432315998016,-0.052306085065475315,-0.26987871182784595,0.5117929069121593,0.24729609302928857,-0.5178164166071207,-0.6581561286107934,-0.2598335511365938,-0.04997096620373995,-0.05169277607259414,-0.18054617901847275,0.23412440390343006,-0.6097557660789894,0.20748635033580026,0.5636508613490828,0.11167548355161687,0.22539886095205142,0.3566775078693193,0.14916705935283003,-0.10460411830125682,-0.060395144102515654,0.29202558147709823,0.0638259410734633,-0.0019199744964058644,-0.010668354908040968,-0.013491718276289635,0.07298251415888947,-0.1685352815360814,0.029973580978483585,0.021735629808144058,-0.023358120419322455,0.016991046427182497,0.021653911721639003,-0.11068493828303762,0.015351701573711074,0.0980451820002041,-0.022411954653418095,-0.10146210873131684,0.045524492643650466,-0.005286084104227819,0.11387482581090837,0.05628131622173417,0.0504170043347788,-0.08182668951238735,-0.2466683207363953,0.2215346133739557,-0.066574318014034,-0.01604166657510408,-0.1298623329787748,-0.14875941732059217,-0.0635846386987048,-0.12687245075632367,0.01024140043540687,0.0024103256099699327,0.012388586217913071,-0.12231886451210204,-0.03218326989033205,-0.06202870534097168,-0.010640174525191521,-0.008641433165633428,0.054576973242906925,0.021869137972223035,-0.0802802582622992,-0.22177564782142012,-0.22858874735681656,0.06679559438233887
244.33180236816406,3.3762969970703125,0.06472938195460762,-0.11613623924532072,-0.3067384526475704,-0.04676665468679293,0.005422668559782934,0.06777870071832923,-0.2998675081500765,-0.2720725845050732,-0.018104970407282164,0.023749260637535283,-0.0056306051202516,-0.11554979622620697,-0.10690370008954404,0.034577975502243126,-0.08668027451267311,-0.22695694294524318,-0.19920426538739772,-0.03727640099587761,0.06789111665839895,-0.036351497479716374,-0.0037660200984885855,-0.07142830869790144,0.007609778659659674,0.09585929388711163,0.02724419572575672,0.22356190836255607,0.014332833617322098,0.1540586671445872,0.042568117909003125,-0.0012899741375080875,0.017335395359077292,-0.07963060512835317,0.12432729848114611,-0.10539851051850752,-0.165905561813251,-0.2628870891845008,0.06083962876208388,-0.017686676534396477,0.24569348484307912,0.23582036843141713,0.052524020340197014,0.15293649364900175,-0.03429751362230556,0.03589499582524318,0.013659953578847764,0.2587507227727587,-0.4240775482277768,-0.05369126492038255,0.31553568423870415,-0.6569262316576503,0.12186374912071002,0.16032290736749377,0.22395911910367686,-0.25766502535138214,-0.04667017806844311,-0.018824139454180266,0.3574484120695667,0.05934356417065352,0.1445289765236396,0.06956133172992644,-0.0068926371311392245,0.1147891681824547,0.05174757693790473,0.05505501523709133,0.02944937906247995,-0.008587909838415897,0.0007537651557255644,-0.06605576371617564,0.03548640288355143,-0.004580630765393774,0.008903117042859758,-0.0044382989547047825,0.017839202314857278,-0.034688208653163494,-0.004049002645680998,-0.07114876335031368,0.05750085603553143,-0.004755355056163146,0.006237338359218317,0.044894081749306765,0.017850925599894197,-0.029564132922653565,-0.04627788008275832,0.07199792603363858,0.007726699269321876,0.11671526687313268,0.01276136270519233,0.007397338485144571,-0.012042310423442606,0.13323166634992445,-0.09807720907237902,-0.020684444898613447,-0.013326142897462336,0.09973819055948599,-0.10842884357273035,-0.07205929993924318,0.01053068827187637,-0.18119670605321408,-0.13211194451247907,0.15524486436196452
251.0240020751953,1.618499755859375,0.005414261330781295,0.09944387589396059,0.10611362714790382,-0.20296902388013835,-0.06584454448805188,0.05915018183822826,0.05532620549826497,0.018285070909367956,-0.027539076448271416,0.12562261670614733,0.004154211180099491,0.125698976320065,-0.056730169916577075,0.16288239274220565,0.0799464029542691,0.015335279582894582,-0.0285405353641681,-0.08974101564335624,0.0861351621177293,-0.05871092629721417,0.0328797765847854,-0.0555907418887521,0.4104430599862462,0.03354719052860575,-0.014168433901656313,-0.18023764229548206,-0.07907291761875464,-0.11239436208323977,-0.6949855096480707,-0.21905757642187776,0.17170503120239258,-0.3097702093731057,0.2308903448756884,0.06737997454509351,-0.1456174846733148,0.012493037863094476,0.23272775690495567,-0.4218463786836049,0.5981100423396541,0.29386445075400713,0.21087777174924402,0.00021895113436913366,0.21104932080420535,-1.328394051605174,0.43045639450596795,-0.3151636098042027,-0.2057926547818213,0.1556784858880259,-1.1872281213352807,-0.05640897045920563,-0.5338096210481514,0.029209830748648358,0.26068519509651594,0.16639830343283993,-0.11075054560250268,0.04417720200965346,-0.2538501076454545,0.11136600090148877,0.21531139039858832,0.07408153980210126,-0.06895438548980187,-0.05752501531436847,-0.03601359327763974,0.05734158342822841,-0.03238157883142853,0.028262733825168286,0.04908592457918459,0.06602782518400296,0.028506737783944143,-0.004762762159941103,-0.009105977983607684,-0.09982495283958832,0.04052879656981519,-0.05995304057218117,-0.12102650528134778,-0.13814632053742298,0.14219802037774293,-0.13833764811011504,0.06553419290866848,0.030692029797655507,0.17207383678973265,0.07559029478476163,0.027908517569130938,0.1996610744933879,0.061087365019309586,0.05794416141384203,0.0015974650379960726,-0.010103207876037268,-0.07777860727752087,0.03753815500866314,-0.0031841060100708946,0.09932987460427746,0.0062039934029700485,-0.06861133666759192,-0.005249349803963491,0.1785322945433674,0.04426887956013861,-0.019152904668286095,-0.1343507261056161,-0.1402783428778379
252.6425018310547,1.5977935791015625,0.0026826677690805767,-0.08813632909761798,0.03941704819646154,0.14721967652633328,-0.05552880972863824,0.09634743266150989,0.08818410805075311,-0.01049032474128394,0.10526886315572472,0.032859148229281265,0.2600947854504766,-0.12193919957048042,0.06573496123230935,0.05952188836657249,0.1360594205084091,0.048768986207412324,0.014392357743281221,0.07607200436687099,0.012342060101891435,-0.05746026663462694,0.026775770802098087,-0.1976770229720343,-0.029597442197764504,-0.014307083666697402,0.10770273922682838,0.10708769410673841,0.01125995312110962,-0.002447245415815409,0.009376345721158821,0.22781629968559267,0.1527668477924426,0.20432320732148312,0.09393610325408294,-0.036824362992984444,-0.15286669847177534,-0.02022815949678345,-0.30228713967830256,-0.09051549646352085,-0.7081290243906748,-0.36012423763270596,-0.03208330951851916,-0.21233541255108046,-0.08735878075481213,-0.020391332714466172,0.2859426065621658,-0.3935740559920182,0.016673691678273705,0.2021011428932834,-0.3266911325604759,-0.4456386311682912,-0.3550651354391219,-0.20377616136051332,-0.35876429055827114,-0.21226296508328052,0.04793270840678545,-0.05456678128078253,0.025233620077173904,-0.0290358230559653,0.03617053994598228,-0.013811598703442497,-0.015294474003523066,0.03140351004743679,0.02909812069112333,0.04719371904450235,-0.03954885360159254,0.05683300976214798,0.045097349608405966,0.042917742640497095,0.058404914497946235,-0.056041316392046084,0.19439784929531662,0.01648047890534339,0.06893769021925271,-0.12826082549576423,0.02594494807313187,0.03907193911526394,0.006774939524937954,0.20430938287064282,0.21288778779762144,0.0526644668003676,0.058976643883894245,-0.05014548851264227,0.06894918077313539,0.03041123875350306,-0.03875241986850512,-0.03988481188599537,0.024787286606510466,-0.017473437069529186,-0.05653681260133079,-0.045363023447352525,0.05288577171138431,0.054234882966101225,-0.02712815201399994,0.025983569240280755,0.020430283150046954,0.06778383180232543,0.18968068826906723,0.33180800474420086,0.006049014693514182,-0.24797825983998908
254.24029541015625,1.6082000732421875,-0.2285953580124121,0.08675479255171407,-0.03512786503344209,0.19048132533455508,-0.02896732630419689,0.11732860607368303,0.0017178558169111265,0.011042608427117472,0.005416024849661222,0.008064974667920763,-0.025554278556451683,-0.02712774694532985,-0.007475369389388958,-0.05003959402735291,0.01880362316712004,0.030197299661899116,0.02732335192300623,0.04041963494316546,0.03090582011957453,-0.032326227143384005,-0.0063594137173613886,0.05572377002656012,-0.012102839041633085,-0.006092739543795122,0.08996664670452806,0.14831202353758963,0.03825684879491474,-0.006580116797407186,0.054882154265016275,-0.08351138514049597,0.04312915226268062,0.03724035190399845,-0.11894296058910774,-0.12990503294438777,0.04178276559433828,0.05948401732869563,0.09575242990571076,-0.01558396746092771,-0.14766422116770345,-0.2868276360011149,0.008724764297817135,0.3793135927655169,0.471816110175025,0.32090363390950183,0.19473663435367275,0.2225051416087811,0.3531591805337685,-0.06560412906381063,-0.7271218056134602,-0.16035218057759612,-0.07552323703650385,-0.26874764231086057,0.1158621999981593,-0.046922192527216036,-0.3536807114886434,-0.29243266319064015,0.16675652790747447,-0.0465475773244201,-0.1635839552612033,-0.189744633140658,-0.0348052663819883,0.07461227568713732,0.058508674331011395,-0.057848059811833,-0.08307177830937484,0.05780163475763342,-0.027383658477527682,-0.08221440540849524,0.0267064586193778,-0.0054738821007607585,-0.09617781925422554,-0.07070656499001775,-0.021194867872491877,-0.003431573981727762,-0.20456984266613434,0.09465223931036817,-0.08707152426919147,-0.21634698635021143,-0.011610710594608421,-0.1374215022649531,-0.059225250215894365,0.13311716460511133,0.06051034284319232,0.1121749810867903,-0.04398047403143967,-0.0061361798477560375,0.013498230588689625,0.0119116648708342,0.011480919591971388,-0.1859036118725759,-0.08645593862823739,0.018419368967840438,-0.012568656954649465,0.0532352105139464,0.0028642102465740683,0.03922809801870948,0.08238120897724928,0.07323130863391321,-0.17908958463864968,0.1975723246488903
255.84849548339844,1.5986175537109375,0.20029000960096977,0.05144090800335268,0.08626221821996635,-0.11409138720304819,-0.0010775109796924023,0.05201338020847274,0.03603627710799526,-0.0029433214006105643,-0.038989084603623624,-0.003949741621409441,0.011981431296519083,0.010951536492775815,0.0035897892545666385,-0.07974580622694517,0.07616546525842022,0.004504698582438542,-0.06484421618068073,-0.012475727111675758,0.053343514141013126,0.06838440250800248,-0.01622120162892794,0.04071729834371291,0.10168368805789306,0.06290803303546241,0.08231887619265466,-0.2879004976811084,-0.04425419307504963,-0.11957753140409826,-0.004683735451315343,0.13001832996830834,-0.17802399956795212,-0.004298005862832872,0.05665772058047158,-0.0015101297455548598,0.017209545658224697,0.14754382814195655,-0.010015687569623979,-0.15528989969573723,0.047546810084051476,0.27977562862524624,0.023953877537787716,0.10091803703327396,-0.09727216549066175,-0.02852068137705436,0.15877628409860092,-0.37037394196333473,0.4725719984318401,-0.0754213211986396,-0.3371828145299961,0.18206479895058789,-0.08235928677701304,-0.15627099047485182,0.03662075325897249,0.29147125470607044,0.08264961843985912,-0.07006545934950932,0.021837970196612363,-0.08552101002235919,-0.01023086002867476,0.10026407158036547,0.01605649427893611,0.03849833855002202,-0.04510820525049506,0.012946526772609757,-0.08190027912693597,-0.030366476452109603,0.04859667921237515,0.0045844265887772725,-0.006241881329466355,0.04682892133982242,0.010309010402748973,0.05273280047295534,0.01983740586816908,-0.06649305942022701,0.005599167393580649,-0.025894699698468315,-0.09665883424262997,-0.007858843129793638,-0.08399937298814308,0.08578589021494683,-0.047319440073414334,0.024243335852891554,0.2038611848284677,0.007845797823150818,0.00027909119513269513,-0.00252793991883258,-0.08441627139604646,-0.00839446446595168,-0.19165964661640042,0.0024850777723743386,-0.045745253454013604,0.00906920456362223,-0.05249528205262099,0.06097361698486807,-0.01569431874332975,-0.002551234109753704,0.01464413200192726,0.010341134251450456,0.05513533215487232,-0.04842537474511169
257.4471130371094,1.577789306640625,-0.048087285700307056,-0.3908127373589978,0.015415731480105018,-0.030667947013067652,0.04863332183196866,-0.03977480593718806,-0.021688575138800906,0.004467936709646441,0.05099536446760736,0.05524550727388603,-0.012542910217061703,-0.007983683657967894,-0.1250880562318572,-0.06303122975231798,-0.010219123625133011,0.008876265617157247,0.08668248939992505,0.08420485789338997,0.02914621899346696,0.12942816658516926,0.012162074227603323,0.10637765999220919,0.10261145954786925,0.1417480408973745,-0.040376664999342254,0.09520315591643408,0.0659098852944157,0.08562373147481221,0.2292900896013921,-0.1313935004559157,-0.3773493949546261,0.17015288162776154,-0.2804686631024286,-0.35936078359808715,0.06776694327942398,-0.12435143276965724,0.1342505354836571,-0.41024397108421495,-0.4076990401779124,0.004199710227713108,-0.6317532596191664,-0.20701043898552843,-0.13417461812105383,-0.29232137575095274,0.1437448154615511,-0.08086947544394033,-0.14065572706594864,-0.14385371673254246,-0.5485528753505649,-0.27948927341355206,-0.08038784123718626,0.317385879889196,-0.5397764334647008,-0.16618828889910223,-0.036017082163261056,0.10648822136417455,0.01912294494966405,0.5117400255349602,-0.10834612881492946,0.027161442163780074,0.06909470195905679,0.02660522645841442,-0.010583908955630413,-0.027015767027554986,-0.029347435931607158,-0.026566750521009753,0.0018322217234987889,-0.009801382639401553,0.16297227081126095,-0.03401157697199501,0.01924789213409594,0.06015911289076617,-0.04279927057986187,-0.1160969854409851,-0.014551803077438941,0.057860351021802744,0.025478627739902206,0.20257491409289444,0.029698706549353637,-0.12689391346898204,-0.08838732500123839,-0.07915077906262388,0.07380437292069489,-0.02680670857426086,0.028212168011935993,-0.24429409110975892,-0.17544796296696033,-0.08735301543915285,-0.16063564125778027,-0.06260178205714438,-0.01882911658283621,0.06880035968320335,0.05060856753332156,-0.016382173708835823,-0.05587807440907322,0.020763588433190615,-0.15901480932791384,-0.09798398598175011,0.0409539696403592,-0.2838403887666685
259.02490234375,1.898284912109375,-0.1268290405180634,0.14611375337107652,0.13864901252864886,0.024937777677906343,0.1859519521510562,-0.06336363133219766,0.12162461968553005,0.0772001989938166,0.004448571202146605,0.004803282232820885,0.06037548662066895,-0.018668633311214943,0.0383832678850925,-0.06802298562436837,-0.026043531558760626,0.021698253992472678,0.0325510062978356,0.07523951145047827,-0.07317339036659787,-0.05641082762408977,-0.10733667557797057,0.0021583201276240555,0.14479225431156337,-0.048540455470449745,0.007950212435201082,0.08242454738093455,0.11458659798929388,-0.046298586694582165,-0.11782427198567245,0.032816607652912645,0.25402383515590626,0.173317642419274,0.186555496972719,-0.17546141150248545,-0.2511791260797353,-0.22124634437799168,0.18439663776929668,1.3417165938427302,0.3962485503487977,-0.19665027326940035,0.04391081188661512,-0.44446457854263016,-0.16186956387399504,-0.8401227967159918,0.4002434367850175,-0.5442501161569039,0.8454484650124322,-0.4209154402930265,0.0749862453714059,0.1780749314669291,-0.0700264310506011,-0.24995502099444897,0.12149578823584811,-0.027853720616940757,0.022459818732170556,0.0831060855963031,0.002075499834302096,0.03804795159326461,-0.054146457552319276,0.32482534976922695,0.0625068894935631,-0.12616908370265467,0.011932029278516826,0.025995429728941047,0.022973384595312223,0.0526097518444506,-0.06349825454748804,-0.0359776326327934,0.060587640059118535,-0.046202035026618855,0.052670037662862365,0.10764198785113677,-0.206435722724275,0.0966928223869061,0.12622376175912212,-0.00436661501911665,0.15397199914731535,-0.11299033332094047,0.15044709785353333,0.2148784120531979,0.0037509635790741835,0.01753782853127543,-0.014675503371106548,0.08816930750771516,0.029738181615320942,-0.026994337557030013,0.11362084044570975,0.09595539495173634,0.04309994440709947,-0.055772670188205836,-0.10074056266298063,0.11985799854701035,-0.12887598063259925,-0.03546835493269439,0.49603785993047905,0.3856104685724232,-0.03487454376365578,0.10560483357263079,-0.15559097003456648,-0.07150633596653994
264.09979248046875,1.618011474609375,-0.17233863990610226,0.060116744508973016,-0.2831259783696687,-0.14505772117944102,0.11165394387251262,-0.2040419850497998,0.06208320320970548,-0.011912640473424652,0.02571516915764143,-0.10107851918877496,-0.051338351568446745,-0.02674667485742656,-0.10429878193254163,-0.10752564687501076,-0.023457369588234626,-0.02181229868101478,0.07027909770974282,-0.02838494985788432,0.04852159658164428,0.06212750890747475,0.05072813793372169,0.03270241834238633,0.42005437680363383,0.04351320649215379,0.384231222521006,-0.04623477629243582,-0.15371932090858073,0.2019133404420591,-0.061447087067012574,-0.13178878544136755,0.27872970127258456,-0.2313693870422147,0.011179815471933363,-0.2653193052838828,0.17752149135929,0.047061259503477976,-0.6702489059508279,-0.5391603123704931,-0.33496720111829503,0.14173435659475117,0.2696778460946629,-0.514407205605451,-0.5459109785942522,0.3695471528610646,-0.020694808722757127,-0.18027119352586937,0.7350979111784819,0.6855421461882815,0.2851444693602316,-0.40997320457550124,0.12565982054742753,-0.04933721930690266,0.04144787264820067,0.33700196477102107,-0.19366163924122523,0.46176700284528016,0.10248478683810358,-0.017715222283620893,0.12012591986714767,0.06169493536116624,0.19777826712601396,0.007003622613848113,-0.11671045386964808,0.03640995367743464,0.018595429467854377,-0.05160620887279572,-0.05839842882100692,0.08980736758204066,0.005159580718126625,0.01805695662443551,-0.01799006917595518,0.13880197017533466,0.06434573321199133,-0.0204817773667246,-0.08644316145506518,0.04046867812222673,-0.019884825097294858,0.19021559192067258,-0.07533452528212042,0.08367627721132972,0.027410478610706723,-0.024970988696954077,0.054019104632110904,-0.06550466234832195,-0.00677784006481529,-0.15570894905169508,-0.21110878905706548,0.12485865239562127,-0.08509638911659172,-0.0005693184128246594,0.09244702892666,0.014701524701415796,0.0732363627543796,0.10041648931607174,-0.014760024667794937,-0.025646016291868242,-0.12015196660999188,-0.11544168554008807,0.052352167937446514,0.04618803352064803
