start,duration,0,1,2,3,4,5,6,7,8,9,10,11,12,13,14,15,16,17,18,19,20,21,22,23,24,25,26,27,28,29,30,31,32,33,34,35,36,37,38,39,40,41,42,43,44,45,46,47,48,49,50,51,52,53,54,55,56,57,58,59,60,61,62,63,64,65,66,67,68,69,70,71,72,73,74,75,76,77,78,79,80,81,82,83,84,85,86,87,88,89,90,91,92,93,94,95,96,97,98,99
117.08014678955078,1.0095062255859375,0.22835675721829068,0.11969349061343827,-0.0654583048510363,0.183284049689224,0.07872435263405239,-0.005719702281397012,-0.2440493120348205,0.026892489809603175,-0.12956696940851808,-0.1425274875629959,0.4232844694620873,0.010958066377846333,0.17337844280284762,-0.2802684641350588,-0.3055446079109517,0.20109547532128763,0.015450903619138399,-0.012674147321931534,0.02883940899235478,-0.009625181524633139,-0.03317672342479016,0.017146973337114162,-0.01875181670167997,-0.007251550304250124,0.04850433600384137,0.010444217478836004,0.03409784715056442,-0.00026553362452471784,0.08613994092455557,0.036967541429837936,0.011622413010915463,-0.008319977760874564,0.05462370558115883,0.017350487585231188,-0.022448108655422877,0.008097662712782698,-0.05679237219932849,0.04311577106373758,-0.0032249027566596472,0.034856292150304544,-0.02660721827562725,0.03850462900607872,-0.033376324971448636,0.07860128999176215,-0.04608122226115613,-0.02486990876295643,-0.010890444892794827,0.03588105721223287,-0.06652624286801742,0.024182962980414776,0.07139393011194321,-0.10418062786338836,-0.06075109000186697,-0.002612447460032887,0.003352290702881908,0.048932527985695834,-0.14463671913110182,-0.1509743646137387,0.17844082807548167,-0.15552097170734255,-0.03571763878440632,-0.017621003781412743,-0.03968775119011918,0.029634118896449065,0.10265605663655687,-0.07646436346081056,-0.11160898315958746,-0.08194506466538046,0.00151406388545728,0.048665986905656225,-0.015309689305632776,-0.017616356769662653,0.004044499152075644,-0.10129836343800006,0.059588324039046764,0.015186739056324065,0.01031007594564607,0.050605031241446614,0.02441380456819407,0.014575505769779073,-0.015608015297443182,0.0001292670410868702,-0.007672337698318054,0.008261014335284093,-0.0077515549682989305,0.01175246460274866,0.13302901013797555,-0.01596712468608966,-0.04062561052492936,-0.050166388932008706,-0.02149240595272345,0.10532712111146668,-0.008679075420324074,-0.1180672161785858,0.045647420031251766,-0.026488535807916182,-0.08528188572796455,-0.02174890883400852,-0.01601266871329922,-0.021267850265087956
118.08965301513672,1.028594970703125,-0.017969641934116848,0.11012401504517426,0.05252879565440016,-0.27328573296011316,0.0441675812369269,0.03336078817628595,0.07613887929533802,-0.11923919765528154,0.23158138282017726,-0.09191677294498322,-0.07757424287508416,0.06789028790334273,0.21702889865307873,-0.691130657463789,-0.1082779274469638,0.26495185767224005,0.012075503791810828,0.06518870960610627,-0.054467508495276706,-0.043220024009748594,0.03268640086870757,0.03642466896923843,-0.07537316926013501,-0.01118814106106078,-0.051141963173921744,-0.05703749729916196,-0.07130014132525372,-0.030174896093088828,0.11533770160077433,-0.021658788232354696,0.006289711702354996,-0.04573457444498528,-0.06757494592707902,0.04877501689426261,0.006869586716246622,-0.08862653361580855,0.03255252711719292,0.02954408142528768,-0.00213856018394995,-0.05177963828663647,0.07253883143125829,0.006735185955489482,-0.14278897946887179,0.06842420794709098,0.05474354265214845,-0.0033658840300482976,0.059912882737668746,-0.008760016214693269,0.05448576050344638,0.01614587027579026,0.005782380498196148,-0.013294624368863181,-0.12180675519098229,-0.04204007502130328,-0.026388387360580738,0.06533765779324457,-0.02449153994675882,0.00821847669960347,0.004143334023797476,0.03146958587552389,-0.013223571086002438,0.009295763036601342,-0.15564602492016288,0.015939909883754783,-0.005137685535458559,0.06235346054310757,0.030684793900058543,-0.015292718795947131,-0.047052714117579025,-0.04978541351372477,0.060655874232349215,-0.03786485328605136,0.07191300649117213,-0.042056451506925274,-0.06048675318754525,0.0448573688916962,0.025347255565497065,0.020772701301533136,0.049388212571510576,-0.033915603064332105,-0.019965831176187075,-0.017076973166192017,0.03603461092020062,0.009862622157575782,0.06797596617388,0.002869824294105187,-0.07070305438527733,-0.03646274604215667,-0.00694645721723635,0.0017822136631952508,0.03198614942202771,0.038537846813124554,0.018139227938660962,0.003387384855003669,-0.08335730957940342,-0.03346655104295561,-0.02637822014811235,0.11608956656519474,0.10323402422373917,0.13284221631020612
119.11824798583984,1.0490036010742188,0.11900024968953588,0.02229606632629685,0.11220039213285513,-0.10148054542174467,-0.12789331428346512,0.5151431368842252,0.11953924120803766,-0.20039526578419586,0.1838002747689177,0.09956213816607529,0.23879139813290343,0.010622544831156627,0.5110071592203993,0.022455660287748827,0.06854112732771582,-0.030105130289151644,0.004762879009582211,-0.011804757471165899,-0.019790429478587453,-0.013376962642439233,0.08458377814660314,-0.01399344062269547,0.006936037330595814,0.050304431057104325,0.044437717815673475,-0.025945546392588996,-0.036828500327204,0.06548128936876674,-0.011854279815112332,0.0030747242668481677,-0.03453184586771059,0.028616029790436735,-0.00315509803948943,-0.04387500339865218,0.0676354955960679,0.0014637952602204252,-0.03495586143212738,-0.003487552650732157,0.002367695264698964,-0.0041944937489288014,-0.03670751825493658,-0.011781566627236943,-0.01948927643260639,0.043149829256944446,-0.08522499425740723,0.09401331853609476,0.07961189385909662,-0.016653131619989728,-0.1691629112765783,0.05683458589122509,0.014916324142235336,0.013044813845915628,0.006121582020854735,-0.03538664074638319,0.0745178695153846,0.011642630607805985,0.03359133545936495,0.02259181687939931,0.059889566681160245,-0.009576453646556312,0.0019710748535748095,-0.0020877334459829065,-0.05286608770099486,-0.0625188810410938,0.016873633283636814,-0.038115187958958824,0.015570057438984437,-0.0017571190513598275,0.05235720705495682,-0.032793866129810334,0.037201791222746014,-0.011639122732446388,0.022078398338516242,0.04579171503655892,0.004778670237686876,-0.03245689800657506,-0.018766680598994667,-0.005719647854558925,0.02661924285196413,-0.0014978393580151273,-0.004253583119447729,-0.02977208794705983,0.07988872611455931,0.018103730257837528,0.008116173866130887,0.08731536583757935,0.06018733969532148,-0.06447703592446404,-0.023908458453736514,0.047354327520383474,-0.0025047235154287252,0.0218990716006358,-0.03735624236471655,-0.07146450377965427,0.17250571974702583,-0.013045760554465841,-0.13750630556579407,-0.04681717826763027,-0.041202315549460175,0.08499592652347211
123.33364868164062,1.0388031005859375,-0.021061587941924156,-0.01938791272403801,-0.0360892077725022,0.22491713776226238,0.04372103612507384,0.17465119485214953,0.000511798810834004,0.05329283465366255,0.06825748018958648,-0.05295621485860571,0.10165468708466135,0.21933446829025946,0.1480430846896084,-0.17612709159455078,0.041369370721888496,0.14643960189987915,-0.05978470109029647,-0.03331904216716576,0.04658829243421483,-0.039611915523200404,-0.032634391142740124,0.007115208638243813,-0.018996377742738782,0.017342719150310305,-0.046965960067576494,-0.04405237102733181,-0.046272321167113516,0.04615521518833436,0.04091550700783413,-0.039019133694549554,0.018684817114553207,0.05353183360718036,-0.08513336571313272,-0.0262217713992682,0.009240416609870388,0.0015361248521432562,-0.05827593714193046,0.018757624371444667,-0.010419073680555287,0.049488038205789245,-0.10867122796620737,0.007508425179962445,0.009754661599380307,-0.019878896977183876,-0.007246986293847442,0.01128174880827465,0.034831373574623285,0.045039235610297504,-0.01851163623443797,0.05769204849418902,0.01478739236941678,-0.0008037493015501584,-0.019265021208438718,-0.031841961203201555,-0.010978522549150155,-0.025581148929457627,0.09386867442802257,0.0039726786960037385,-0.08282674576122659,-0.12791893738515395,-0.0026718757015737086,0.07694765083969683,-0.03338632590631922,-0.011157159804619779,0.041138863344306206,-0.19587595651129172,0.00491220564532141,-0.09399244133568815,0.03202288883095304,0.00271233276188984,0.07061138718057777,0.0253749916340281,0.004924276491651933,0.07605650120976354,-0.041024435888992405,-0.03477513100069867,0.050859894781998066,-0.06070383235384075,-0.00249660122212977,0.0008975844396767318,0.0017817225970592917,0.004226288686584656,0.015900914907671572,0.11537445986688737,0.019602030350078785,-0.015178833221178321,0.0380071907094137,-0.022812722203390416,-0.0036288624236015103,-0.006200840814378147,-0.08274051074664567,-0.033890869776068526,-0.040884925426634744,0.11688670545104522,0.0606305667357102,-0.05756952595720097,0.09130521628047175,0.035736386046660365,0.0279503511717873,0.03267124950353201
124.37245178222656,1.0287017822265625,0.14553915959416514,0.015358952902704602,-0.16196456183232244,-0.059058102940590704,0.12314343820860796,0.0008105818043601526,-0.019546844168978263,-0.20883548207457123,0.10206688852760037,-0.07809810804676381,0.021349500533676128,0.08708955632724741,0.10199336461329848,-0.05988332172127997,0.03906918242483284,0.12420910841940704,0.03775005121551602,-0.024465817298547597,-0.0313488019370041,0.03524780094618579,0.016270420707014552,0.03680701313249351,-0.006595949931979024,0.01242752437504826,0.013874699292173331,0.01862938050838256,-0.0215296285546881,-0.03415697131219822,-0.012819246693672702,0.027498737672357797,0.029587454052677018,0.07113601652191319,-0.015377522611893363,0.021888783210175015,0.0317432149490047,-0.046305340136626474,-0.023251159225762923,-0.036612549070975525,0.013747281122872407,0.0036835173641600917,0.02102186190107551,0.05931159732677265,-0.025916163657227542,0.04076732556844589,-0.009243164079108496,0.03282587408585041,0.05559431392145261,0.01498547386686161,0.043961715849507074,-0.028554513234740297,-0.01770921886542614,-0.039659917605236614,-0.01208419606366576,0.06027449536590503,0.01607750961015021,-0.011646728102561527,-0.03505458938438597,-0.13011133171838546,0.03631104844330359,0.11990444077340943,-0.11980251850486058,0.17463256407257996,-0.03307277403270927,0.10056758696303723,0.10003097999770391,0.07918716990921644,0.01772604807277529,0.0670221353861071,-0.018691148080489293,-0.018870463573426186,-0.005128423283416755,0.02190494289725661,0.04471197357092911,0.05669843841775422,0.021952241551043396,-0.009973421783556091,0.008828582335842097,-0.02909034294942445,-0.020475204115005127,-7.584684398927611e-05,0.049473527165353796,0.04833205276862592,-0.02508609158813039,-0.07952382459397019,-0.0789508335328656,0.011526495974796757,-0.06682690386716103,-0.0037974002072192143,0.1169965735452959,0.01459962489999896,-0.0013299523939692259,0.025232125686245395,-0.17156344784792152,0.0773271398077857,-0.011585567671965342,-0.018317312980728095,0.034104013136715,0.04868542807691991,-0.14517999681462568,-0.08655776993290556
125.40115356445312,1.1089935302734375,-0.09223133159269663,0.09472099588898852,-0.2286959818890483,0.15170735283629322,0.009538814782435422,0.022658789288227,-0.15259176802542726,0.08201721654014149,0.008335573966078504,0.1079607058601909,-0.011489804404906557,0.2331377835269399,-0.0693530097560972,0.15261416600118388,-0.009152761819611194,-0.03344764762021858,-0.03790850351189038,0.0543900163549842,0.08177579094379342,0.036103222444635125,-0.03506071567383095,-0.005365589513670879,0.005674322717986902,-0.06608091680440975,-0.005588315733669354,-0.0036834937803119083,-0.022008427959222313,-0.023640094852496303,0.030497690385656043,-0.020681387150462804,-0.05379737332240182,-0.04074197195221599,-0.08539308328604076,-0.016008279939006893,-0.03325867895896777,-0.012704144089096831,0.0012924024132937406,-0.0243509971388204,0.0071894000348434964,-0.032637253754231044,0.0011897612106941788,-0.001989885252997953,-0.041648115323566146,0.010418053187987377,-0.07596317610100305,0.020638053671917234,-0.06966102790464114,0.038094888490712873,0.009582441356921878,0.04841956974718557,-0.017051156191796108,-0.09036492056965462,0.023724789797187503,0.07861065016679585,0.018312612824135086,-0.056486172593625615,-0.05221105925672595,-0.009975132903386247,0.012913418520802827,-0.046773302957929024,0.01567555964957559,0.06715912093248846,-0.04947371265924311,0.14410684560234682,0.08119625492683522,-0.1814272323453978,0.12406975149719913,-0.05148394189438228,-0.025973975942135644,-0.029756405899347697,0.05729760550566417,0.008797338660743465,-0.06726771320855635,-0.04404452388954028,0.06357160576760655,0.06078575450563413,0.011296518589758026,-0.01778778829700759,-0.07007375405044672,-0.012074218360288849,-0.005395442507164798,0.09222026514322594,0.01507259830351335,-0.019144378312248016,0.030332790891058888,0.04789098123418064,0.013958787347549287,-0.051685927612389396,0.006491523431205685,0.06102399435511103,0.012305749588802622,0.03648898966455389,-0.11151290819545344,-0.11122628594892343,-0.1232008136236653,-0.019164426991851124,-0.006344906506225775,0.026067434023060457,-0.004231618052600002,-0.2254943424370816
126.51014709472656,1.0886993408203125,-0.09048343083367383,-0.06818247623564261,-0.007507355539814131,0.05617119350357703,0.1165632599593685,-0.05277917840623139,-0.22258729601209115,0.16390634916901647,-0.10042416248150002,-0.19358809935853127,-0.014932712534021689,-0.25813534929520665,-0.10088575600847093,0.08521712839661964,-0.14674653159694367,0.03918263807695348,0.18189432833074007,-0.005867445162080799,-0.14245927561823726,-0.07708879638688947,-0.08130680742891556,0.1573789476808571,0.018012773761005667,-0.13683965705924434,0.07750718573792105,0.06146915342007406,-0.02798725126377938,0.039232736897219116,-0.03315679845843476,-0.0065108373613316185,0.025083339104408037,-0.02185801983413546,-0.044950847158906806,-0.013642056013672441,0.012058001948735155,-0.02373698035086852,-0.10748904216034705,0.006952687690629292,0.004317819901816164,-0.06453583166233076,-0.02968558279229235,0.018135374541649124,0.0635917415013053,0.028757056081652344,-0.05714478183948631,0.028017590334952946,0.011585561503285463,0.019392073846368672,0.01412541667674387,-0.022688393357446227,-0.017750944777491257,-0.06590714795701545,0.11275046182359685,-0.10761221579217127,-0.038629326733860825,0.07634053507092367,0.04177319890008075,-0.0644081482368357,0.028467941550785875,-0.05579072358214036,-0.075883598905109,0.05649160436425286,0.04637857270872631,0.05804905570354724,-0.05957133871760201,0.060660669434144415,0.0430092230820519,0.011122971579445418,-0.04927331195613244,-0.07341798867372319,-0.002274489910859767,0.01662974901986921,-0.08423487297710491,-0.042512581455919234,0.06667084990806871,-0.016916301040432808,0.019463295303991685,0.018144246701596055,-0.055195448219067175,-0.024644107011815762,-0.0030866832585117053,0.019443366294245264,0.015186850810787002,0.008189428687373435,-0.019789489836679906,-0.06050459334608908,-0.005871540289616409,0.03368197006563508,0.017198458832115553,0.06411089696490083,-0.03174935364163866,0.04859956363877763,0.016767499882426977,0.029198084921617525,-0.11488758980434945,-0.03677151264912968,-0.029576459161885442,-0.025267804450187094,0.03052360650183133,0.14064458213402584
130.85545349121094,1.0485992431640625,-0.09730008028081623,0.0730149911854318,-0.04515348575573884,-0.2097356049212546,0.10810443830939978,-0.11300883350591358,-0.11590860143314102,0.09065500484580287,0.06925653461774976,0.22572058227580516,-0.12475558591649456,-0.3155304282762114,0.2766016487293187,0.05506836466388908,-0.026922274614486104,-0.04063027519529816,0.1220439471808212,0.040034787243616636,0.036098606843598495,0.0227026266622643,-0.037968091185182296,0.006496459691523046,0.013815422591099353,-0.0580711005766682,0.015903491045927438,0.06393154120507388,0.0058852745837386575,0.026901252658676184,0.015363428516356067,-0.030654073928531998,0.03616848342894369,-0.001598429439615206,0.03126152855330245,-0.01963256064700184,-0.01183647202900835,0.001686393680707978,0.005742347914350813,-0.0023901293630069036,0.06384498594737512,-0.0020366340275518695,-0.045522702971503036,0.047669559346090955,0.004305329012679257,-0.06676971424591985,0.05522847001553702,-0.018366990894091825,0.09905338061873104,0.050363684036673746,-0.06572512225753072,0.02062791171084594,0.04623435582673102,-0.055225647138245584,-0.0035972797085741526,-0.03479370441873473,-0.03952210064037353,-0.035766478684669575,0.12278310883779849,-0.04389221922532652,-0.06685092384238313,0.10507298691498096,0.13856853083289894,-0.004510120988591357,-0.02273146056761438,-0.10896731452741,0.19669830484428538,-0.2456532189085494,0.022527637966548462,-0.010967136635665838,-0.03977000311865798,0.10654044963363532,-0.054938763725160836,0.11915726345349058,0.0044802531174061916,0.0227043496661551,0.008492079475392085,-0.05854551833410504,-0.04692404189315634,-0.02596721351582912,0.06300296896023992,-0.01615109673915853,-0.006458978980591428,-0.007706517497559487,-7.255616164755527e-05,0.03893319086125487,-0.01692452754679082,0.05635779358815657,0.12874595696384233,0.005505516083606046,-0.030604806336776983,-0.06409190725492159,-0.028704899722061653,0.048125223451245015,-0.02261459100868453,-0.03052223877595081,-0.034805447461934196,0.024937532052724608,-0.07611342676053656,-0.015956426548633936,0.06439426103667766,0.04441284386206666
131.904052734375,1.05889892578125,0.03174392964675986,-0.029577478895469817,-0.10940550143047188,-0.00768035040039327,0.11477252854556313,-0.17231661127488862,-0.1815862893822201,0.1993440998511526,-0.147308392980869,-0.6212310061740545,-0.1240255173993789,-0.10915614001038645,0.21639155325177245,-0.28904909998432,-0.06618527032896324,0.1088632681712391,0.04454044155219135,0.05705798437439443,-0.02038183601516924,-0.027739592170174295,-0.043648891193187794,0.042852303328261676,-0.07405730550697484,0.08436516479471637,-0.058449888238836525,-0.024009084419652767,0.0009362767518614435,-0.10187264867490492,-0.0022371970789361326,-0.021170510046989593,0.06478640399425978,-0.0002968883904043698,0.06353825795931338,0.04092450565434777,0.06452152057591981,0.001210385689989369,0.029873556731514213,0.08026812031898535,0.028863884895856794,-0.026563425533105645,-0.011618482694114828,0.038160617322325945,-0.029768884219066996,-0.045225955510342745,0.023466772843122194,-0.07138052762547636,-0.019976457832122062,-0.011543649015472753,-0.007073747754881978,0.012878283022509771,0.06178966571572033,0.07543155728422328,-0.13394298728434995,-0.014466380302305806,-0.08525223729510895,-0.02717718687737184,0.1058163828907335,-0.0018431365719591367,-0.007322914385810227,0.034735126097339565,-0.009664630528096624,-0.011114531279145336,0.11244987022967201,-0.09209733373245158,0.2472431897735742,0.14687292709643135,-0.11421039380011411,0.035842976675098025,-0.10582605627983971,0.06717215661909941,0.003476535978168091,0.07484714203779881,-0.01917612891016933,-0.0726643228698318,-0.04327177644354198,-0.03494159398341379,-0.06384560969957377,-0.03612976665615093,0.01878097387527996,0.001242362524407086,-0.06016956960950749,0.016288957191048045,0.026864287892514924,-0.019660568047640364,0.015031427131184652,-0.019348680946527388,-0.0357870102498921,-0.0059700389412319,0.0010944794723537071,0.02404915524319652,0.052282047942496405,-0.007590138486595021,0.002128316375085995,-0.06553865541468142,0.06531120493987572,0.006710869232651462,0.007923992821746773,0.10233684178156527,-0.11504689290727524,-0.026492778080568075
132.96295166015625,2.027496337890625,-0.04236126461119284,-0.13662571867290985,0.01672505265040003,0.12739630299247903,0.020571023020763534,-0.01840842247364221,-0.1169138922272957,-0.09749640247161713,0.18958264843397213,-0.0194679548130742,0.5467857671246517,0.2218616816122802,0.07268888255859074,0.11437686249315213,0.04570738547170862,-0.04326259675192043,0.06108959464724735,0.13239705391302198,0.015801608399726982,0.0646357396856979,-0.04353462978136651,-0.06441063665623248,-0.057592484059023535,-0.04183567557465623,0.07099069850203873,0.10952552844433734,-0.04610324068389745,0.017405710536864842,-0.05624645215365529,0.013490614813246163,0.03322326727433718,0.038126976271518426,0.015760577730258414,0.04434068001243211,0.035899688853333486,0.031264920257940976,-0.02869797098223313,0.033379876887710457,0.0007741563554251648,0.012118387366181899,0.026367054580045478,-0.046284816747805387,0.0035651265875567494,-0.07201656022387752,0.03157640489573219,-0.027072298530885504,-0.01895885445578682,-0.017216586847087274,0.012192756222984179,-0.03306035645586857,-0.03611555864733806,0.043857038141592024,0.01482837724528821,0.053927173271598954,-0.010070522191661418,0.03380799218802519,-0.031539196065921926,-0.025319850487506387,0.025477127847562772,-0.004890731366559451,-0.005598282870071884,0.00599834990541369,-0.031198524774033273,0.11343828141366989,-0.22630634177686465,0.02738611365367228,-0.03523923199126922,-0.02052799716061513,-0.07001369999300583,-0.010714199898446136,-0.0008406603255318099,0.09602154344317737,0.04480101200929065,0.0461607841421723,0.016406255270680008,-0.011391169412729933,-0.020698255956604083,0.04374860622884167,-0.003949107458410516,-0.011544623627192815,-0.0035039899385436333,-0.037468828190495004,0.010782985708227513,0.0025202130923511114,-0.0612268290078091,-0.04319584209883037,0.10460280928182908,-0.014314078511078908,-0.0013665980869766515,0.003880312921844391,-0.04273486341630236,0.059366169720331034,-0.028794682865662405,-0.027480627067807125,0.13768355029440604,0.020607621507485924,0.04729828854709588,-0.01449203328799989,-0.05681310811161858,-0.02483745571080862
137.11795043945312,1.0489044189453125,-0.038778430034018894,0.0579577222282472,0.014511927650150854,-0.11473533054598269,0.019991785648591984,-0.06496443826361291,0.17797157804479938,0.004540887726702663,-0.0872551149972746,-0.04897370407221281,0.11181887863385667,0.3225006473588485,-0.19557801866007798,0.06265584451303254,-0.15852166641396132,-0.029913791237994862,-0.06447619769284417,-0.03962808484098586,-0.07302795862324862,0.056062018347012764,0.009248126785024261,-0.05511563024324331,0.012639747868583712,0.00995383295448353,0.08247572180670443,0.006013132097133304,-0.01190219185882066,-0.05448811212816743,0.06762381886228933,-0.06763912146567708,0.027822691555324658,0.14114462630010444,-0.05210931136138463,-0.0057449250243582425,0.012676857318350434,0.046156025052098794,0.015293672286254681,0.0027293411416350324,0.04436008750582528,-0.01916291771662062,-0.038918566019894185,0.006602864215598111,-0.01505001484666302,-0.04185479988148342,0.024906117595820707,-0.004196135143923849,-0.0734087793438599,0.06015794518707192,-0.0022002859879029727,-0.032786339075496294,0.04210758605632362,0.08979824594597584,-0.06172843517919001,-0.05024142808341231,-0.07653293014189216,-0.08994040651352461,-0.08636553345925983,-0.07255045971565612,0.0654088255021514,-0.1378503612391311,0.020995239776776118,0.01022276933853534,0.08917319264991795,-0.018184703058423336,0.0069682814132663775,0.051747984632085915,-0.12978082950553207,0.004863863798878572,-0.04927416115333421,0.024668647402917618,-0.021096554434454483,0.10451084857817822,0.03099236874594523,-0.0004716894002402168,0.06068714338535544,0.038082905388429726,-0.03165436880269355,-0.019994748959282656,-0.09864465677354285,-0.040131622385295995,-0.012555924516769406,-0.005480638404939914,0.0008921373769867894,3.88330074538457e-05,0.002989396622714243,0.07921743583314421,-0.00742309009989267,-0.08597965878403267,0.09159620880109035,-0.01408752194555718,-0.047660642590945906,-0.045985185910818495,0.0831095611784875,0.07297893894473703,0.08215997174695563,-0.21051624341438088,-0.02664450933992151,0.04013137510262908,-0.002262760130995224,0.11896716155750653
138.16685485839844,1.05889892578125,0.0897722266605819,-0.23890587045790418,0.16983004334158505,0.039993700689870224,0.08261860598219276,-0.17985946707267692,0.04777059860282385,-0.2386626957302752,-0.012146357727736968,-0.04975673457427253,0.12079758299119774,-0.2868740086944137,0.2061362976586454,0.06559146333758888,-0.09392922771993456,-0.03892624986512182,-0.0008275160564481672,0.01556044072931209,0.027155549250446775,0.02087968929198208,-0.01832564045579936,-0.031098638373970033,-0.002258844176498656,0.00647403656540819,-0.00011274029685075238,-0.09549169049375249,0.05730282060699149,0.008610355789825436,0.10651994707528255,0.024262467246971904,0.05103016153949912,-0.04470081917157185,0.03836597534296658,0.01929644694587032,0.00895468172126371,0.06614286583123914,-0.00039919665002534577,0.04278857981762147,-0.0028819688761373033,-0.02474793008144769,0.027691664308613716,-0.028026265529899307,0.047669724811111064,-0.06062013394460871,-0.022408820927140992,0.06382244306775171,0.030316287741867322,-0.016308539844852657,-0.008488643991365476,0.010943530158583141,0.056460794610677156,0.014346142182190408,-0.0816193408337395,0.061142996719060254,-0.09702995938684732,-0.0010083078039842715,-0.012795777968294075,0.09436323689827295,0.13046786585903328,0.025112997485444807,-0.04522867081674746,-0.051393273931986144,0.08433419086930743,-0.11551939701562415,0.216569953297515,0.051577513157642446,-0.07268946238339027,-0.01080327314655679,-0.043151936209378565,-0.025879523537531722,0.016181395352641043,0.0035337050128326913,0.019399554042918064,0.008110997501582645,-0.03617521189993411,-0.0044174333787266986,-0.04424515655625007,-0.005564397880286019,-0.05411484095530508,-0.02868728408247189,-0.05203567596085589,0.0069213830116966945,0.013354564717926523,-0.016267914258754616,0.06567029885438141,0.0032546614791837286,0.015088856267648542,0.019011771107099576,0.051538295872641915,-0.06874288326161086,-0.0071618400045744225,0.06119710846628762,0.06174028051829139,-0.11249387018059598,0.0013177709617708056,-0.01431055793774523,-0.09173426832316085,0.020708425997211413,-0.007011105834719715,0.10175963958234478
139.2257537841797,1.098602294921875,0.09392827912059674,0.015403105443151287,-0.002291178071761865,0.23705659694205058,0.12533672894651127,-0.11891680342786354,0.24367296748200173,0.09659506303062872,-0.1761708247505153,0.21373921118091038,0.2671569037855151,0.2727985239049931,0.057819152839194,-0.14201630287790665,0.06135946134241611,0.004625351664730765,0.012900828973295602,-0.021363293172899755,0.055626422732928005,-0.11346066630188033,-0.0340240152015264,-0.03935787377088268,0.030583466336081114,-0.04207144372803014,-0.026776535553622353,0.005004999868321077,-0.011920390720609625,-0.044856724949393606,0.03597418002988961,0.009653342122373324,0.005983059333415208,-0.06052432224037474,0.01754967587658007,-0.001904880515858614,0.017867228805613977,-0.05595452358771187,0.0008242473794722291,-0.008970591906333914,0.03271596732941409,-0.025765005209350465,-0.05678303856327761,-0.04170771720899264,-0.04568878778610607,-0.048779281288889864,0.04793069155275209,0.028289932941154443,-0.003385267347457876,0.057383665852364076,-0.0649742919069027,0.0031775528568174245,-0.026241670754143062,-0.006636572139794389,-0.006001052160443944,0.006624713737884352,0.025852312502910608,-0.07851560678768049,-0.012370665805948075,-0.0875524287774684,-0.0034015076468914256,-0.05114692046962235,-0.03494138938563984,0.048716178719804853,0.04987407743709205,-0.08768833196404195,0.09840557389805511,-0.06536563775178621,0.035125281569266975,0.07440432598969253,-0.058039323196153854,0.024000114294997262,-0.10104425171809987,0.046166262097176995,0.008284814401462899,0.0398894685402721,-0.06066168533222703,-0.04301573366716378,-0.03075924980809283,-0.011295306469104833,-0.004824473278785879,-0.04655556212633755,-0.001675562842447026,-0.02213971959408993,-0.01515825714203211,0.004184570031587986,-0.0030722894300467376,0.0034342987238588467,0.1637509745155101,0.021832964190647237,0.059874925017967914,-0.037677671154052114,0.09340685009280361,-0.0068722105726845145,-0.23598524634639995,0.024678414485022008,0.1077511363770735,-0.03985936132716388,0.1856977875468512,-0.05436451128227172,-0.10536255127596472,-0.014835874194038728
140.32435607910156,1.188995361328125,-0.029968804213787018,-0.05273727287075023,-0.0961327134041811,-0.04797401522350987,-0.08031343520514256,-0.11051008966154373,-0.021170181270903282,0.1263866799735584,0.18090905961990494,0.3962710042585483,0.10206125434809439,0.02140070759672561,0.2857610531078618,-0.13010192274814927,-0.0872949341869025,-0.06351301553323589,0.021112632693329247,0.07263664928820217,-0.05839152938428628,0.026238625982872944,-0.003804075458257938,-0.005140278124766404,-0.024626075832898147,0.028083659557919954,0.03216404922820888,-0.023373192574154905,0.013911216690182216,-0.003487062426572895,0.07814951724914918,0.03737281805524725,0.03496456927266131,0.03892108412180744,-0.030276956457737828,-0.011336130805621437,0.0024829692452117543,-0.0753633402689588,-0.006789492785649611,-0.02047020026146463,-0.07150708020890187,0.018486829186930998,-0.012563131044486506,0.014462608157080283,0.045367105071766584,0.022076186994212293,0.0011037924584517203,0.07768370733972763,-0.026287051833194033,0.00013790642630308325,-0.0027564980383361706,-0.048475902836696005,0.018602717454363663,0.042942609059891196,-0.03591755451714601,-0.08244741541500326,0.06197457119288652,0.01646859714006488,-0.18303505720322508,-0.06814546817939271,-0.026303546773423232,0.012059811581769199,0.01756595947872097,0.057638416762966826,-0.05438279290808281,0.03385771592675622,0.004515352115515972,0.03732136372151294,0.004681149115793087,-0.01331994945626147,-0.0004334642130681965,0.000599488003764817,-0.024398889967552045,-0.06730374107056764,-0.028646049183008795,0.01864825387930437,0.1359338202942164,0.03027672667308257,-0.047311329248726816,-0.0021872971923925302,-0.031799520838453006,-0.0012649753748400034,0.05420626692403349,0.07632746571131716,-0.009118373897380025,-0.006549341054772036,0.023070870174212683,0.0015870962656270875,0.0341964151405663,0.041157044343453894,-0.052258847198889874,0.0019877182921557157,0.011526785486449975,-0.005537762544884698,-0.09776383368313302,-0.09868041504796013,-0.01376271563871163,0.013775779943665021,0.1534255227706552,-0.07018328853228674,0.02795436842591216,-0.06995800725074616
144.6499481201172,1.018707275390625,-0.1414964441717924,-0.07063232110436284,0.032997279167161435,0.12585576271327784,0.01444621481522566,0.09085369351979494,0.24064385640351177,-0.01997785728559442,0.018386179342283225,-0.032815495374788055,-0.6276102011421877,0.21980893305363913,0.05796980169775877,0.042704175558288815,-0.10049695192671429,0.09132643234571886,0.058538416729665504,0.008091743794509729,0.04160811494482654,0.09714904340448803,-0.013003307598208391,0.015253936106588067,-0.03446779630474807,0.04032454776132219,0.04388806135904398,0.08773223780224366,0.0376872865358096,-0.02157248538371099,0.03793360459576088,-0.04893245736012028,-0.03252411312717152,-0.038916221050331906,-0.034693741946373216,-0.07846472849812289,0.03339616328928198,-0.015272308683340006,0.0023844567390266394,0.0002946962876407772,-0.03839235361692651,0.0015211465062029209,0.0724777439126245,-0.013763141071108514,0.018634190404151024,-0.033778105808240345,0.026144060902962132,0.06048960451541351,0.022916200585620217,0.010716006417988363,-0.049831405311285146,-0.0035300790550501643,0.05591217748875191,0.0030976974331725915,-0.003204760271580044,0.07002852366320528,0.04534805835987378,-0.02741741682509473,-0.0030256898961054726,-0.0466265319389466,-0.014833634411759274,-0.014309407595763629,-0.009586198601902903,0.04643243781009413,-0.009629331537412784,-0.049893260686943455,0.13025325664578757,0.033317018407664274,0.04217605732667679,0.06809258875266816,0.012881783906443359,-0.028559182653684418,-0.013622090680671894,-0.008675804459750084,0.08048309590761774,0.0182730714725772,0.014435938281945913,-0.03352755991811317,0.006569482419646665,0.06725227924527714,-0.0037794911909883448,0.03626826094151107,0.002039301388981604,-0.046628874453146896,0.011252410590153517,-0.02590121278324383,-0.05113560663123607,0.012368089919616958,0.030307613720248365,-0.04819339145127523,0.06192531400707843,-0.05844696738938686,0.03599116987253864,-0.12401188778937432,0.03997753066772312,-0.02074324072528765,0.09380607221830023,0.1500615151305529,-0.2885952698044601,0.13373720199480776,0.16643662667991055,0.10082366706377636
145.6686553955078,1.05889892578125,0.08122982806623502,0.17247459176044327,0.054452509293019986,-0.05437161650566089,0.25785586709979497,-0.06060782135131346,-0.062003117396403566,0.14308979763149138,-0.012152644907924082,0.053130776979812985,0.3774923216869455,-0.2754188487968179,0.24894337628738605,0.04404055587437514,0.04829153790648854,-0.034270186284267826,0.014045582973123623,0.04643058937125036,-0.10396749889945095,-0.01765914909125215,-0.013810498245326614,0.024336267797643765,-0.05685786562693977,0.012637536551674353,-0.04740868162309126,-0.04792965706607869,-0.05060754886969835,-0.015592400776011732,0.0765806726934569,-0.002305995219179939,-0.05310859620101109,-0.026497041745702193,-0.052719506203683264,-0.007356514383624222,-0.05219730782891076,-0.02299538674489368,-0.10235649741067605,-0.034161210028719406,-0.019307292487005693,0.0268389333254892,-0.01156053555499818,-0.0016254734872399035,-0.01082189205308452,0.011283196632959588,0.055032564536680956,-0.027385966974743964,-0.040159727476065304,-0.05553403847438149,-0.027182428275820954,-0.038606241672779124,0.042048418243229684,-0.07524985655282257,-0.023410452401491175,0.017054332543020034,0.04328876897964864,-0.03278861977504736,-0.0035193687701277144,0.021775477834076434,0.03268507594900639,0.0552927345850691,-0.013211678424523407,0.057746133297835164,-0.06031494843717484,0.1817015736005304,0.06531763842537207,-0.06181806223599523,0.0037960464576649033,-0.004243455532235908,0.03669281417556566,0.0415840636324941,0.026757865034998704,-0.08645298691841527,0.14816373717260187,-0.10868668347467861,-0.027877159335659426,0.025765005648218695,-0.0010006832871929383,-0.025693548877878537,0.01454329298487297,0.023681836769928154,0.02321223662412986,0.07408850059269415,0.05345097117923819,0.0021422211373101994,0.013761386847393808,0.012262503288443246,-0.05398959258242817,0.0825295866736287,0.018249353167497075,0.03359917378591357,0.014614595040586252,0.08128607056638099,0.09128992654756661,-0.06124004833956505,-0.05154126078602467,0.05035031135930393,0.05583160262917977,0.03515516114727539,0.031427697079207534,-0.06718869410982842
146.72755432128906,1.977691650390625,-0.10350594586508056,0.07221621366852511,0.17314463743334824,0.06573178393489537,0.09237642672384425,-0.025709241562627258,0.13551451909382836,0.04284608801210389,0.3020763284473703,0.1518806736323409,-0.19607304878836834,-0.11692788209819303,0.118317190293165,0.09959977299287297,0.19466584510519722,-0.15511093495197747,0.07547530969486209,0.09406984572388023,0.03616786076724417,-0.028443966831264555,0.049040191435248265,0.029999057011696955,0.05452517865546334,-0.013780261085473037,0.016845863817980325,0.045663219387168684,-0.004089629258749647,0.04345486476998084,-0.055513551805276416,0.007368333273915921,-0.0179937733613166,-0.047562694649851994,-0.0462005748835068,0.038217945101779956,0.018658817220823652,-0.012076541677322087,0.0688325041160521,0.0344730408719815,0.049077654855427026,-0.0052211447397425,0.024677936456816554,-0.00485722105772699,-0.0033655466992888418,-0.04227575512726865,0.042906994031328284,0.022808746852157235,-0.03921487072568052,-0.0795639075341771,-0.06288797748758734,0.002268941446326826,-0.01738468279933081,0.012550499075018678,-0.0006630765450000853,-0.026823715592714552,0.006896248483809401,-0.092015739837525,-0.05059012016580408,-0.020851651895450192,-0.019361589577718812,0.01993069136327702,-0.05341156731668058,-0.017651941939180432,0.0318923721368325,-0.010844746955946172,0.025316552410056998,-0.09427057098567922,0.04564576202536494,0.05109367027608082,0.034984588174366116,-0.03204990802147811,-0.0890430296391159,0.2221921724073504,-0.07537105237505855,-0.013049070383397761,0.017549953881795505,0.04215619218893213,0.012385640996524387,-0.017658814847069763,-0.02071458402707886,-0.023796711054277497,-0.011741873091583475,0.04786982174308478,-0.02954152130644376,-0.024608326799844822,-0.04003630837053908,-0.03012684652935671,-0.013977406623449498,-0.005893042848609701,0.00920819458602387,0.005569696509887458,0.03285683754239923,-0.022377557733903698,0.02764011441586088,0.006187283481789554,0.004457309844624596,0.0869903970502474,-0.10279818616398238,-0.07643097401928341,-0.00489435256244012,-0.05125242776100374
150.78294372558594,1.02880859375,0.07886093275256016,-0.03393916171544495,-0.06330517324790857,-0.13096608675268526,-0.10954428599732764,-0.12380911588529953,0.10366928370744775,0.11764818076736111,-0.054179260244871845,0.11702421497761356,0.14026470528740967,0.14254889847646773,-0.12990437875285135,0.5276934914495899,0.03446894906318042,-0.24733623457085696,-0.028705949424312045,0.059996511485040246,-0.06373031759446227,-0.019995843613011873,-0.021861102561000042,0.0372504443349501,-0.014503447120402862,0.009504564354680932,-0.013434727337708237,-0.05110493308381186,0.058500681416280544,-0.04163131307502127,-0.06797318006173067,0.010477775228234185,-0.0397439590038549,-0.031000935516654785,-0.0031237237760993186,0.04444898328246711,-0.02932216203030353,0.07964795551774384,0.03897802230527062,-0.05224415819524282,0.012469377514526217,-0.04064064665876482,-0.016688555366489215,0.012325982790419618,-0.05770844645827833,0.030980046230124098,0.01644092690923213,0.08054265616587301,0.031633223926937015,-0.05936578058609338,-0.012660769819684461,9.51685603620342e-05,0.06328714238097521,0.02200883036852878,-0.06396493126156941,-0.027173348149527266,-0.016738112239808922,0.013559324354509116,-0.0694616421426327,-0.013634405393181186,0.04966186146345881,-0.00392040414989052,0.03349246413827147,-0.03320080178341943,-0.027352271518975183,-0.007728168736890854,-0.05428102037540565,-0.013884303811180547,-0.05589875152494262,0.0021329881599055286,0.03770314735026828,0.014902156949120927,-0.005423378162615886,-0.022969544208074122,-0.12698180150971328,-0.007723870210657154,-0.043997346189900255,-0.020109788830120864,0.028872848525580464,-0.015425608727878452,0.02130114035818165,0.03329286695005724,-0.012189895474705585,0.05883361316111898,-0.024011305503967184,0.01658740508435079,0.09528880719628482,0.044693627816258394,-0.003760416474727627,-0.01987157155907697,0.0038080546097566115,-0.03547590046437101,0.08659372637877549,0.08335887454808776,0.027200665522667533,0.012238988217696697,0.02576257013587166,0.014090258007044179,0.003422966950927972,-0.11060006328734609,0.030354108063519288,0.07780439164787437
151.81175231933594,1.0489959716796875,0.07898674093988492,-0.01566614509997715,0.12004229394953186,-0.0009608451101490566,0.08550704284395504,-0.02570320981529884,0.176539037960101,0.07728659326313861,-0.13278430445912337,-0.06220218874537665,-0.04305132742866815,-0.13095423712853738,-0.3977122456588968,0.1894738485614781,-0.04387110153006196,-0.2538679229167764,0.005485969559578224,-0.0050733431921160844,-1.7549472058637355e-05,-0.07943583227793706,-0.05301020639385584,0.0009661926270214186,0.007174213562953939,-0.003537196090884349,0.013638216154857694,0.021376380592511398,0.00971787659764681,-0.043939082483048335,0.045947260828709924,0.047669329776663355,0.01518476698771642,-0.03346021924291978,-0.022098682256212067,-0.07488646051659001,-0.0038687627934828783,0.0009895713376416456,-0.00227712052075886,-0.007264184627179319,-0.03576297415844567,0.009824408889494263,-0.00502156008366989,0.030341098105250947,-0.006195877473035616,0.05485082174179114,0.07988360684626476,-0.011023658011117517,0.08448056148808515,-0.038134492157405386,0.014351178847155088,0.005151011336434877,-0.012742874270092837,0.04839231176780951,0.045027310666477915,-0.012645923836612019,0.03631575982756629,0.05554678988586752,0.04014543147284193,0.025812710256587344,-0.031330129937620035,-0.011455915723206736,-0.04136705153367554,0.02129287143037355,-0.11109738421871347,-0.05322395371962631,0.07358624317562515,-0.4901901667745723,0.08448879408582335,-0.02074963277595717,0.022789470945614884,-0.035482012094034045,0.02583557123455734,-0.006246570011561296,0.009202003139119147,-0.04895354486962654,0.03902435926470256,-0.01927743178443493,0.01793115967411686,0.06334710579515598,0.05760178552932799,0.01064272466593734,-0.011041778144143394,0.005495128944562877,-0.010613485266110686,0.03505421483716596,0.057437787060028236,0.0021255834026323223,0.007622351864735435,0.04852068526631652,-0.035821568233197355,-0.048697708610581314,-0.057860019989776135,0.050958056133926774,-0.0705867798492484,0.047200599577255455,-0.03287847690950635,-0.12041741443763723,-0.0931552689811018,-0.03310018083658478,-0.08925699460715064,0.015335769599063704
152.86074829101562,1.0988006591796875,-0.007831420291674615,0.1450449845312769,-0.007479809575148572,0.002517098172443777,-0.26715074436396624,-0.045546567640229074,0.31941914583806114,0.171311861008351,-0.1809611595278829,-0.09736519881800412,0.5716134902290428,0.008736116816263441,0.23666965456142092,0.3029412129859838,-0.14649596952040297,-0.3514737966671264,-0.016988580911441384,-0.008526774109608838,-0.006402064527189249,-0.06143600241181355,-0.018204066026669873,0.02181339323364734,0.07941862318987614,-0.01346714593883289,-0.12085069268543089,0.031010786058478686,0.04506353176192077,0.002797182143835855,0.09868658970103998,0.08504311421382256,0.10215989347563344,-0.015861291740633256,-0.05089327846126973,-0.06092933572408932,-0.05312707851975779,0.059384443048649475,-0.020975058653067577,-0.028442982178997295,0.02181202226168998,-0.02259338405916981,-0.01210030914915346,-0.017957379945557995,-0.07142980122363547,-0.12522534106733077,0.011690138002569059,0.004647949606250703,0.014914068628904698,0.07174256640624724,-0.04811133211529802,-0.13727623152083573,-0.017042639928695088,0.009279720200119655,-0.007318351159765249,-0.023517711800035885,0.052382137225189106,0.0006883133873533953,0.027965573804245823,-0.06395254540394445,-0.10666986200662279,-0.01462961119198341,0.06436855611271099,-0.14253682903835801,0.042545329769415954,0.08230157141791565,-0.027945136373687188,0.02544289395066894,0.06493970232479332,0.0030668785810890236,-0.016785184030016796,-0.04954509545451127,-0.026907707263411268,0.018282945775527266,0.032470252269422836,0.036649470083939095,0.049250222827527265,-0.06583785279745197,-0.015634761654214145,-0.0018515212063734928,0.07023903325900996,0.014300762712135569,0.03616236416667983,-0.07613885460275632,-0.024287157915752432,0.0380745749890785,0.0035819072066784253,-0.03541985586599454,0.03451977963226607,-0.015339050341814089,0.057242475352901806,-0.05735375092927837,-0.02441520601093023,0.003202584243368125,-0.023481549683722854,0.18721700881678144,0.10968572948214125,0.08458421875483904,0.08243476910307924,-0.058015559822039396,-0.03366514822649587,-0.0604378563193203
153.9595489501953,1.05859375,0.062364773585563166,0.02724529228352218,0.09525715270040824,0.008334109009653354,-0.015565508958348434,0.1639804880511222,0.21875955411600528,-0.0035476875348902995,0.2335697998031164,0.036084475068221385,-0.0049456792807878866,0.1584876674386683,0.22714024785860282,0.48006715419295076,-0.025100004611337587,0.06064482606217344,-0.002110044808142076,0.02147113492848556,0.04482673321112873,0.044347701643491076,-0.05577824911117764,-0.01884005451107481,0.010170445632619637,0.07359566390001783,0.05639323179186949,0.12633806197526234,0.0053502769061018925,-0.06020075740822368,0.01250751546946945,0.010881817339264762,-0.023047201266468503,-0.041684351012475224,-0.00039311354378928276,0.03140466619992566,0.024497085215880773,-0.007899784871544992,0.01748629103037789,0.041966453067979,-0.005849174629179046,-0.009881440563647984,0.06750591833804555,0.04553454562981145,0.019063232799201395,-0.03544889054600285,0.01601275033939244,0.06050875431209672,-0.00560696782551677,0.05444560714918387,-0.04766864349699441,0.026096216561495154,-0.05501640816718783,0.026736918283235024,0.046683414676884596,0.054479938789718116,-0.031157476757773486,-0.049485001128947256,-0.09402725981499899,-0.004088236581914562,0.02008259208785771,-0.08030613068104035,0.07339640535608855,0.16700738394952083,-0.04123282104759994,-0.0680064205057781,0.060011269213966864,0.024294666207435228,-0.0710226548288927,-0.08798499185464904,-0.07333687005929646,0.07581662421570101,0.018055989619611572,0.006106341723773383,-0.043692177014585255,0.017201357578914757,0.04698576081975219,0.06371916807488966,-0.02739005645791673,-0.007063356198055682,-0.030308834021515522,-0.11449894150915271,-0.004040043291189913,-0.037150316284203,0.004108271342338834,-0.004971148131290246,0.007508847636254982,-0.041248084177196935,0.02965859558430684,-0.013421159871998795,-0.02938171697660036,-0.02261099623924688,0.05408374038983564,0.004896493823139855,0.018256208603677156,0.10937117177005456,0.018371225652398453,0.043011916716423806,0.08932963971683834,0.09242914684062552,-0.12711959316479693,-0.10169227637684536
158.21444702148438,1.0391082763671875,-0.04988693056617467,0.18858491515599224,0.0835545182591095,0.03651019888809397,-0.10866523776457832,-0.09997165534055696,-0.14609184716152898,-0.04208562874839093,0.03569907657240712,-0.021007696704985934,-0.12068569397727011,0.08620135679106596,0.0389099026604211,-0.029498415036461525,0.0020641796563027476,0.04613456667523922,0.008907464486019147,-0.0429525618125797,-0.011082409712978532,-0.0310136333794375,0.07511831782233946,0.06761197259247878,0.03878743462958171,0.0624182584434408,-0.035604119811127516,0.058442024512639655,-0.05040730937474949,0.0007108384117900952,-0.028267319396469554,-0.03061971276797589,0.0011794982426185244,0.09632385659001776,0.07218925721297895,-0.008105275838971776,-0.006668778226732541,0.05846582835968502,-0.01803170893699739,0.05716587226731999,-0.047944991327576264,-0.03294351495868176,-0.010683285060614816,0.05462094424323856,-7.18513881846869e-05,0.0045002105837882635,0.11711787095324859,0.024215486162788652,0.10924042607486034,-0.0651292182964599,0.04954038842342534,0.03572438695968272,-0.014523766524821999,0.048420677742409775,-0.036023215408421405,0.08879476158355143,-0.03279700762551338,-0.017933905294208533,0.09044483051694167,-0.04387607174842127,-0.031939993234377614,0.019333640369847388,0.03611213853967786,0.04957485895663679,-0.0322159564990982,0.07328043520986646,-0.17046383856320607,0.03716622137435365,0.10463156399019245,0.038519392347913906,0.0176949533174188,-0.06625026434708735,-0.03255196655288549,-0.01694319861784558,0.06829796858282712,-0.05214632630866254,0.07308067387551109,0.0615104773312289,-0.040016154145184765,0.0006325201715109297,-0.09006131174809644,0.048492538483007545,0.02729136830683543,-0.002597997162620405,-0.01123446777703477,-0.029122608889154133,-0.03356006347934379,0.02695796359969309,-0.003952401191391496,0.015347910815791009,-0.06621407934590155,-0.03365767102511125,0.030212141330246176,-0.005314544009032085,0.03016952465878195,-0.03899739979467755,-0.01621110120999917,0.011454053554315335,-0.05326264639906179,0.0305858480184244,-0.1943735716765918,0.04184015749533786
159.25355529785156,1.04888916015625,0.021121016249801186,-0.11513399963532218,-0.04026911027629047,-0.03628639455525212,0.04590343676734156,0.1226361875351758,-0.10863547042815946,0.0361136746658225,0.06778126748210495,-0.04775929214622111,-0.18450927829873454,0.09424168431841713,0.1774686980020757,-0.16241433384338888,0.2254907054567366,-0.2121422644558007,0.02162963340685725,-0.07511841041579581,-0.02673088073664326,0.0542045459024924,-0.0507413483429965,0.017733865369515513,0.015357817293624442,0.04466575613673296,-0.00751241252414905,0.07320693864164905,-0.013660124575570422,0.024894283252340527,-0.03342202679325742,0.03099843103151572,-0.049302492563881875,-0.030779216691847664,-0.0441038626377363,-0.06773433347971144,0.02804050393172224,0.009033693853195916,-0.023144996811040548,0.051512914891425385,-0.0018351945009844398,0.0009555674564230045,0.0654997860682256,-0.03753522221637279,0.026424775590938324,0.03734064894063172,-0.029723481614243128,0.02417729698719639,0.0031394402334168903,0.0929757289120883,0.0015220858648862987,-0.013261024646331067,-0.02697189268801138,0.03118140692768568,-0.06129772199466221,-0.013495822946455214,0.04882461712098646,-0.030365860481889363,-0.017345454469159326,0.07745796831325483,-0.013875020347857484,-0.0035517658293763065,0.010429394615794651,-0.06629722706524012,0.03748764550249397,0.09998205996981308,-0.1433747919683199,0.07172566651352483,-0.0643042253917058,0.04071597808564355,0.03786673704724991,-0.004898279049901859,-0.03542041202202545,-0.016635114196938736,0.008649210326568183,0.08657590497609138,0.0391647149825993,-0.04166790914865659,0.0777081307045967,0.018915339451359512,-0.03488371093236886,0.09658968248982591,0.04081338490319681,0.001040112786523134,0.08562699506287808,-0.005264508167248165,0.055223218322207494,0.014313194324225086,-0.10508301932496023,-0.015312402157775061,0.0345568774501272,0.05106013549310325,0.04044458231806266,0.02558366232994501,-0.07525161321691641,-0.03955272609508749,-0.026457307352651366,-8.41210277832564e-05,-0.026690532959210894,-0.04820886460852866,-0.017615133212315275,0.07975794676811282
160.3024444580078,1.0388031005859375,0.06222211155836239,0.08573703973996674,-0.07075275565877033,0.10040197149038425,0.10851999334814802,-0.0581384801361327,0.13426808772970394,0.05264057646812063,-0.09844880856975033,0.03511565433327924,-0.18065559941514364,0.016283225029652217,0.2230875787566012,0.07959315223177431,-0.009009367731985463,0.12733230842306267,0.004208136762349421,0.030838215682818495,0.0013742617881280109,0.017155996759594342,0.08262491955851048,-0.02358191674167777,-0.026663740874515073,0.018081420160401818,0.05031974430043599,0.054357260056624286,-0.0007678815306369373,-0.08072691286896667,-0.0020301737385151255,0.08098191549352272,-0.05544716921173483,0.08276482276368795,0.018988100797468654,0.0280891252106167,-0.01932122899139447,-0.016640765099699487,0.012120900602397414,0.014983106397916947,0.015130800635056712,0.059665854347806996,-0.007292112266183828,-0.026819907255522357,-0.03140973918787557,0.002623108351184551,-0.035800750510582784,0.01360956665065616,0.04589924775857426,0.04437055066420425,-0.039915776617862234,-0.056860647389989555,0.009165843703004058,0.02095515973564527,-0.06916332022348581,-0.043991479394817505,0.011863666787395671,0.014424376402069002,0.0368468438880771,-0.06093769432544238,0.01948256433987932,-0.09171922558972621,0.0654194063449293,-0.07133893140481241,-0.020854124878707955,0.01866719824832226,-0.034430736683113805,0.0452014832649998,0.07441066815804077,0.00281421791738472,0.022866996828898492,-0.031572570110997414,-0.019534894681954153,0.00422518998230257,0.008708715458541974,-0.07026438579761762,-0.07832249981794226,0.01675659463365799,-0.006994697307455249,-0.021171423280219686,0.014036491836778985,0.0287236167368701,0.0019198113390552023,-0.0583337130780925,-0.06644150414458141,0.031672636679384,-0.003768353773460063,0.07259803735243463,0.04615909726342452,-0.015926408233200438,0.04234746945872096,-0.028772712004940443,0.0035542538416157062,-0.023201940089773214,0.1062070792007615,-0.07348957277631345,-0.046960464174751776,0.088544227388944,-0.035051286209463475,-0.14192281840556373,-0.0092983888845036,0.05996637107371354
164.53744506835938,1.0485992431640625,0.0004917848898937337,0.04769533863037928,0.024087317949971973,0.18623044385473936,0.009442912936806186,0.09455213148145929,0.17844994473759584,0.08474380059429946,0.003715276378943668,-0.03275816457107798,-0.17012257091682126,-0.13007001405847504,-0.06264419041116467,-0.17393310192565745,-0.07896276935688071,-0.09726562174280563,-0.037970538124330426,0.04924626295172331,-0.07679778559530442,0.025386854687173572,0.0063457688171182774,-0.0094084239915868,-0.025426952346569442,0.004237345123293005,-0.01760520574658657,-0.01972968751122516,-0.02233168637408293,-0.07217472181922341,-0.023590581011242312,0.04446299505506505,0.0022684107998477893,0.0038425490216719847,-0.043262746762028216,-0.03872130127646122,-0.0377454077914528,-0.02564266659613086,-0.0011836029955496355,0.0024582351600671,-0.0073279892023515114,0.04127771849742175,0.051593776383290615,0.01906973044033133,-0.023039567182044432,0.049471124136399924,0.05480654804272326,0.03274726598611722,-0.09521380819266843,0.00018706595317801345,0.030256574064543934,0.06949372099738664,0.018981375920018875,0.015088482319903652,0.0017384895625056213,0.05589872920315622,-0.012374032145845246,-0.04204880030354384,-0.07907972013813207,-0.04781657596185026,0.021199431937344314,0.031549397027606625,-0.043565278181272475,0.020387110991604687,0.08425758496804937,-0.16914135893002746,0.2898394052756355,-0.22470284680890212,-0.001363226389087542,-0.013662352951677142,-0.017140702339510615,-0.045497943182422076,-0.038543068573236916,0.0005247012907554915,-0.027649009666198807,0.07050647950589108,-0.03166705172417431,-0.002086517428772715,-0.011571720251175381,-0.006384970200851388,-0.04542501079041328,-0.04597594051881602,0.02574032475412177,0.001188851924570578,-0.053186539938468766,0.029503821888621468,-0.0693615000343743,0.02466758502675271,-0.04387079841083982,-0.01894562828148934,-0.004580389993076913,-0.014795518449802023,0.04837657804054321,0.022293654216987865,0.04473234167473035,0.08186745629548275,-0.037842581302788204,0.05557972024232013,0.2144956002409047,-0.07471675955546098,0.021455781317597216,0.024515771982734174
165.58604431152344,1.0893096923828125,0.1352312246016425,-0.03525524244448106,-0.13945519377381266,0.1266077683577892,-0.19373366503409745,0.0821271768700454,-0.0977529660462219,-0.035119504062707335,0.1581327555007706,0.04665811500966413,0.23928668956567406,0.2166947823483132,-0.13640287793499226,0.25949534385559775,0.1409525205226913,-0.05835794293705315,0.020813216546985286,-0.00016325967157676188,0.05871679361751803,0.024883274417827356,0.06216334820447215,0.02189719762333626,-0.009928086300663804,0.04094169047579734,-0.00035987002110958455,0.02075860267590734,0.06375170307256575,0.028286161991772796,0.038786330531783056,-0.0036549143829482655,-0.028573502307049494,-0.006661872583995115,-0.05304898599792336,-0.04934437101553504,0.0014736946089543416,-0.07437580948544023,-0.0014307899583804636,-0.014964340654137428,0.04541361049378178,0.06115834766083197,-0.07057193598983873,-0.01995308616838187,-0.0008519111301944242,-0.08614726809355092,0.029071357102989696,-0.027247261857288083,0.07542820339850485,-0.005931832891046442,-0.09132087851376536,0.04129163445095632,0.05143560174650758,0.024792246203385434,0.11647316426957088,-0.01380898343622531,0.09006774059182443,0.03388750491651239,-0.0075715566163373944,0.02048456853272584,0.022128837783372497,0.054832768240609855,0.05537956207454819,-0.012183349104419983,-0.020721726543021353,-0.12156465126965289,0.015853816619156667,-0.04652914241174252,-0.008263115800672575,0.041120964097710294,-0.07898447816801953,-0.002020137629932431,-0.04892668393661397,0.07018607079505347,0.04860321681161878,-0.028032274490662788,-0.0361018760723872,0.038513140146191414,-0.023283929861622144,-0.039375697075713104,0.044922457779865824,-0.007725995032139563,0.0470024195800971,0.002676765023088266,-0.026362322169730695,-0.01118259716215454,-0.06914897400315131,0.05282369510022085,0.01930034259729276,0.010256881762913984,-0.04855096349882555,0.01190439298801748,0.04176961820008657,0.030996940625899784,0.08421285103537925,0.06891632178989923,0.04563216520098493,-0.05135991486041234,-0.07572042733444254,-0.06245551205637344,0.017943528770904993,0.03799593217818101
166.67535400390625,1.11859130859375,0.020777026252834313,0.015486118649402915,-0.09440473853720355,-0.12886017630044272,-0.04832740342392103,0.017869896181529538,0.21117139345519523,0.3268242062456838,-0.1374514701814823,0.1930298504992394,0.19349125545418702,0.053816846736496296,0.18951904410887743,0.05407130139179614,-0.15107635907428507,0.09224079746974798,0.014304143351489577,-0.02910529488442604,-0.023248131615212872,0.0810039775832547,0.0320316367155627,-0.03536159704756246,-0.013395370923572389,-0.01597766311493544,0.08176412846223885,0.04162222218465127,0.03955503739249899,0.008589077381169955,-0.011894123268516271,-0.009995147706745453,-0.009516892131625782,0.05912171528532929,0.020612299285216774,-0.00699794107459751,-0.05618388674582745,-0.035995597522242226,-5.3104247823178644e-05,0.02326595308452254,0.012988223896230298,-0.031026243518154688,-0.03535118638481706,0.012091890379648728,0.05293564933019487,0.01846337507137427,0.07769412998047732,-0.021235075781873808,-0.05332656828516276,0.006655322103553837,-0.016560387257604545,-0.028334639797387314,-0.04244002740933574,-0.040305123274473456,-0.13345729282417534,0.15206351141065597,0.05047705147107555,-0.05123699853663731,-0.0737419432926228,0.08485918962430958,0.08315931402137752,0.000767229902504607,-0.04970273400949032,0.0031238815720187885,0.040050004590024196,-0.003907550425600437,-0.07572016218061867,-0.005803665391875462,-0.01344839135375309,-0.009450212839027913,-0.012186102285884069,0.09169618319872976,-0.038300110486211056,0.1591237891873249,-0.1690401768689484,-0.11009770960934197,0.04844602641982967,0.025414139614899293,0.052264950253997154,-0.011678347678887618,0.013859588664670458,0.006760674775603238,-0.05776078110935988,-0.04372214939124017,0.0044879284548417706,-0.01189023033777396,-0.005537952235635079,0.04350221080334087,0.01212426463825958,-0.005608126721044603,0.006809508542936318,-0.0128693665767979,-0.08307648387366764,0.02187894493322405,0.04988347746297636,-0.032348065643237715,-0.11445596374343595,0.04625989006463258,-0.04873981228248614,-0.0979898565144381,-0.054437636418833146,0.03629936000374802
167.7939453125,2.2971038818359375,0.02974891769162101,-0.034418307560512104,-0.03364770134587268,0.06795493649669684,0.1333224946104497,0.0879131119028711,-0.10630912378031171,-0.22218178084377865,0.002166723084439861,0.06225827541466845,-0.018131140279986482,-0.2812270082804461,0.014653254567382083,0.19319686723615942,0.1549331724079196,0.0015232648738869332,-0.004976203035507698,-0.06703995042364279,-0.04444659742147197,-0.019371642741340275,-0.02071717099429004,-0.031461808055005855,-0.037129433863782924,0.04619705857644445,0.017008963405944662,0.008284919312672815,-0.02040174646988531,0.06415313549974716,-0.06607928027732639,0.016556900771817085,0.03392894607183532,-0.0007807570455599072,-0.0310145511353256,0.02991427793266779,-0.05445569624698957,-0.004040615711968992,-0.050697790094058705,-0.024246038012547756,-0.006917553073204376,-0.009988831175707537,-0.0213095950858569,-0.02891977851336615,0.08940206262957434,-0.056061957279928354,-0.06906443351526574,0.027057737550235553,-0.010949942581618475,-0.03674675705280369,-0.0752771506567709,-0.0031642157660073944,0.03214582871946523,-0.016203548702759918,-0.06491063043137016,0.04942431345470773,-0.01052044204339865,-0.0028865877034412405,-0.07083358021859122,-0.10239663416259043,-0.01574623703418135,-0.1169569305932189,-0.037022264038874805,-0.019942313092558728,0.00886982465170009,0.0817918088540498,0.02257525019271242,0.035274667889275746,-0.055659123209375924,-0.011386396039084047,-0.02671251190534056,0.02680141130352253,0.013886277675341063,-0.027662464604645744,-0.09928880233453669,-0.015003445015583816,0.0737685934149074,0.002459906007502441,-0.012545520052358958,-0.04242134906595645,-0.059792606695938444,-0.015029416111750167,0.004721834933775338,-0.03865307251576093,0.007255815380018236,-0.0023834761508717186,0.007122818734759748,0.0023617024662734437,0.0033217162937482763,0.036954875051778774,0.03268997021181213,0.006350732049499111,-0.17523686785195586,-0.04596758472858017,0.02170513512500158,0.016750530607577793,0.0065299153697215735,0.005617409097466997,0.01346759124625696,0.03770216245583539,0.11032823311600351,0.059913546147460625
172.18905639648438,1.068389892578125,-0.2762308734732914,0.11907189971198101,0.1225791520659015,-0.0717478277492516,-0.07756783593652287,0.12522616557201285,-0.033039787085652306,0.36244109294566346,0.13025730165945287,-0.08681510961397718,-0.06394527309360548,0.10512655107401468,-0.016421113248984518,0.31322838441162115,-0.17986030214807425,-0.1619169017208672,-0.06497961246028301,-0.03310899180124669,0.024198008341605272,0.021509637594930395,0.04989622260024311,0.0834597092593259,-0.005954629937896991,0.0187425805289428,0.03215026978661344,-0.037191723595456035,-0.051851353304128926,-0.052179414489984796,0.0568863934523403,-0.019034134045528832,0.022256498655338703,0.04833016816470449,0.036656922019559376,-0.05022259987004773,0.030471204997045327,-0.006419415976574392,-0.013458505792002088,-0.011639240829891522,0.004107038432905407,0.018610160636623,0.015042101529921949,-0.06499581050941797,0.09028958925242268,0.03794096724031781,-0.086593854940475,0.0834374526914909,-0.046824763683482824,-0.030384424936257384,0.07029262013605048,-0.02339519172660228,-0.006077673353793646,0.05730690812431213,0.02054079390207497,-0.07669351519906231,0.08769743165454835,0.046078945126398596,-0.0067697485318872945,0.020246524814289027,-0.0730940478795728,-0.000369665742299405,0.02163316161807722,-0.047903343110649005,-0.04113788611183365,-0.018690255819220652,0.11180931546739466,-0.005137821789431984,0.02494681326048974,-0.002863523671131343,0.03697108276732938,-0.041670092819919825,0.09843486318405295,0.0034797380417899565,0.05239644052873403,-0.06049644922358674,0.05357237178528382,-0.015835712933734758,0.07041640761066655,-0.012337520792231955,-0.01132718425096782,0.0067417120280742655,0.015103733233558955,0.056051398562477636,-0.011261718596236932,-0.08204546083278094,0.012705261254429842,-0.017249904479842124,0.05710883925132539,-0.021211819313599747,0.06407867433970227,0.0032869452568253825,-0.03903544053910951,0.005153784515696425,-0.08813854084365844,0.11906945896313635,0.08442039797551643,0.07744742482311118,0.06197862146570294,-0.009823453551237114,0.01992137436755962,-0.02601615829933989
173.2574462890625,1.07940673828125,-0.04506953197115983,-0.035952289607766544,-0.19287371573888232,0.1275347252964119,0.16740019827435154,-0.05991089130126484,0.15195934737365546,0.11234861712624265,0.15337879012667202,0.04479567284982023,-0.09871182966172878,0.1904205995912807,0.2676965745185654,-0.13789133863605552,-0.08089399536456728,-0.1248524610043699,-0.07545608038230842,0.00588348933582644,0.01207393176469911,-0.03919760988359765,0.03611608741889645,-0.04801994728257608,0.06086038470040444,-0.00996286377370137,-0.024279045298063576,-9.935444268706437e-05,-0.052705267702299045,0.059576564074878435,0.06084913571567423,0.05331875725196513,-0.036882940787096224,0.023510648004853425,0.04523740854831872,0.04403112165992416,0.01038582273831023,0.027824438620875604,-0.06335796362305603,0.006878159208091001,0.02677780134081589,0.01013569401155855,-0.012386756507928452,0.007264166684350051,-0.05248540802920995,-0.06551720196288968,0.028768455515345664,0.019057761407063476,0.04526177686080608,-0.002842979083222296,0.012395988448336543,0.06739942170687699,-0.028398081040564953,-0.003744339352731857,-0.0615233524636772,0.03189660395146581,-0.06600891722812592,0.028591600334026933,0.1133457196642243,0.04853565273651538,-0.045979785239224226,-0.011796097837985884,-0.04796836335026072,0.03996722159042339,0.01648996782865832,0.1043047071933209,-0.06432455107633013,-0.0797581277607241,-0.05491589590937404,-0.001296712727847378,0.06117313472478043,-0.03334574400987926,0.030186124603689447,0.031113835459044434,-0.08105378030593618,0.0345586231281962,0.007925045537262573,0.057363158550784284,0.01328208618611156,-0.0604841320623839,-0.046566740983752804,0.03243368171391242,0.028068922592227902,-0.034664430490877,0.05202895566605449,-0.03827335647220994,0.03801801854319074,-0.07279125715568673,0.031957787050069714,0.07333105469537497,-0.00863726465109274,-0.04422437999448196,-0.06885511494815182,-0.0554813889110395,-0.1747795314890058,-0.036991887744368734,-0.05944427035363345,0.01960352096318619,-0.09427063113648874,0.11218409212304817,-0.0866338209742184,-0.1658024949678802
174.33685302734375,1.10870361328125,-0.06693511242553865,0.08308141502264547,-0.08553125245493051,-0.2382237084840788,-0.1529353484909356,0.04401128789493726,0.005398337862042338,-0.11805368498846476,-0.013544601282388935,-0.02348426340204495,0.06491232262211233,-0.21034257520511804,-0.479039117641325,0.19616937340695323,-0.06481368371405155,-0.003537336222327205,-0.030220613878364586,0.00791930032140053,0.054831124692962724,-0.015281615963366796,0.0047915381473048885,0.028822106137936176,-0.04585541134036652,0.023133507481521542,-0.05356946614467688,0.004831985476734093,0.03924020122533585,0.07487556364809872,0.028483721895766128,-0.0274814318592077,-0.003389536540208961,0.03125136724954936,0.03403010646232069,0.10351779831509979,0.08032957869996596,-0.02694667887824041,0.024293985622234126,0.053174551994648836,0.00945996072298873,-0.00532897515612093,-0.01539541969649457,-0.007037684146666321,-0.016110384593284274,-0.04561655494339295,-0.03160868526509483,-0.053938938801528016,-0.04256699773761706,0.013279943097865503,0.016270992465507277,-0.032642613898897166,-0.05315354233131589,0.007879666939437866,-0.043655805862650096,-0.05398497711498137,-0.0028305386040301528,-0.039125532412706,-0.0794662849137113,0.04219438068884278,-0.09818445866747436,0.03208239042601128,0.017536875151527454,0.04575336255998445,-0.014196955763691059,0.05722814190548465,0.09765524260373004,-0.05392016903506567,-0.013764260587339204,0.00727712881797991,-0.03527269742655648,0.06506117742878663,0.03506643023413987,-0.03303747137711301,-0.015774127625426966,0.05521898604192253,0.04957746359321803,-0.03863961723081179,-0.011360958301852145,-0.02963666569335212,0.05691012139249309,-0.0037121474748505485,-0.017444047056193623,-0.028402697683973896,0.039406413766688964,0.013974988814563435,0.012317085524821421,-0.030303250714013102,-0.029062011008313952,-0.07532514928074208,-0.02212093448946882,-0.029997347172381304,-0.019549960823592054,-0.027172906152831945,0.0532189954198105,0.013211798854138687,-0.05022243435632598,-0.019272404907726463,0.03073091006316968,0.06650580242406696,0.048737446822756575,-0.011210109765353991
178.8614501953125,1.0691986083984375,0.17498576145558126,-0.135523104385571,0.06943120646955465,0.0014646466751907783,0.04135472899050141,0.04054265586417552,-0.1245182865467037,-0.1400328818620351,0.22290094301162552,0.3055561125075965,-0.03014428280579111,-0.1658826319321743,0.017444633983828096,-0.10562282096773078,0.04213588689851853,-0.06016308699474205,-0.025929188444486793,-0.10132114963805997,-0.022726457125616703,-0.01681000646045668,0.03939474283340816,-0.006830647509026846,-0.020184128116251705,0.08132655800032677,0.034342423890401666,0.009830176903289368,-0.015458377072642152,0.04860668126990597,0.014678582727114487,0.006475523803369316,0.031625973307344096,-0.024158867374480426,-0.005574935035784774,0.052188909157086134,0.051432195410077125,0.0015589734709398056,0.02140086939828247,-0.04314416766647773,-0.0009033455021098119,0.031178972099489895,0.03750843495372922,-0.04753560456501582,0.0018761054143275144,0.06875836835781793,-0.03237148757528947,-0.013249774500910586,-0.0062043378905153185,0.023946063757669177,-0.014020493002233458,-0.06304958079950546,0.011769264395501826,-0.08193676494297683,0.0308983232020021,0.019574621312987355,-0.12462921617742166,-0.044789522720237104,-0.03929868251146864,0.03975450322802301,-0.06245957853816733,0.05852890249825293,0.05920551298065836,0.07428491053850564,-0.059876061962445465,-0.06784648802993319,0.04447764862482502,-0.10504689482756817,-0.10228639913899963,0.0920822983217645,-0.03694507703063653,0.07004314396883786,-0.05084689942486861,-0.04972392389119125,0.030605055974674073,0.06878575972745721,-0.04223797985642525,0.004957256095715492,-0.020898097181409385,0.021031686774563327,-0.06440571935852533,-0.05498080174185615,-0.027489554966265466,-0.04050875420773614,-0.0021084138936855175,0.05680244925831797,-0.0009618042305231992,-0.047107437411528716,-0.025439526777674172,0.0009248257651337096,-0.05161640282477835,0.031897044605029505,-0.09800626512296007,0.014623257659221055,-0.10789725843604991,0.09180695313460567,0.09216345199448892,-0.23320296899236323,0.09436697388622496,0.1449974260863272,0.08079680045227033,-0.0753845212813954
179.93064880371094,1.0785980224609375,-0.09741192363353644,0.05542816052467925,0.22913444942835792,0.22397550122560192,-0.028272608432767986,-0.11508554481306178,0.010257773278367214,-0.04202685524428017,0.2249331086433692,0.023623208061101547,0.0880465934105726,-0.17852688215629417,-0.46288641420363663,0.044537854272490754,0.23010680541140513,0.10162370377196833,-0.0008018648712697155,-0.07794427488344585,-0.007781253938288988,0.027237051903109065,0.034373196596215176,0.033074390271672444,-0.004835744984492893,0.057865994354546965,-0.005896136706961715,0.006386757424942217,-0.03269139051252845,-0.014736359075508583,0.027767001693475457,0.08101433433025025,0.07571305433269876,-0.005234719651738048,-0.025674018677329578,0.042281126663975134,0.09625214101502555,-0.01718997072710931,0.02218006293565808,-0.030519677220382197,-0.009010189801187026,0.028031687633045508,-0.07466488103650706,0.06710655267404805,0.015469767440682562,-0.009769298540928232,-0.08867645861581397,0.03286110766390703,-0.03904460137316801,0.012630652600578161,-0.0426885813321703,0.027635256485927018,0.03396479300348117,0.010870045205647175,0.022648419247832646,0.009351291323077536,-0.10628600441877625,-0.10630465873230695,0.07910784033840919,0.028974582965576937,-0.030387721763654015,0.022899472830536494,0.024964097747750345,-0.03589526115820231,-0.10238109993002477,0.2654956519781574,-0.10828296986236083,-0.017207680876217553,-0.0041615512410039055,0.08166703676440352,-0.08317257370682546,0.034141019495092996,-0.0001562294565810307,-0.006721415630060859,0.02597120086302871,-0.0986956019169739,-0.022594518768780294,-0.016830822648942832,0.08889054597551019,-0.0014811962865100697,-0.059885701391932666,-0.05406132137169625,-0.0031626902924516876,-0.014148024219356773,0.044830690786497665,0.02171355106957937,-0.009188326872433409,-0.05527394557802887,-0.024295031476336177,-0.033441538386239325,0.016072142910074617,0.022314039999795143,0.012321830043051912,-0.05714679037630994,0.059016296286600406,-0.1182282343058576,-0.07097022937843965,0.021351407479198663,-0.014614038153884724,-0.09021239911560441,0.05165296185374717,-0.038977973038517105
181.00924682617188,1.168609619140625,-0.046062639978307805,0.04720104626758581,0.02576089265142106,-0.050856625625122255,0.08543133313108527,-0.08651697454945008,0.00182098043617486,0.04772592308330692,-0.184102173233349,-0.03469496390058273,-0.06936592677436997,0.5820657967390477,-0.11387682159793333,-0.15566421086863405,0.07188219208581412,0.03975104938532739,-0.029718390568384948,0.050166180571799154,-0.020568129681107244,-0.009256125227163861,-0.053921358337647246,0.05001850485768719,-0.01041789999971077,0.009091257789256948,0.034577595058783495,-0.04051668667929786,-0.035966128384253976,0.019422146367722354,0.06660593807023431,0.03791670629562528,-0.012878710737965923,0.02166685500684504,0.05012852542110138,-0.018137936375165233,0.029528992042686532,0.003802243116056464,-0.05384497618271871,0.041561211711297105,0.014475112281400863,-0.035370072907823555,-0.03355054836818507,0.00386554155555074,0.03552305240897602,0.005331810529775636,-0.0616448613240167,-0.04666287822175023,0.055855007514667245,-0.004416773952088093,-0.044209300553387836,0.009730171535958353,-0.06125213243054836,0.015442849440350875,-0.03456389909752071,0.02536705877938997,-0.02101723807233812,0.010820345907819582,-0.06187134449548204,-0.016211240538076186,0.06843648364341227,0.016616708119484756,0.0038121984631189717,-0.008057935774982192,0.021442343634428398,0.04717964533597786,-0.12776087138927905,0.07683621076418735,-0.046077440917142484,0.010210561670937344,0.06654595097907332,-0.025231420121275914,0.017855599024996484,0.07628577953683206,-0.058519669797899125,0.025965171211370534,-0.02581326424719685,-0.029604967122225184,-0.010171707028292407,-0.01745034452950263,0.008966248664366159,-0.0029397663098676774,0.0011083394415754,-0.0024951579826351005,-0.014451813116766648,0.042828810405793775,-0.0054616183406657115,0.07906758033566205,-0.0009127404454954397,0.01586233748143111,-0.0042321050609572895,0.022428596059400698,-0.020480953715555292,-0.06209495930670556,-0.02648992045862418,0.1032065266016805,0.02681684518754869,0.06699858655216187,0.09370809641520184,0.02336447506090638,-0.033019579070804925,-0.022606138830464573
182.1778564453125,1.3485870361328125,-0.04259280057274482,-0.0875617480858797,-0.11366024574661643,0.06533996733499035,0.019853114897038636,0.18328569773481773,-0.05257769671232355,-0.2789941143438754,-0.20608339427487715,0.009346484140459218,0.231515781366548,-0.2237163313567673,-0.1631703829785186,0.2304800735965569,0.001085901836402359,0.05150497763122138,0.012112491529934315,-0.08990479172487398,0.0015824163264428238,-0.12696907735489288,-0.017001922364134794,-0.05157204576132395,0.02287833066371963,-0.038131977361029336,-0.012033597764607273,-0.018646546926153758,0.06678730899954165,-0.03313834226617916,0.005623646394943268,-0.05999167631762695,0.06635338373477187,0.05361121578725477,-0.04876244027709052,-0.006720012468984713,-0.0038387867882886118,0.012561983118684648,0.02074993022078389,0.03696581686792544,-0.00803358536480291,0.007847846501911587,-0.12799385319419124,-0.004064131359356776,-0.07865776385657981,-0.007019546311141861,-0.0117476125910601,-0.020121866864105973,0.05397237292868702,-0.05308829397672454,-0.02341687415595662,0.027335219394138157,0.04162012816169276,0.025874696710912998,-0.06005195269732241,-0.10487563489288881,-0.034869041026402356,-0.10255573687050518,-0.027189025441003337,-0.03670286667201304,0.05655901315037469,0.04984044205309727,0.004549070006581843,-0.00295420009445311,0.008798680100656125,0.026381114993864568,0.035527823471760804,0.013251728778662876,-0.051522571887939864,-0.03609823762251738,0.044348834789918606,0.10587488509038719,-0.021343458269752844,-0.04778169469671259,-0.02574129892036578,-0.028719070738889515,-0.005002940276168388,0.01067878688557573,0.04892216435641965,0.025054339339128626,-0.008098543832469714,0.0009591145054120721,-0.07069676587552509,-0.07812996397694669,0.025955164542975043,0.0647826119454275,0.06101549152123517,-0.012369148420755292,-0.039386755975850535,-0.020930810211912555,0.012332675198105183,0.00816089553271028,-0.00981721607321644,0.08554568015148652,-0.0638907377956578,-0.01611732717874263,0.04243701136785443,0.02106160653356857,-0.045892628544373995,-0.20051989778934542,-0.07014911778554342,0.04823223915594051
186.9226531982422,1.05889892578125,-0.12316355439347192,-0.05677453844918046,0.025760653771231753,0.06480453536595704,-0.016004277022916423,-0.1108169220474922,0.01590567623875709,0.01570876767747281,-0.03608369944955221,-0.08503732948879224,-0.05191712114858657,0.08615957832874978,-0.008271641132729712,0.17369970232236648,0.0376349218937843,-0.2573167350856657,-0.06851801667439962,0.054109731827537116,0.0022819160278181377,-0.008470929087200034,0.003140264673244353,0.03649586353783392,0.06938836859177605,-0.030934931994846135,0.022127220813418336,0.05379982561469553,-0.07346224668234597,-0.008571972269429476,-0.01911741513935237,0.013735540291616125,0.09215736203918776,-0.011311850766064767,0.03868987729115458,0.06107864709625911,0.037046200211316466,0.05190688638090054,0.0371870416755337,-0.028153726986578323,-0.004025343700914298,-0.01919104997544456,0.026673929589624744,-0.04726277831299598,-0.0033762448961677407,-0.03831204243130073,-0.045693203440024394,-0.018116039291114737,0.008735744326274364,-0.0489564718815316,-0.05042522565397434,-0.0018151134553370425,0.025599763468284138,-0.05031592943632568,-0.05244764026979661,0.0868211826816968,-0.08396451170223601,-0.03494501455358507,0.031980611210407815,-0.0234097605201433,0.0194538982475993,-0.09206537364530298,0.06624083415579668,0.029447655284862786,-0.03366593335102202,-0.057473860790423784,0.08647371470145576,0.04139580024111496,0.03426566989891891,-0.0013606965100322055,-0.04217970121889155,0.010817556581882748,-0.008818713792961452,-0.11032188999858841,0.03618971706352794,0.0008636783822673598,-0.0653138370744656,-0.0024943912406863653,0.0015875090594708932,0.09635670635527492,-0.018345750867523148,0.0009913610202757356,0.06326931194544372,-0.0005040566378918036,0.008994662885054419,-0.06437613021859048,-0.04884441224375069,-0.009461264754940763,-0.009037107863778523,-0.00489586971693347,-0.11151939230202101,0.10368499471026175,0.04944947056450338,-0.029136009603502686,0.012960311534403393,0.02694965818493193,-0.07641216366972577,0.08184546124558278,0.16837048902336102,-0.04353003670991368,0.021406060165307415,-0.11674647203903689
187.98155212402344,1.09869384765625,0.01753376278182603,0.03952611552814029,-0.05708134465407142,-0.04971128732813469,0.12218675316199569,0.0015034631856052083,-0.24316705469014444,-0.07493921643583389,-0.21628607439987813,-0.10856554216538845,0.016724111116242446,0.2011834669326365,-0.1684706407332796,0.23497414710200573,0.0675002399597244,0.03767706155525498,-0.08335940201354898,0.06061138710074922,0.062456789665515974,-0.08812945141818784,-0.0016974368807724498,0.022735600896286626,0.019822066847794313,0.007500088680623809,-0.051830771432856554,-4.510536349592838e-05,0.029651040601399045,-0.00793409085414341,-0.020904564113991136,0.04394815511890801,-0.052282956561400404,0.00820286380894422,-0.053363091218299574,-0.012853501512069212,-0.0037364440828031135,-0.003114210942152036,0.02806567279899295,-0.035392583804085206,0.05226496068566158,0.015802870093397828,0.01565192923207944,0.06250411772367234,0.008614291816248523,0.07134275425093702,0.004282693107487723,0.04344717372954859,0.05735872055980445,-0.06825057290224827,0.018374985310757735,0.003105645805148164,0.032401492806447434,-0.02200399027246319,0.04024160934421568,-0.005263999340067802,0.03513367206455936,0.05624729175981211,-0.07649298210518427,-0.023202977323379795,-0.007755614473328664,0.024656617048232656,0.06520220604113533,-0.1293582836732583,0.13181156057871538,-0.1376148866906743,0.17291670856412272,-0.16476025753414977,0.09864422784834809,-0.050771817644720815,-0.0628437540217167,0.013524582627971807,0.02394612641608597,-0.11416074656707431,-0.024950080395196018,0.0004025549764540004,0.03451024721572464,0.04844205018376628,-0.01820797214897896,-0.008692578684829484,-0.002392248450823027,-0.029489467532904753,-0.01815489686805047,0.03295589392045481,0.05260016887798433,-0.0065447417551522,0.0032199432500732046,-0.008891099404177595,-0.014020798318467864,0.08061859087082554,0.061301749131514024,0.009484931114942752,0.05176477498919152,-0.023142672553708506,0.08439631779469745,0.07268220824874265,-0.1546188637242399,0.05178190657325395,0.1632116919124104,0.07271465251597237,-0.0886614565254747,0.08780257772770354
189.0802459716797,2.037811279296875,0.07400238629524034,0.05559942914016375,-0.08908080286115277,0.12891689799428582,0.028755114601923967,-0.16431809361860839,0.061403889381435206,0.04507053903780786,-0.17970907026206007,-0.3641153973345615,0.03624686425412483,-0.1072271959488934,-0.7171369927067592,-0.0022534802859734485,0.006899441390412042,-0.00786577267010143,-0.011381652860492614,-0.029916062901581227,-0.18086469875971486,0.0024268304760484746,0.031990391198486394,-0.024594806134531723,0.013686946960005057,0.03773973172146526,-0.04584296673347903,-0.031399791185995604,0.03654920048231532,0.014480441280652253,0.006246463254986736,0.05926026956671384,0.03187046626116677,0.10210579917601008,-0.0007179068427421859,0.018488156475442222,0.0700550147621564,-0.010119950116956346,0.08550346901493522,-0.015653341359124974,-0.02638592282110428,-0.002745777229769528,-0.042988157961742254,-0.06523958097823754,-0.014072994399943169,0.002474682151796855,-0.0746750104676413,0.0014805404354727852,-0.05049772050681726,0.004770458282031667,0.058058270214442945,-0.0326727582124705,-0.03409568401841675,-0.01970451249669457,0.06657279366012273,0.07862865438797272,-0.13287783468714753,0.018687284410633873,0.02063037822636269,0.007063054399632673,0.007367319345923376,-0.048210739329192134,-0.011638118985850734,-0.054313575005268434,0.07656268323692254,-0.09427344303202245,0.06590716725496946,0.02447227575027367,-0.012946038223528113,0.01742004003415936,-0.04881827911473465,0.02001161545183718,0.012053542901493602,-0.05989634800182292,0.019057610963804296,0.014963109049812573,0.0015735997456478266,0.010527172680249114,0.06457523463886729,-0.006164231636745928,-0.05673752521424177,0.07759446299862426,-0.007856954440473374,0.061813149429148104,0.045330518034217206,-0.002341555118256444,-0.06002195355573267,0.06559840413810161,-0.02164598938646052,0.044047269403684176,0.015924613760879638,-0.029402084028028252,-0.08711562620173996,0.011929037796879595,-0.09627548926914058,0.006246607224477108,0.10749368531121303,-0.08258701052636064,0.03715240079920176,0.05335618922068357,0.09473878233257976,-0.02579675931141623
193.25575256347656,1.058990478515625,0.11711849325359232,0.02754974540357096,0.08676563856541124,-0.040292631909469204,-0.009627544625815596,0.14091878356415455,-0.010509929423916684,-0.014493482387854043,0.029768191979258708,-0.023043641608629338,0.038519387546535964,0.005777942226473783,-0.10921397363089293,0.13105491066256952,0.3295444377194812,0.2228100596330378,0.021936500884296578,-0.04037558490035793,-0.011819958305068198,-0.01480869663237767,0.010550630741741986,0.004363431125838042,0.0017224514786675586,-0.014081645979124084,-0.003296605912835964,-0.018826264083507974,-0.04085554127119545,0.00601209732680158,-0.011614604729542781,-0.009598106800725582,-0.016101476593884598,-0.05493322542283843,-0.06905552123702609,0.09605336307056882,0.025835881396237943,0.0392770155738759,0.03475549538080145,-0.01057063512464319,-0.014656470177909484,-0.019513339392189487,-0.05606532168191576,-0.04441470310180773,0.02444254710198431,-0.024827730451943454,-0.014022208339679489,0.09237346561242316,0.07334888614915566,-0.1332169245273676,0.11421761181780399,0.012835564053329994,-0.08177240463400877,-0.04227857550027449,-0.0784696739500905,0.07231196409407431,0.006260635977103553,0.09577202446441097,0.009633606805867494,-0.04183175792451986,-0.003435091328598346,0.027263990440659306,-0.030199428367728817,0.05316371117878896,0.033973201454422494,0.01195463580545844,-0.043156928201109265,-0.07615771475395948,-0.04188603214765724,0.09850861514068461,-0.02043361104529219,0.03223294062421886,0.009203387253577437,0.04028078699556295,0.04580599761987948,0.014456633145356949,-0.029068028892454773,-0.05971615718560529,0.030217908026033944,0.043939144879845876,-0.007758968008127471,0.0003384477158534894,0.022040848486057373,-0.06465432469999986,-0.07475454791716918,-0.013468218935427496,0.0218904126898115,-0.050798684337584554,0.018580928153518403,0.04619553990366677,0.0062572145051453375,0.022687661659022,0.04750035289386549,0.051809160182750794,0.049072707134649465,0.020296761735003735,-0.07984423541133123,-0.11177299338487662,0.04673447345524538,0.08528925885595368,-0.05496563974270202,-0.03867443258241382
194.3147430419922,1.068206787109375,-0.03857312887017718,-0.11099538469266708,-0.14578252516424467,0.06300777524133007,0.13805348174698476,0.04746741352072661,0.1369775635615963,-0.31075894709398355,-0.18619591590408827,-0.1921741862807384,-0.4262623810515811,0.1032757095859545,0.008012251797394995,0.10212918461869273,0.09076918203745521,-0.047866176770728866,0.06927240543413916,0.10111795317967809,0.02660204407930444,-0.05431937251052778,0.053815976266593304,0.03398033196764298,-0.05568171550573263,0.06644958412329169,-0.0036317363153186687,-0.05384802732954449,0.03216483072325405,0.048689093171176305,-0.02977653876548718,-0.07532165786784259,0.05944364087017244,0.04513198843122278,-0.02362868596781503,0.07189702291597823,-0.006268418691590824,0.029797064986188653,-0.02181682350345982,-0.04592341682021063,-0.001991699881492095,-0.028687386577608675,0.022519772912789844,0.0022464442339571004,0.0005936811264385868,-0.061657391296188704,-0.04219281213486477,0.05996560589212362,-0.033221678842372385,0.0013469185658888227,-0.022401345226119713,-0.05815790559070117,0.04807941730468744,0.03430243401985879,-0.09073557178557744,-0.00741025755533423,-0.005386325323308683,0.0046773232826138635,0.02373819485739217,0.03731860267849345,0.0277594856208956,0.06078284422648421,-0.03005586296147068,0.03330882486800333,-0.03686721171742652,-0.09355383470602419,0.3030830002843195,-0.045906649068305536,0.08364832082297591,-0.04140789769745389,-0.0034636343731314443,0.007298738749382708,-0.08581526581244708,-0.020214088148379886,-0.07189107079274154,0.03886732603830528,0.04594185008810333,-0.03035395417783234,-0.053568261137539,-0.015270859042767258,-0.006544761076493262,-0.042850932218086044,0.03633118021747094,0.016846100780660827,-0.01908502902444303,-0.06635538739273032,0.00831335928157099,-0.011462440484081158,0.0010634528699211868,-0.027688395268570407,0.00831266653826092,0.022188711540308347,-0.04858170151057428,0.03529278173027266,-0.04165912345315767,0.07991800831253708,-0.11013235382854947,-0.026065675856714134,0.07188113256286988,-0.19145063607805368,-0.10996522748497749,-0.19552704754905276
195.38294982910156,1.1089935302734375,-0.07227079674657734,0.06821214440169426,0.020476394919563073,0.07253374317522639,-0.1561242583564513,-0.09364199218344572,0.1716318690151474,0.1380160698917161,0.10003240773041173,-0.009577848493570552,0.0897283450458666,-0.20403789229335864,-0.5193503700575904,0.019939869686367608,0.255829943021232,0.08483754782079339,-0.09971886023996561,-0.029258996794573427,0.03028765363729004,0.0028744791369064264,-0.018456333743821697,0.0723673533899111,-0.051089914651104996,0.0964019029844491,0.03574720866708059,-0.022926020684729015,-0.033259538610106505,-0.036020543614198375,0.029677895675771213,0.012838381069157925,-0.024695707877863435,-0.05536935698981847,0.043484623956723936,-0.0027580919373617835,-0.02108455629653724,-0.006108163969761413,-0.027896305642496223,-0.024914325834597698,0.022964791037515565,0.006660015041853358,0.007993749549941268,0.006871683819378729,-0.027936663520379535,-0.02368216112099031,0.02348405737203307,-0.013307673014768803,0.07689476536485906,0.016747702595281844,-0.01074531919423291,-0.03269052060769376,0.03997736105861759,0.004068432234216619,0.05611825408006687,-0.0027205139856451566,0.07113644361353146,0.018363055627628234,-0.050380145963687485,0.07577582418001627,0.029070575472784476,0.04791624984249641,0.05613182283775764,-0.045683111733750274,-0.008435757106244285,0.02086858489196,-0.09355324095880493,0.08284033680735915,0.036145290879010375,0.0677911038207297,0.006915850150448132,-0.04610148555256016,-0.04038813552878203,0.027733003392984838,0.05315053334881325,0.07566615538108863,-0.033645423204927416,-0.022531440999211887,0.014925889429326485,-0.005162025144780577,0.0058857027266457545,-0.014630508319413602,0.06896045516320576,0.05395350282200966,0.006412435278368252,-0.00139955775533248,-0.002621010190911402,0.01830480129288908,0.027060640298305762,0.028084559345844008,0.08135368884420086,-0.047444642223948987,0.004163622402627493,-0.055794771501472905,-0.04633262054747443,0.09455844790097753,-0.15650220055605765,-0.011050572888859418,0.081750113836872,-0.01669853002617032,0.005904440720512766,0.079966604596999
196.491943359375,0.9585113525390625,0.04911353292323101,-0.09239492034743538,0.04718309793769213,0.1414086359370854,0.06762570985581236,-0.08062326839160414,-0.18848432520821515,0.01095199874795065,0.04456696492041158,0.14391850659238553,-0.2621635035529225,-0.31307940780441634,0.031137546380694003,-0.14243611774335457,-0.1270359800235442,-0.044103697816551386,-0.021551829409309345,-0.01123570571624094,0.018778386888836592,-0.0369802374511846,0.03889012019613373,0.06378805698786295,0.0822400551610737,0.022192301635337683,-0.008028109120382506,0.014680363690572285,-0.014285813385263307,0.02577910616262176,-0.01342641116604158,-0.06706875136705195,-0.02988688564915625,-0.24553175105911937,-0.16257091354897868,0.19850683576751196,0.06475987415521074,-0.021469205340546145,0.03812133804327051,-0.009554193888535456,-0.00897775316028703,-0.006093004526418252,-0.01842817727206135,0.003606438638733122,0.027155273584853604,-0.00537961011977777,-0.04500728863234146,0.00044799803426805694,0.06874160087592479,-0.031378825413055304,-0.018756246731510356,0.017635086378593724,0.034588983483941786,0.008342932326289985,0.009980811148397946,-0.048557154132630724,0.1445931058926457,0.13638391628266283,0.059765234101446546,-0.0393719845807158,0.06432246045919535,0.019977300542963657,0.05847407957238653,0.03202855153660756,-0.06765982849000449,-0.09217227406647147,0.00036119638934684235,-0.07384597883790862,0.08597212218070611,0.035051306265687254,-0.06670873882818834,0.07074641715139483,0.04494290555197474,0.01294093629446294,0.021254277172827032,0.018617282307300934,0.06406712481336588,-0.030110221232988538,-0.024016201349071134,-0.057592158813775274,0.014859320341865581,1.6764475205036837e-05,-0.012332778551351002,-0.11288120916310664,-0.021484556167647925,-0.08877190151498757,-0.021118225406735754,-0.03989866979003689,-0.04287035275673904,-0.007030187992287192,-0.03605442199374595,-0.09686642393448003,0.018882605044665064,0.033882633967474575,0.03629254069740724,0.0246471267536064,-0.009897058167713867,0.060609706719624526,-0.15192856751891226,-0.03682645124081687,0.1321415113353984,0.08053663050519909
200.63705444335938,1.07879638671875,-0.017804994660751833,0.06359093824784773,0.006502330554437637,0.021029956922677718,-0.21281980226842503,-0.032384301046091246,0.2245821553830873,-0.17943995472037402,-0.1507798285723476,0.12336697193395928,-0.2093112695801185,-0.08117588373057893,0.2534934060285566,-0.11876767386250653,-0.30594097916936697,0.12470011341053144,0.06703741913612601,0.06847891342891042,-0.019969541255788904,0.051672232257868156,0.0731904013418373,-0.0834320036609752,0.03387490632416719,-0.03482880242575482,0.07226063587079073,0.030056231318059456,-0.019394674842240955,-0.11939725160714411,-0.09158322552910664,0.07633482134972011,-0.05312549002384926,0.06388254639112455,-0.07750315132235774,0.01165667396908288,0.04171256500317841,-0.03929949286420681,-0.04931180992827894,0.056770238496574775,-0.009981079128998895,0.035951728886948774,-0.03988985318789762,0.029607839392409168,0.017667655285431055,0.05179430597193159,-0.02634800177529734,0.09107936138680724,-0.1086268525510972,0.05168983313663997,0.03894468939340878,-0.009526408784549158,-0.016731334071154885,-0.05047652860608689,0.06240707119373354,-0.003985458862358675,-0.040329920612945366,-0.030451899710488298,-0.0688096904186922,-0.0348068331962664,0.04092111989280443,0.062380620329010414,0.025955240562742697,-0.02736346062850154,0.04903226897258524,-0.108824621861666,0.1923491153705758,0.15838660834907106,-0.13621363746215445,0.0324326765374114,-0.13696809162035653,0.09207543177248316,-0.09315964532955398,0.020624900661513276,0.06633515185529486,0.01609076083027347,-0.07296449708874969,0.009058259119535724,-0.0031676429490619775,-0.009996038362773347,0.00861834376357217,-0.041978113489302665,-0.007842105401760665,-0.007884824051480183,-0.005102965848678132,-0.03645639362629757,0.01712728646118525,0.12698741300195035,0.06006998041838607,0.030312109627746976,0.0009125069752649623,0.01908270724823212,-0.03113737136833721,0.05702311411136725,-0.08570033233592904,-0.052618678675407815,0.02828178829599138,-0.08389228599765272,-0.14026313420437808,-0.026888940716673294,0.02940900124494223,0.022123533988657844
201.71585083007812,1.0688018798828125,0.16265743566678478,0.05244374940565802,-0.0623933473558817,0.10023418599706072,0.1335747591652865,0.12254220084281954,0.05388582903921158,-0.1613488087838619,0.28338106369276417,-0.07543283030831423,0.10563984613394903,0.40359026293954364,0.16364274276248023,0.09259185636506989,-0.1904001199968889,-0.18055365818636204,0.03284877562230042,0.03358210095413058,-0.10670130718950951,-0.0998161262258,0.03565067237964275,-0.05499016755153954,-0.05121658250149361,-0.02685740676215458,0.017311370501269678,-0.03184483128278345,0.022936993811109002,0.01818551361428012,0.026861374661356824,-0.0300596565702015,-0.004148359240283783,0.017013854107255793,-0.006393397864296631,0.046630745605150584,-0.0198030893290089,0.03911502065070411,0.04326445525740719,-0.04106913582604744,-0.028435203096770972,-0.009693868829481485,0.02084627869950332,-0.0074268176933308255,-0.0011081660687049194,-0.030705676508946626,-0.09675028105649064,0.050240067987258726,-0.012962857423530084,0.024105364159481578,0.021460806156844103,-0.021733567910852025,-0.03654106353124725,0.007871741794587942,0.014833121688958818,0.09743188446158348,0.023702793033762368,0.0541197950082794,0.019183387868589637,0.025288350508897772,-0.001296475706504041,-0.02838132169440875,-0.07440167423070664,0.04288585830759885,-0.014432266689783417,0.054346039516749184,-0.06324531563632273,0.0011119853068845935,0.07525974691890033,0.01088941497897564,-0.0052279694667392435,0.06841492246794208,0.03307258977366209,0.09104949243383664,0.016367075662541974,0.027787846665373983,-0.045019610952488284,0.02854323727793425,0.007817568572900977,-0.001575760029981071,-0.010597231034085606,-0.040798331635133175,-0.008786623284124502,-0.002794214369447573,-0.034201341986396176,-0.009765777760549262,-0.021980760734546547,-0.05955997871301423,0.08987751271389142,0.03664175193190967,-0.10512684087713188,-0.028547009139461847,0.03789571072407402,-0.06279387421337677,0.06437820163299726,-0.048411098973559163,0.09069436262877693,0.15042351767751586,-0.030569608891229717,0.0357729454409176,-0.008058483221364328,0.12629087423203705
202.78465270996094,2.1573028564453125,0.09828842284994316,0.009537081377939658,-0.11885564642423115,0.0034066198389769604,0.2232880470251417,-0.38983659816738453,0.02664956391932426,0.0342046702867201,-0.02362387379424622,0.18828631983429894,0.0477898577236067,0.06685386056334941,0.0012238346872734812,-0.3286118950447973,-0.008973265230784427,-0.007832491175033068,0.006208501564969118,-0.04233908211926918,-0.03948408616380791,-0.007542093046434233,0.05000317726757173,0.013396194637224853,0.0028533337090946524,0.06174159172119751,0.02790962592633209,-0.03036037072266095,0.04509596786376543,-0.07664700829563845,-0.06406188669523719,-0.010010632993070432,-0.054640335811966055,-0.02357895318437507,0.00440130399271702,0.012244771087612034,0.010385689754051356,0.012912112678619914,0.00010268861891125913,0.009954085811590647,0.01887151590241493,0.049134065511911844,0.015522432230619582,-0.005003890566913166,-0.09449832117606215,0.034753629357357735,0.011777103233483504,-0.012750632482294718,0.05077721225876643,0.018565143178217267,0.028258438890675273,-0.0319170832764339,0.05160462975310646,0.014743736041378228,-0.03590329831559493,-0.03916508194339391,-0.09971958352583075,-0.04706849093811981,0.010570192917717427,-0.025620692019777125,0.05663345351703307,0.019132720254230472,0.014975915294771385,0.030584070284763353,-0.014994233882281037,-0.002749953391678404,0.098695239770104,0.031036867990191626,-0.046152235518110964,0.05729626927251036,0.007619547806956679,0.00531080766747934,0.011924378908158478,0.003782082723282265,0.001721007610348664,-0.049533087110358434,-0.033892444534586716,-0.028805653371737523,0.018837341831723666,0.015606446934952237,0.029659517434375247,0.0162952976823241,0.04350922779264724,-0.005365269568289789,0.001975700232579824,-0.026894707382678008,0.007469836107736254,0.03568795491823468,-0.01134714534371014,-0.017571272528281306,-0.05683680532004711,-0.00909917012939565,0.0010454168783945307,-0.11193526069755881,0.010488869645963987,0.017243022661813327,0.08157570951532851,0.08107881078353597,0.0437449849758055,-0.06333991751094015,0.03911194812723607,0.019750924704725087
207.0801544189453,1.0688934326171875,0.03537067358820646,0.0009417260160877782,0.051274060938792235,-0.03869803124048122,0.08830100309090239,0.16260743565991287,0.16816832728291214,0.09639264225625108,-0.09912279925489006,-0.020016001306955092,0.05419518802886226,0.14283509679978162,-0.28781056470176836,-0.02023080696730222,0.11676109103901816,0.17941122435873447,-0.046418179580661176,-0.005874374446571141,-0.012878508334054982,0.0595667256829458,-0.1069295359183444,-0.005954362809635495,0.03278684563330109,-0.02313330133936736,0.06385710315146165,0.009564392526577694,0.006047514536960787,0.02563530900127145,0.049761250840787995,0.04548649213434804,0.04997835949740373,-0.05513511940772696,0.01757444285356098,0.04600120403890147,-0.0513085319997468,-0.02404828563707435,-0.012839496529093677,-0.010075509539886392,-0.014060842907607266,-0.004187684135360054,-0.03940610745366597,0.007742464416594066,-0.013951515715623402,-0.01547943190266561,0.02483186977977071,0.045350718794562726,0.1406486695726843,-0.07847716510709693,-0.028244490895024562,0.04977821465638532,-0.08539580231593148,0.10977998193180993,0.00700115541921977,-0.0505551751935912,0.14391922694742976,0.11052020123132492,-0.0048905002389405955,0.04494388885869122,-0.030883334205844597,-0.09904630816548601,-0.03225282729648254,0.04500137408079022,-0.1181960001298476,0.03786933024520508,-0.13611246205645597,0.10660562658758604,-0.018650306034644876,0.039518099278072004,0.001970758937048853,0.0797689027633756,-0.015005697209692335,0.08085998404961117,-0.04909475342044414,-0.004786159282543556,-0.04319874967658508,-0.0407947750188585,-0.02545299471018582,0.10929231381378161,0.048367134640948425,-0.018408418026955215,-0.07244157665773522,0.009009072170195198,-0.028494784828780706,-0.0050322157760613676,-0.0035931759915979423,-0.0260978933263405,0.04897496863216476,0.03948410314197699,0.053789454363983885,-0.029602575844057625,0.021606787349898925,0.00573193443605249,0.011968315302193142,0.08400191228098132,-0.05272328874878342,-0.06297602230303194,0.17821611736439055,0.027096725047720416,0.016665785737851442,0.002883451270350522
208.1490478515625,1.0885009765625,-0.012650559196347716,-0.1913158076532855,0.045548678611412756,-0.009651103647979165,0.03686088708018535,0.049056557964928915,0.03900957021978495,0.09527561228329924,-0.19388450767178492,0.10466713781514123,0.24119525538233413,-0.0037493925712285296,0.07985106965140853,0.10705231415699949,-0.05717931275203883,0.0441521667657818,0.02919891471295749,-0.011346831908568672,0.017841867362062912,-0.021258702002720245,-0.040865339559854386,0.0095821538647094,-0.05336014875103371,-0.009394915634624752,0.014091833211100826,0.1204569897459662,-0.004729954104974593,0.011817090414329826,0.006795961874300961,0.06945246313735215,-0.05659328302586827,-0.023447547102704098,-0.035471655651636416,0.09547447587533964,0.0406244846392876,-0.001727498688832248,0.023352354358599146,0.0353124404274812,-0.006047066015650016,0.030849347493684745,0.08407820004626264,0.0038098753527932706,0.019968960079317144,0.017106360914685877,0.001173933854875792,0.0019383172354079548,0.04169370633366558,0.0005741642337001463,-0.0003003296644784868,0.02398469871074676,-0.01768265028800256,0.018899175539180975,0.01546753802914215,0.05083546022887181,0.006737352240678097,0.0038661634138918996,0.018780475919023876,0.035424794463265664,-0.010960755291695334,-0.030833025325057335,0.008773965182468604,-0.013811237066781848,0.03407712780077533,-0.030513044382694816,-0.10802493826470962,-0.024226374331382784,0.03721809173695239,-0.02755710246402554,-0.026162281911868573,0.028514255455181495,-0.019672749985362368,0.02572996072536895,-0.07003673927107083,0.03546303980574072,0.01587666662940846,-0.0918265850454027,0.03404082046301085,-0.04765717550845562,-0.0075259568812436825,-0.003320375393065491,-0.01986818066768018,0.007869320292444932,-0.048132277895685714,0.02193678608876795,-0.003375503593744167,0.04412308494827638,-0.022997570559691864,-0.05150416637035608,-0.008292240209560786,-0.015927508335754792,0.07944086215793605,0.12544740977118998,0.13074740550161607,-0.025250297780743364,0.002211300272728027,-0.05723561996128908,0.010471767968717429,0.1788420760844316,0.03233506900751171,-0.19071639069139687
209.237548828125,1.158294677734375,-0.21180095647954542,-0.05415187311647784,-0.05792162312622827,-0.0015378689773044279,0.0743701102349712,-0.16061624513430842,-0.02569704285915811,-0.11865412891565282,0.19481822279339708,-0.10335283579063725,-0.3294565238514976,0.14500457275324816,0.1167290867271266,0.12944124465255225,0.06406303490157139,-0.007727394038465205,-0.04728959259826719,-0.045946717082353206,0.024561815885975724,-0.054055498314238164,-0.044269220299940876,0.00046676307800273126,0.006341569883471155,-0.010881235143408045,0.06318100524727038,0.005688832603737508,0.10552990336337874,-0.05514213038809988,-0.004285812303094103,-0.03198216537867877,-0.007253293106163586,-0.05346927923361536,-0.021160918471504878,-0.004286529586881167,0.022808975979946196,-0.03062970176035125,0.07810542171868509,-0.06786537498011631,-0.0635757755172446,0.0023929621159999442,0.013011375134485163,0.045474336316303335,0.0015685680990894669,-0.06008882458072299,-0.025727307772000153,0.008956232399368089,0.042518762876371234,0.0028995562082572935,-0.05039687791593526,-0.042317723605642545,0.07689746239265724,-0.051323404441753144,-0.051172546537505324,0.05380633419837938,0.11943185346488577,-0.004078336652740433,0.060489815948163286,0.019122351322726702,-0.0032447695076391393,0.008517086072991502,0.038310391313488054,-0.03318610309939554,0.014953057895248662,-0.011662900847016915,0.09603188886153448,0.017466994003950027,0.0064120703680607405,0.051047220409314815,-0.05856707255822591,0.03748217168187182,0.031319525978792215,-0.007762472879495174,0.0895444846935706,0.010435641357557498,0.030937208191358406,0.00032436159422348856,0.007245211267467713,-0.021867142904648088,-0.010689078977114973,-0.0020031705874445954,0.011403466636686108,-0.013570200250867102,-0.07414475293753048,-0.09703572785057235,0.009891099757840803,0.044586031105809214,0.003913462087704346,0.015532539156554821,0.016142122957836878,0.0048923298500965565,-0.07672757805250319,-0.054829158758867035,-0.09127379658038157,-0.07064729769848153,-0.1202818642946614,0.005713305350464033,0.07164106409820353,0.03461697027233486,-0.011551829874912493,-0.1407802289287261
214.94125366210938,1.098602294921875,0.07948784336116328,0.13409476445969923,-0.02344645701255719,0.010677976939746236,0.0010252443521527187,-0.030946800617001776,-0.0876727368112662,0.07158713972029156,0.02672657205480583,0.02763771451078923,-0.004787393483169804,-0.03508182189749036,0.04624886770354714,-0.011538623125761927,-0.012189684994969315,0.1687027591411282,-0.02172309493912472,-0.046463716351289625,0.020900889773613266,0.056206844277329054,-0.0016451637030700551,0.022101202470409087,0.031667571024554864,-0.03181064850879572,0.03490822385858454,0.001290541809856376,-0.04679816849455684,0.015277463895779553,0.01382813292381053,0.0008990155867779626,0.03387772070915334,0.019092111356620235,-0.007741842111186611,-0.026289477496635693,0.0041013698356425765,0.015462455701307613,-0.04171196263944806,-0.043143659101542865,0.03860030008731698,0.04191087932982146,-0.03919047829351694,-0.032668205785210805,-0.05864672457085316,0.023441271445095363,-0.06241844961762688,0.012412418017486904,0.010473860447548805,-0.06021718869778801,0.08251341063624529,-0.01958517834160904,-0.02113804833165389,0.024592227380411225,-0.03444016961521684,-0.06442101815319695,0.0739295769684444,-0.015780179452513816,0.008467114777787804,0.0903694173549108,-0.038981578420337976,-0.020550582019605232,-0.0972022309398698,-0.012132256287468583,0.06336694584786312,-0.02424553743798495,0.3033216916494412,-0.007991294380930448,-0.13986107280649993,0.07718204456858968,0.00476519644501764,-0.0519325663592595,0.019415019301778032,0.0011103461820324116,0.06389547275926025,0.000942615800796234,-0.02092940347243337,-0.049337027266974226,-0.07056591414493109,-0.04230170441641173,0.03461908907288553,0.006212698980380371,0.006749703883158126,0.009404373185701989,0.08060416088903276,0.030034852627690782,-0.011303811981686857,0.005455455361009506,0.004536895723774629,-0.01685150660658688,0.07363371843378112,0.013331369087398903,-0.021771251311500806,0.03725115586165657,-0.11043205319288725,0.07516440114793983,0.009256805400844129,-0.09775187783954888,-0.014223593333889577,0.09304220918134043,0.043819280075256845,0.04415081886374118
216.03985595703125,1.1288909912109375,0.028770823198233125,-0.016627567267299925,-0.08359241969051365,-0.008920775461479794,-0.100927439688619,-0.024361296319731676,-0.02288694238838122,-0.2689719097617185,0.08724199112444021,-0.24589637187585894,-0.02289169712125225,-0.4368929210722376,-0.14350418912933643,-0.13267748934883042,0.054246706641992326,0.08073788365441616,-0.03917498908515099,0.010307658363706867,0.06883685667973559,-0.028236375926235926,0.0038774031842425645,0.01852672504963911,0.041181601177178985,0.04638350659419234,0.02769991126019686,-0.015669169361612154,0.057420340787668264,0.014632662823288185,0.00643625594625567,-0.02098259494425021,0.05067100391333161,0.0007029476702648939,-0.038470652597646676,0.00844740249504125,-0.056367809495012675,-0.03353847965232397,-0.0499365529220849,0.008338276305624531,0.032335208540199015,0.029798737094341686,-0.03565220390408575,0.0004675714956454131,0.03515504057621836,0.006717465517132131,-0.06540187128201069,-0.05691139186086915,-0.02202937054122422,-0.009353815991238919,0.035745790012643115,-0.03044299429673323,0.023177890466981054,-0.06894270758369564,-0.052548706054202476,0.07063828761850247,0.025030938073884925,0.027934661484211296,0.013667732590518414,-0.0956756958897055,-0.023651594429234625,-0.00029038256244063145,-0.051485382868244056,-0.02400839078289326,-0.04974892898277844,0.0252674221320944,-0.011727867682386213,0.034302706583158496,-0.026585206337168772,0.007807157761350693,0.045428913586879005,0.008570048340145901,-0.05736716929766021,-0.014358610911831157,0.0006741690463184236,0.004354084027026851,-0.02479089532511866,0.04855558849413852,0.06331520945964099,-0.06243616837776015,0.006424465466949208,-0.06294546937252744,0.004321897848301007,-0.040182869377756815,0.0884643898250934,-0.002925628157157758,-0.005589838710995692,0.007199914423016989,-0.010477398161660767,-0.03881989407404784,-0.07292818116622013,-0.0003941763921247786,0.09212822112750162,-0.008163826792969123,0.01651112356928808,-0.03607352079550052,0.04273044370191887,0.015561102414449541,0.03459091994493069,0.029591618046133826,0.005240198580963772,-0.05485566952752144
217.1687469482422,1.0886993408203125,-0.061572710539080075,0.04266338797267269,0.08414787267982543,-0.03221100643466583,-0.09547190176588098,-0.2384058339162664,-0.04789758718672973,-0.14563821184790363,0.06382729570909915,0.30501536013438685,0.11287165161680715,0.05055719041812124,0.05492343058373194,0.17205940305538997,0.15655916486532717,-0.014069651120204413,-0.10819358035511936,0.031889148407953594,0.0319043242213322,0.05210347911821575,-0.07631783144762969,0.06319482391232709,0.024478806946080567,-0.12121914444381127,-0.09076604289732874,-0.030275187206875043,0.003942347578844385,0.08200949332028731,-0.019369092044511545,0.009945788330719223,0.004627759952538654,-0.017743290551259363,-0.008563549896255766,0.05171624104353948,0.0008550347302692081,0.039152530405109985,-0.002038721763029009,-0.040236540618459354,0.05592596227427869,-0.04487907840883848,-0.012928895269411676,0.04795358289988736,0.054361761103718514,-0.05399111808705684,-0.04836907180822904,0.05006323955535986,-0.015160532395746681,-0.03694358590560153,-0.002282423239649156,0.07713355378829179,-0.08858614895770245,0.006606165214426432,-0.01928872559688294,-0.023879839192876957,-0.0012468256235796888,-0.016564316586731524,0.031263549543006156,-0.0770788435252981,0.031598717825115016,0.03667523433631035,-0.05610944581910647,-0.05079791264348951,-0.01783844575482043,0.028751936163085155,0.04338162361134717,-0.003226837888437039,-0.0173289410354482,0.02328531208861795,-0.04408116295469833,0.033518040157723944,0.040491216623887355,0.003644661531732072,-0.05619452850501536,0.01318927981359205,-0.012372785454357778,0.004642996929766972,0.03536283238444507,1.4823922407286583e-05,-0.004290702658172462,-0.008602037331292695,0.0055135471187573604,-0.0033287689579623507,-0.020500992590657206,-0.0032940762195747533,0.015938264446160925,0.009774318364503026,-0.036017047372481965,0.11034909238921661,-0.031751723089803285,0.02789404834732536,0.0027642444752049764,0.04774172335195654,-0.011542227378620163,-0.020526899163546823,0.09452856715489116,-0.04282088896352267,-0.0851318862669691,0.013230791351989086,-0.032452920428883585,-0.050798495474129526
221.5834503173828,1.0691070556640625,0.0035342433917426447,0.01750644720609308,0.00857351658744178,-0.1758493066621172,0.21613181858789648,0.13926587248936767,0.04099291428358579,-0.052243134805985234,-0.1063442720362267,-0.0722097941268468,-0.0810217001013902,0.04992280454705222,0.07769956144487639,-0.09588572132339293,0.0209877659541906,-0.06786632327051784,0.060646209983114506,0.004279579481306018,-0.0025478522176867633,0.05939757636770685,0.007801975345699175,0.05433576365224314,0.015287421731699075,0.09011113309685483,0.0015831341573139118,0.004342168416238981,-0.0012816507577718189,0.01912232945602828,0.0009877262296950453,-0.051512416410964094,-0.023622775672127234,0.009260075965411842,-0.00618116528341708,-0.06964653775268881,-0.036658559339446575,0.011854053975059722,0.039770228258844124,0.06211452335515877,-0.004289617928862968,-0.008074043586656839,0.027766805250815405,0.03971566650111526,-0.05251839433879522,-0.017921703800118934,-0.0033649085052217535,-0.06238727533766242,0.0001995732876621248,0.028358847860495057,-0.084072569368494,0.04441884417523813,0.05111114607603431,-0.0836639426843212,0.01832726184538258,-0.011056854182341001,0.05657784050455337,0.020449864715414434,-0.09427049445580754,-0.07443527793877136,0.07949690069982145,-0.04516844073174574,-0.06500523412236148,-0.0067363596366698565,0.04751503698541221,0.024473908983413492,-0.017366561718312194,-0.1348881435891956,0.0035776693893433613,0.012143515264424903,0.06617480309531294,-0.022120349487980112,-0.02890722720205177,0.006311135215819608,0.0097642763050583,-0.014472100162126501,-0.05565185433706051,0.042322817676557184,-0.005660276304958675,-0.05688514322365918,-0.003179411595168936,-0.02970075799186297,0.043839522865499456,-0.04306085257581852,-0.021377980194895257,0.010233662648067696,-0.0656053502340482,0.07020798957124093,-0.02102899911375846,0.030677146743325966,-0.036115960292380594,-0.09230160696621362,-0.03980504814824762,0.11882881509174859,0.03074862936602525,-0.028644067137010506,0.03211007018148339,0.050017690156073255,-0.10295405323026705,0.02934720367681214,-0.04028591037473011,0.008162355637760743
222.65255737304688,1.09869384765625,-0.15234598770980362,0.09633404949205768,-0.0029099561748231594,0.01155668321835581,0.06966408160478021,0.08667946202702861,-0.030471621497871918,-0.05794140128696298,0.14244964600276566,-0.15251399667353224,-0.2558107819067713,0.27795309483962494,-0.029421872798642078,-0.07674184896593986,-0.031516843684162923,-0.11098285778525172,0.005574858281380294,0.029684469297551936,0.08913159584278474,-0.025986101704053025,-0.024429684868283973,-0.02509117093468944,0.05753279078987446,0.04952068672577711,0.005142071149927141,0.006737735801371619,-0.021637683379773922,-0.0021007225790580127,0.0263713178044757,-0.032771836199135505,-0.029392953801316013,-0.09154291163326446,-0.036026188395541836,0.015051506621878506,0.03898702958252029,-0.028899127331691594,0.04179173921075202,-0.01790456320284605,0.007317308790817096,0.03321352368200143,-0.039287107457605726,0.03415093169869316,0.034045256570304785,-0.001093700522578937,-0.01833203982443873,-0.011921679548748228,0.10689511664647824,-0.06210818892953361,-0.022465835212102377,-0.09169562891631093,-0.015440730223565386,0.14206253143193176,-0.07739859513881768,0.06373922802289046,-0.005504315696018294,-0.024919313722086528,-0.03760595604164374,-0.036316420669154456,0.07519350852924395,-0.04764657637809348,0.016182033978839744,0.09118816739159864,-0.027021006454881813,0.017694555744007218,-0.0337337624040187,0.026699645773197465,-0.015732128224944866,-0.060939565910525594,-0.0487653704764103,-0.02445355574170472,-0.016138643849908707,0.020993259215453995,-0.04735030540798746,0.018317289378565582,-0.011994233027641105,-0.05603846434241954,0.042386451143810046,0.023703904321099194,0.0007136443251683387,-0.015201071666242214,0.02968499934738659,-0.011627041207684924,-0.008656160718340737,0.03419276223676499,0.017122153773660345,-0.02516316839471793,-0.0013353823628169613,-0.045868230500002216,0.0430176685664525,0.02360877203861612,-0.04274215909825994,0.09620729493649403,0.01795185625933344,-0.10808515979986186,0.04082697598463767,0.2505350910126616,0.16176964077607797,-0.04470708493277978,0.08104208273432412,0.06752538605873973
223.75125122070312,1.118804931640625,0.04216273143316904,-0.11527704242488022,0.024537698660412298,-0.02483790171973809,-0.022770729790745178,0.023037498443247546,0.09376798825911024,0.08224445525524778,-0.2444321858631736,-0.07893473767197731,-0.29749141318845707,0.42495043342250394,0.0040122793088709086,-0.2473946514924702,-0.019392614712333493,-0.08263108134571452,-0.02218265907100534,0.12357954183476372,-0.015616821377503065,0.03304257892011482,0.08746506603663368,-0.048750904710157424,-0.04329267867605074,-0.04763927208578407,-0.0327507363912017,-0.07585903640140816,0.03128939065544341,0.05306021328248397,0.0364486743493405,0.04509639204187187,0.02407742159773636,0.01168852301166956,0.020195997962766124,-0.03844654954344824,-0.10889589614816486,-0.03367573049440848,0.06157346753636681,-0.005235731879339397,0.02175475104474555,-0.029330729772900424,0.09502273935889291,0.11221945727132629,-0.01808139038309654,0.018965155644885698,-0.003404149694337918,-0.005386475957717435,-0.05526925582171474,-0.003925028554167372,0.02822055943439123,0.007634469210948486,0.05283338533225802,-0.06742679602569789,0.07583014339590106,-0.03064713494685779,-0.021005191494680747,-0.047670933767558044,0.04701062750979887,0.08217498464165993,-0.08135262884462902,-0.0289960642635841,0.052026378345689954,-0.023925678627701792,0.012763689730215425,0.011428082751705874,0.029484284622142636,-0.036966209165072914,-0.006566916482883565,0.024388671605813653,-0.010303455042013025,0.0643009565432061,-0.04596673576703458,-0.05202811190976035,-0.08450146860860124,0.10381006970381058,-0.025019765198084378,0.003829867603481715,0.03396947599413112,-0.018103878550262957,0.014740873394074115,-0.03961034172200063,0.0763292348211889,-0.05586158057104001,0.06303787314569337,-0.04707573262999516,-0.03104509482114893,0.03919172358285721,0.04193383215150057,0.020729124079494333,0.022863354126367374,0.009126949429851842,0.016221377006817833,0.09108138178569196,-0.07486651237754387,-0.10713920110127219,0.020194272864776767,-0.059427432152985314,-0.004228347553515602,0.029332284177901444,0.11344242139291376,0.0061740321553963515
224.87005615234375,2.2271881103515625,0.005614436725622542,-0.050086974159446684,0.05111704564878063,-0.0011561482815190122,-0.15673557028541688,-0.08713590882089994,0.019224922201032342,-0.05998198246000368,0.0636417140671238,-0.10621001212087053,0.07671666006090601,-0.03452382262357036,0.3413239963238573,0.054460271801100836,-0.24648311478389248,0.03086356088549462,0.03138244701834253,-0.11767890889467707,0.06671085917458229,-0.120942898683759,-0.01095030438575647,-0.0021336812077647183,-0.05626551997708512,0.004316074118735308,0.01526577106772059,-0.10311952349086795,-0.0345469015086141,0.02922675354954847,0.013733085319583876,0.0026346909137069945,0.022739045037583103,0.02956591630030216,0.014823828687699717,0.0472239565299353,-0.061054419972158415,0.0042466181439388545,-0.04040745091303242,-0.014541605271673867,-0.0766033846818222,0.010447042784560684,-0.0457502440973377,-0.05299330392770017,0.04531213869666387,-0.05988610737260232,-0.004403870467820589,0.03618002504274349,0.0005227680610684661,0.027698104036789205,-0.03164307452277228,-0.00628397027007592,0.10517770207933338,-0.04178399846102643,-0.06817021840696838,0.03811676652288236,-0.09825313960751263,-0.06580138137303898,0.09635552268921435,0.07106577819988666,-0.0735784775808708,0.05430774186392107,-0.015449730069425752,-0.04975034548496643,0.1125191365899413,-0.08144835097544109,-0.16251060979190032,0.13096242215145742,-0.0571260588751063,-0.09088533819608263,0.00741638974947253,0.04916181764171232,0.0957469138084742,-0.005563020499166033,-0.055701125553807816,-0.01375930406744855,-0.031037289874181417,-0.007056454227363285,0.020057812798325223,-0.0013035223687113769,0.015637922613595166,0.010297575673981952,-0.007669658047993038,-0.04856392061653661,0.0024932043819005044,0.003775019071210032,-0.02059364337985173,-0.13075355670149624,-0.05895787479058684,-0.010400795477095067,-0.04284399183494479,-0.04392246692401303,-0.07202314083835425,-0.04164303586442455,-0.005065350422942479,0.010112912700049007,-0.08820591080854619,-0.19233988755229775,0.041125214987193875,-0.11219013344232229,-0.10924301491166473,0.038602341356563305
229.1951446533203,1.06890869140625,0.18441857614101753,-0.05728233481427671,0.021324597345872356,-0.12070525683674584,0.010436651576684046,0.18301197884741502,0.17338047892734684,-0.08644116466280474,-0.17166582534355504,-0.038052837831215616,0.08427677098393993,0.14866731731423724,0.2807839963202738,-0.2347126605108606,0.11257121137987033,0.3634497176448778,-0.057561442842657115,-0.07748541954365704,0.029877289873271033,-0.007216000746791681,-0.03979744741446241,0.04698228894485183,0.03808579346036939,0.03671261666415283,-0.0002973232085622564,0.04060983247882591,0.07086298631490698,0.058053211299183054,0.07597512181320654,-0.012626741574537787,0.038299900812191846,-0.03124139353812291,-0.0010650517369107495,0.03149852229031627,-0.03971038306191634,0.003085314095341243,-0.010829274131607294,-0.0697759708911637,-0.02586635696866616,0.020017580767017096,-0.007003856653120467,-0.041948132968205966,0.01839678709200087,0.004160374657340584,-0.015522646253851012,0.00350433524518794,0.009810728225996735,-0.07763916389223169,0.06575532327763922,-0.014052369421975588,-0.0543472027842605,-0.0481090324404925,0.053406236051858076,-0.006909292674783532,-0.056499624501184405,-0.016314919336386784,-0.11552035351900525,0.01355309609620033,0.011388988935217434,0.04133984009675045,0.06242937673731136,-0.03188307673487255,0.04341626107540078,0.0024546113520737167,0.07957024154355387,-0.0990506753360036,0.04262052275341228,-0.03589260815901678,0.050016208872094334,-0.005804461672427576,-0.040670136639256164,-0.039251262853755714,-0.1319029962361952,0.0003411550040985471,0.032020007131063344,0.04613360186749889,0.11231614056336141,0.004757932338382979,0.05628750752843954,-0.010408340629013142,-0.0033940141520250964,-0.07330524187720662,0.017636970740443333,0.004486744223869472,-0.03127345766320247,0.0571406659185281,-0.007142067987506635,-0.04250807650947651,0.02758261218412605,-0.008669177220892693,0.003820557731071672,0.07903060195542123,-0.02173051758793861,-0.011851510266772097,0.1695761457253976,-0.0045728338976310096,0.023822021528456458,-0.038136089589109134,0.0317977060711639,0.03844340097066855
