start,duration,0,1,2,3,4,5,6,7,8,9,10,11,12,13,14,15,16,17,18,19,20,21,22,23,24,25,26,27,28,29,30,31,32,33,34,35,36,37,38,39,40,41,42,43,44,45,46,47,48,49,50,51,52,53,54,55,56,57,58,59,60,61,62,63,64,65,66,67,68,69,70,71,72,73,74,75,76,77,78,79,80,81,82,83,84,85,86,87,88,89,90,91,92,93,94,95,96,97,98,99
114.5396499633789,1.2584991455078125,0.12228069801736981,0.13678870614780353,-0.16650274372189933,0.11790220927233325,0.20840881319581528,0.03903689739635323,-0.08897909632253145,0.022495125160904066,0.16786584612273353,-0.005330705940385138,0.06433313809754825,0.011235578795782667,0.03081784259803804,-0.010920803459953863,-0.030689143182410648,0.036456078752204336,0.19086308994382603,-0.1149007000602997,-0.10076650871465999,-0.1007849182093118,-0.07642607163947769,-0.06562784208923422,0.17268113267369775,-0.04886434455676428,0.06435354993678276,0.03857814416122596,-0.08411672404742422,-0.11349493256497908,-0.0031806124158711,-0.024883470499822372,-0.013552091094242252,0.015519509306209295,0.06710871541009898,-0.1601038509957658,-0.03310824203402808,0.07360718358831553,0.09683833984333517,0.053053316095396034,0.15497820916285127,0.11564897713998021,0.15030406163377366,-0.09084495638111476,0.0926429175421775,0.021439315533338166,-0.44900016424582956,0.14664322843925987,0.029605411302197238,-0.15337763993780484,0.5750923601541034,-0.18270935591967918,0.06860255003829965,-0.009470995361287822,0.3076709816169064,-0.18733859353800322,0.10470733130363494,0.1766089173447002,0.035552623333757395,0.00037957304739719383,0.06487730169699638,-0.005950061519923233,0.007893843803002284,0.07060621444844277,0.016774333981943952,-0.0740482948883455,-0.01325398378423852,0.09296532211894594,-0.057331600749020904,-0.07131551950403169,-0.05444319597337832,0.014365554579382135,-0.08889210286348627,0.11348335926533087,0.23836550661148098,0.1929713107536697,-0.10736598943778836,-0.09970047762096339,-0.12107304831182117,0.134415622347053,0.2899941848542637,0.05264852396641932,0.09016983545285102,0.04452267655605819,0.0812439619616774,0.16378772960585253,-0.02690233435713602,-0.049729327070293684,0.08819704644818512,-0.04257548046819182,-0.104195525304699,0.03371412412806704,0.11383124085941881,-0.04534981330012098,-0.09098361469605605,0.03619030644052562,0.034433564285391724,-0.10593306899233922,-0.30131001160958126,0.05388849385926636,0.07426376330666287,0.09080198184323293
115.79814910888672,1.2385025024414062,0.24534318097749813,0.12198947863106592,0.2926133557438065,0.0087909381473948,-0.14304758072799434,-0.07362241980028313,-0.08794539585104659,0.1372033263212299,-0.1446109437004331,-0.21867892966906638,-0.09080036149320504,-0.05874830840894196,0.009422658905571828,0.0856117423989396,0.012108711253599183,0.14023413441933738,-0.001038557628549798,0.04393875186551912,0.003318041089286194,0.038146396610002895,-0.14460821049993328,-0.037291918435902224,-0.07866656895618176,-0.03970293659254234,0.12613234638943194,-0.03226876955214846,-0.11043321323061552,-0.11752687549243306,-0.07517331283221684,-0.09967490510986486,0.06700900025263377,0.00460137802364745,-0.03875674693039032,-0.09612936520153328,0.02125346947233389,-0.10108767840769724,0.07022065846215637,-0.02814011718692046,0.17387749738380553,0.1305042915258561,0.15945170791147714,-0.010499743122732427,0.026374203550737343,0.2081969528038765,0.24104179033307832,-0.23362246236654152,0.1209931241055587,0.12317836924297297,-0.09843279405912862,-0.35901660339670644,-0.3501736597651328,0.12437248536226364,0.6353536948316102,0.1631822666549362,0.21903058849311058,0.22372488911035068,-0.00812361115637053,0.0444111939620578,-0.06540730145942938,-0.004627006024839042,0.0005272280197401822,0.10823686061036196,0.008282896683060594,0.09262236251953229,-0.07608764418275127,-0.005052919493600122,0.05555898366317064,0.019373220652843498,0.04697626055291409,0.06908009770030193,-0.00025678512621425675,0.028099407264719704,0.08637374713289009,0.05308352474237499,0.019336796175466426,0.12914123962149862,-0.011493229106418396,-0.2222329937656815,-0.1492097364219186,-0.15915196214849753,-0.03135667342740459,-0.023290298461322016,-0.03855482020934479,-0.2134223213539132,0.013112956005972167,-0.061598479092686675,0.10520214961378196,0.020364313222011973,0.11444643040180101,-0.05299469789571327,-0.014913306861266698,-0.03314195923377413,-0.07966118872949322,-0.025962331154076007,0.005185766375315284,0.1268102866163488,0.030478110707419348,-0.003003894364588606,0.008982209368641027,-0.010723371373369407
117.03665161132812,1.2488021850585938,-0.016897047547876944,-0.18713421651501272,0.02585349950933455,-0.32171863244500587,-0.16764127121748665,0.11353968422197809,0.0630473968404337,-0.014671327491461175,-0.016527764581296164,-0.01544575907295738,-0.02095666285756635,-0.00873257770062464,0.06427997399539402,-0.032523275941183816,-0.10709356725258047,0.04520239953221035,-0.013819700471857507,0.05156321221865179,-0.1978672147496241,-0.11323185187326579,-0.18195988657646556,-0.06790742616086733,0.0220556862841171,0.005271683099338323,-0.10974689295204883,-0.08182273238732836,-0.09128314201289091,-0.10647173424241221,-0.02633670932259494,-0.05711178086448784,0.11783884130506968,0.0414548528883147,-0.08318746625156745,-0.007281592182558235,-0.029970629068254515,0.2469893892725092,-0.14396136094149814,-0.017944114731812198,-0.008081157075491263,0.1015754120166384,0.22592095279145608,-0.06033160281107386,0.059712816135857785,0.06598648647956559,-0.05442529220525924,0.04818079127257456,0.5614655951085304,0.44488331794227304,0.1547680380452457,0.08604244371791893,0.5808279259539104,0.518139426317935,0.3373743330719671,-0.12939641076893338,0.0475239036491646,0.09118558404193422,0.38764500354685816,-0.16098571284664398,-0.000973128806785073,0.006883301220116342,0.0035445825703021494,0.09997828031952549,-0.03290231044353541,0.02945477045612709,-0.04098744848470664,-0.031365540565713466,0.09347115589734832,-0.1537167905004167,0.01770400301159199,-0.1311764183802332,-0.09632117568493304,0.07343487606420213,0.02468908482397024,0.14806878721497915,-0.08038780067700001,-0.15035149558015215,-0.03374217447996307,-0.100276415166073,0.006422574824762311,0.22602047667718633,0.08996373075829123,0.03810604566882198,-0.05715570977726208,0.058957962211631576,0.08938876408238934,-0.0501729044452766,-0.0766373576429111,-0.03350695300229009,0.03532336118725893,-0.033517326313654554,-0.20504331050879554,-0.11465597018468947,0.09585688238402384,-0.0007038874685682817,-0.09388101287568124,0.10503649116445629,-0.02078930476969137,0.03879657513526178,-0.06191749359128276,-0.16758231041410607
118.28545379638672,1.288299560546875,-0.1500087445145606,-0.12021168352196077,-0.0732877841609853,-0.11522062911984067,-0.1280941764109239,0.17859791353656898,0.10780201527837616,-0.02292431975819279,0.035155903618127676,0.08991470608697301,0.07618678772344276,-0.06917644591770875,0.02871751832133032,0.05729992005886879,-0.07035744478281414,-0.10714253153264666,0.07968233931326271,0.004928456676758444,0.1000298226827162,0.02395374901623688,0.07328862457916878,-0.053010913168716846,-0.11998144309610255,0.16991983528777313,0.1262945895695009,0.13896140580290273,0.13946206752241896,0.08631783077386583,0.1396511036728858,0.003841737890044314,0.33153981155091766,0.02786954579002035,-0.0786504637429272,0.02107463434510571,-0.0258709644768203,0.10487932399035958,-0.07157110978575974,-0.13113661590818,-0.31185069871674825,0.3736436658264244,0.16099613832798107,0.06986531759711839,0.5169086357528551,0.16389622961229536,0.25215436222378734,0.07642427622847854,0.17365491123422366,-0.21843853161688792,0.03944191344127631,0.09094864594616305,0.16393281646392488,0.049863097974264414,0.2833961333836494,-0.3411697334091972,-0.0022934326451826137,0.14661348173306182,-0.04453767026026615,-0.054128695900124424,0.041409911739230976,0.027537708010820238,-0.0671192049987877,0.007901911113061348,0.09304176688013555,-0.05651814246541302,-0.05585981517194474,-0.049011134022938385,0.0025191523026796047,-0.048206047223334096,0.028219752474649612,-0.025880528873846183,0.03417897480395635,0.15302140269730122,0.09027054725586593,0.04743972115651235,-0.10582253588369471,-0.03819584148008555,0.015302449433729852,-0.05576699031983957,-0.01268705332182312,0.18707082030783515,-0.023990536868142915,0.11855930187757141,-0.028882444882898452,-0.07745023354137774,-0.036320171415644725,0.09568102983211957,0.0784749079256708,0.12434415729080611,0.08577189212103725,0.049664580638768836,-0.12648477322747145,-0.05750821953787421,-0.0602253267316818,-0.16645171423225275,-0.01010144687136508,-0.0744291365682744,-0.0057022877762244835,-0.025850206738204918,-0.0648857860563763,0.26332596324874036
119.5737533569336,2.7071990966796875,0.11899909174336706,0.4028676173867437,-0.26282194668590764,0.018804578725544724,0.009121665398386242,0.004118210536715059,-0.02931487624279358,-0.04774690054249875,-0.020038564009953724,0.023467927880909997,0.1313371833571763,0.08072659287151895,-0.19778227939947474,-0.00740012014364783,0.06442610977166126,-0.037339524858143944,-0.15213591791739187,-0.12319674673014884,0.08693075004079036,0.017726570919221855,-0.08271622181841161,0.07269798705822449,0.001008437475961757,-0.05069889248856347,-0.1282866310033408,-0.012105059899344656,0.2737747740312818,-0.033841746468395405,0.06147522838914478,0.155572777530555,0.048653624890432186,-0.0313083287345793,-0.07484093368650813,0.008433849310155837,-0.11172726453292624,0.0972969648670007,0.012766986674732778,-0.2314486444238426,-0.19885113032074941,-0.044901042714150644,0.024978117952259,-0.02059600518014927,-0.28041207736480156,-0.07335143396210876,-0.005842081477046325,0.3975704901997722,0.059960449860646345,-0.14171065988935252,0.15272824598118906,-0.12973322879000715,-0.34253848527664177,-0.0808643678519033,0.08243477797719058,0.26950801432095156,-0.05273707444341506,-0.030976593753227893,-0.11063040165234067,-0.040283488473323574,0.0861334393356886,0.0690204319793344,-0.06957982887186291,-0.0004499430684658933,0.01987499249831217,-0.019538613680516084,-0.0060938173748432516,-0.10160232464708974,0.00225247923677298,-0.052540812615089236,-0.027964704099854465,-0.043625990140856136,-0.03090269583465519,-0.07974605419923386,0.1012094141189799,-0.034455058544337086,-0.09695957103710398,-0.13089791669946854,-0.2062765191896492,0.036222505240950637,0.052103684866986306,-0.09221897993301754,-0.09682644598770092,-0.2921271282637626,-0.007523381153622721,-0.059446193110754664,0.20095016084306508,0.06817141568748171,-0.06259845094928305,0.012831358836669571,0.10795884905054408,-0.10982362854496155,-0.05809525441610618,0.03831246412143281,0.012422481936765314,0.03609142220009903,0.04415245592136159,0.16199304448151766,-0.14596225862931506,-0.25486534469327127,-0.04751912307787466,0.11655698213847578
124.83775329589844,1.2686004638671875,-0.2639706069130424,-0.16234570511040994,-0.3199311840312277,0.04969557269010606,-0.051321153406716516,-0.01562718427420181,-0.0974328159903636,0.061710368391591025,-0.0806775861580677,0.026048553745459845,0.00471858774084484,-0.09492050570469346,-0.07652389072099836,-0.038362322796326384,-0.07630699014927493,0.06851473732041721,0.20202838678107762,-0.001880581326623161,-0.012088502352427507,0.05549811204439894,0.17102425325520518,0.047301682891508184,-0.014584385190036825,0.16450204444856006,-0.007991358807608442,0.036098365498552464,0.13422026196649753,-0.06724454026139537,0.07909840577082218,-0.06010691186335114,0.1784888914689179,-0.22881700200612193,-0.08409512713832731,0.073204206717778,0.08758314114410429,0.23625683889801435,-0.02053312218897937,0.14836353882526157,-0.003524446430287001,0.14828939835939273,0.165094541669567,0.004375199704165578,-0.16495497274972654,-0.18851562597735863,-0.3093855090788487,-0.01847202335422789,-0.06877169909220815,0.2584057751537344,0.03320378318646146,-0.3917779222263462,0.1299079329770661,0.7391460956054502,0.048748785631450395,-0.09598960634567691,-0.0052135768180730235,0.017853544308955305,0.06962745161401014,-0.1374515895029829,0.0012582345008563109,0.021732930169653362,-0.005772314885479736,0.003603497864431774,-0.013905356114367766,0.006073568968072984,0.10841892083139532,-0.0576617448019066,-0.029712742683601336,-0.0032471246071086456,-0.04989386498859215,-0.006940916643753687,-0.0842408554504112,-0.06362290422003196,0.04009684837636458,0.008448561515030456,0.08289926254512801,0.039204713310701675,0.043158001176323464,0.09098839481852383,-0.07259816041374213,-0.22576247557468254,-0.2685599390938848,-0.08249091333536972,0.05958262932873829,-0.11127254976112744,0.021251342011751405,-0.037727514377056126,0.05873462496028373,-0.07571526243519326,0.03983229372892236,0.0924591530897388,0.03350770963110093,0.13270924388987942,-0.03778064153344315,-0.053600556794704365,0.04987352075014081,-0.0009157012949858531,0.058005396189625164,0.007865759670953643,-0.12493486073576858,-0.09701371550033173
126.10635375976562,1.248199462890625,-0.10611257918340335,0.002877257572093901,0.2943644147757149,0.19200074737988415,0.19353025104000396,-0.0315469891670465,0.1704221064870551,-0.0011457123601748193,-0.07489366681567908,-0.08479196363151595,-0.06648104553730524,-0.1155982473549438,0.1051554756333356,0.20417493388954477,0.08028081827058442,-0.17384014919892177,-0.09383316598960639,0.14244349771067333,0.024867700248244876,-0.07739482675189349,0.17663671702166414,0.09449655178336935,0.10339755103864427,0.06638952905960102,0.04561778605047461,0.10108764975930244,0.12777805536441955,-0.030750909220523922,0.04807263234216786,-0.1389140424281592,-0.10893394104001279,0.0622432791461168,0.019212161954592882,0.11077063614078789,0.0035346292925740493,-0.0572453642560595,-0.02346447145224099,0.11412367134130046,-0.07527431444152977,-0.04812397337592628,-0.10587163938077117,0.1597257527924421,-0.14958869188317467,-0.1520748596712393,-0.17836419731048986,-0.3227528632995713,-0.3597081138537627,0.06590721563947609,0.08769653993832939,-0.3936451738637973,0.17000860596138095,-0.06103234845036933,0.05053502407929314,0.4164689377385907,-0.14546808936160935,0.364208260881961,-0.2914932392341768,0.056572968348858256,-0.017537732538130364,-0.0026957920194082344,0.0007048346850045994,-0.0001134535901572936,-0.01613878774909813,0.07043877100221718,0.0012771888922844612,0.06127165774424384,0.04375998767203673,0.10193496586991566,0.16214335482453263,-0.11401888369939116,-0.05521841684800551,-0.010425612485954312,0.03289556766488219,-0.01485481174542911,-0.04143791986940306,0.18028448295121166,-0.09042633757918715,0.02879967786526026,0.14272649521999664,-0.022394675913753874,-0.19263650660932252,0.05756115141767086,0.0087678326758939,-0.0170868806650007,-0.1433384656645675,-0.13548799995265337,0.0666229609544864,0.059319732802055054,-0.1359534825803947,-0.07150368052882723,-0.08995468905017989,0.02862146776631026,-0.0026651614298182314,-0.02694911019520476,0.09425787495927782,0.0795108254196207,-0.1279369812851253,-0.01914644604461537,-0.12786305232095938,-0.2169543215581691
127.35455322265625,1.2390899658203125,-0.07439762465316135,-0.027165553799568067,0.1337090166408914,0.03854328890130493,-0.14534001053989,-0.13135729869912038,0.033507537651632786,0.1639191148468208,0.1274006009746831,0.07626935838329287,0.1794745527621851,-0.09710591633776743,0.016073376107860714,0.11326453734829017,0.02785955669878631,0.0006825828397172586,0.0296291216674809,0.047507550962290514,-0.19276502093872516,-0.11958371755061081,-0.010328708321205679,-0.3797214505932442,0.056410811827107075,0.08476718572332437,0.16865433653535866,0.09681798878193203,-0.017622349018975192,-0.061785149522558605,0.0051486236587414925,0.03867550979209116,-0.17866061681855558,-0.03566645992824151,0.01924275021527545,-0.026345108080785523,-0.08214497591069193,-0.11743097218276001,-0.06449476438152359,-0.0787591827064121,0.003974408183788506,0.12901175593346642,-0.014698469134905634,-0.10787756716918094,-0.08618722922123487,-0.177630014337581,-0.29507038534754687,-0.07551290069934041,-0.18988395962794619,0.11365490664050155,-0.5506487529656541,-0.26414651968902836,0.2790171049059743,0.03470295588035735,0.3440298299190458,0.1241043364720016,0.22498147137460628,-0.3131149736799512,0.07735896973982864,0.04944273590881485,-0.03266732728425269,-0.009041958536670064,0.01161362490426537,0.0004848423966447828,0.0009656904559325479,-0.0015053686986430464,-0.10224280749498474,-0.05700022865130542,-0.110842959536304,-0.021938948159973874,-0.03448271761407949,-0.032512291814099516,-0.03978997772355102,0.053136376727473705,-0.11355334921330047,-0.14492184991937493,-0.03488451421935915,-0.13438349162761623,-0.06856205763098376,-0.17135505364352427,0.005943635561099539,-0.0676318477974225,0.03840432834821328,0.05802824952681935,-0.07090943921514224,0.03684437855305232,-0.00691284237198153,0.10154159343082894,0.013754493839054699,-0.0502541464848377,0.08712813748974588,-0.017046935133557463,0.16459843495851456,-0.009972666832719811,0.1863752506922366,-0.020570570911916455,0.03473597629897252,-0.1388534403016847,0.03801845351302798,0.012108748314857943,-0.029178756142287328,-0.026868318883009168
128.59364318847656,1.2981109619140625,-0.02302277099564279,-0.06070674259558255,0.02615478908657072,0.08786058086858266,-0.000881379013896455,-0.018355236999254815,0.048855085800421715,0.08800639859698281,-0.010349494569195563,0.0010318917375974393,0.008729005576960769,0.01788598991164561,-0.17554242855120267,-0.005333334625323215,0.10253397770182701,0.07620479476505528,-0.049362274454174265,0.0035813969396654016,-0.04697098962404441,-0.37501572705835184,-0.10385386634914759,-0.02330536803156613,-0.03907239592589017,0.01797062924870731,0.07853626991352855,0.06603952604321868,-0.0026319383444376038,0.0159536972611123,0.03397727441519969,0.04006184416500248,0.013467176456371126,-0.12006148469909744,-0.007082277462219788,-0.07689521228699094,0.05570474638131216,0.19782154717051745,-0.20393928515057577,-0.08904927822067801,-0.07385902463915603,-0.06864900014652281,-0.12003411056138136,0.15971367180490306,0.14769113892224667,-0.032562417707628466,-0.30707942881244704,0.5277510013599312,0.393192017641463,0.23543713983075487,0.0554708771818811,-0.17138841475758756,-0.31022647121171915,0.11201863483570829,0.07474035730237766,-0.13556376650331087,-0.14996555481528356,-0.05858575695550009,0.057672402100584344,0.016307759751942884,-0.10620358802139178,0.04473802377822805,-0.0014711484268209096,-0.003679115851558509,-0.018534461133235255,0.007359494319234462,-0.13423446427092775,-0.05344589980344593,-0.02067606707989518,-0.07706700750519098,0.0028109613709050973,-0.012199036427183741,-0.033174903806382834,0.030889719709079683,-0.10679567796557418,-0.11058174848980681,0.02573236064388284,-0.05368627716618157,0.01501819784140038,0.15856652170691887,0.07193642672643587,0.05800124421632374,-0.10317658587038551,-0.009971445221930038,0.12769233258105067,-0.061661049596302565,0.006995315717649382,0.10674872153776642,0.05949330131256862,0.016783858824569932,-0.04412861253292401,0.03270988941462894,0.08923779248429856,-0.1432340487113182,0.04639409740117489,-0.010807326197337047,-0.09755539158558225,-0.0671873183069746,-0.37923473807873676,-0.12565631013625414,0.056897489975400874,-0.014716171759456225
129.89175415039062,1.5186004638671875,-0.01631532319875273,-0.15245937132018558,0.028471459990299278,0.11113421222726481,-0.017911112212905353,0.0001426176477528629,0.039149054974808174,-0.0047438444246938015,0.01362124606007269,-0.03133088986659058,0.010098714127761227,0.01939923046459781,-0.11285646052211863,0.11402613654351568,-0.031975203490694944,-0.10779178218600852,0.030383856557934904,-0.009210950928111118,0.018767203867949847,0.08353045190907889,-0.05336432337122568,-0.19643428452924447,0.055768324168463425,0.050634425417369754,0.07767196435896136,-0.016848338056421913,-0.11717727978122545,-0.05275726668091832,0.009675570697515096,-0.17543790573802318,0.20974342967625226,0.1005679349704046,0.05197819826863137,-0.19566584191690986,-0.1567994602477567,0.026168088958649322,-0.03133920742142239,0.0722023881962729,-0.09963393904277094,-0.09556396973500432,-0.1200421654699865,-0.1418110200192424,-0.03793154776833435,-0.04194702058435486,-0.08927427822438265,-0.00965156439737605,0.2107407568068528,-0.6102101424646966,-0.5461996366251705,0.5330301052159557,0.27652370448926006,-0.12147230725483006,0.0883285556429732,-0.10832110257430512,-0.11746038552453913,0.10913984885422602,-0.05286346448719437,-0.06611764292248208,0.018681258084426285,-0.012147875249818373,-0.011124274908367466,6.557722016539534e-05,-0.01467621197155225,0.006949852398773475,0.02577786393992957,-0.0926277924302614,-0.06147341387303653,-0.04658254427105144,-0.1555731581099083,0.014907310272240624,0.07174295446654991,0.0354104826072484,0.048382110158478604,0.08644159426010106,0.2525207104046183,-0.11634996754766769,0.055953849266354064,-0.018326500998350433,-0.16297662755204523,-0.025183420201725534,0.039332803478502425,0.1664089159288836,-0.1704310666189404,-0.05358686811658643,0.056551446248039976,-0.1801648279060996,-0.1435950372767529,-0.004715169767404359,0.05157715417834071,-0.009349568816649138,-0.1258139021232464,0.08981932768224173,0.03664603101567708,0.04924075013845009,0.03725243302122936,0.04407096216315533,-0.0031056641010755413,0.06568821471002655,0.0457408611263386,0.06380526469854327
135.41595458984375,1.2285003662109375,-0.017758669923710932,-0.0902619964666471,-0.21648671029949407,-0.005761686788677802,0.19177872091234038,0.041822832652056524,0.07983912828562784,0.017737997961846677,-0.02526081652069432,0.11806822821924229,0.13718094805117106,-0.02348998875779781,0.08697031521472429,0.0803331345394541,0.1117911627174163,-0.1271736036108898,-0.13900393728653823,-0.11561679230825023,-0.10369975033025082,-0.14306575800285143,0.09357383370746837,0.13405602940689776,0.03348434867413416,-0.0582533365516574,0.02966470073140403,-0.07928646128825438,0.28077195341767763,0.10501441200634513,-0.16663424847044633,0.061570022339421576,-0.039691514652668375,-0.07416328508523619,-0.08819814441853534,0.12913329092301146,0.05413051235275362,-0.21249959711153454,-0.0770308217377204,-0.1949043870462828,-0.11458870474920932,-0.21758253039702813,0.22659099335749122,-0.1964932654310518,0.11321658515577845,0.1408438058147113,-0.18231621739214404,-0.36377053331001113,-0.40340019326497306,0.6184404175607818,0.1603478746095789,0.34888819783476405,0.2837946062075474,-0.6007713756238812,0.05791921020661146,0.15918361745102796,0.028771893922765898,-0.04859894139252557,0.08208900304897737,0.1722073849540746,0.027158901681200383,-0.001462254094331445,0.004268072704129575,0.004465736186956899,-0.00807309330410852,0.009115592345927289,0.11202086310751727,0.08451113196333701,-0.0334406227094991,-0.008333428908595425,-0.0685689096637685,-0.1458092331294451,-0.12010713813149765,-0.1272109406460566,-0.05343759669725265,-0.12798353691802364,-0.07221530405763388,0.07067905749800307,0.0008157330424376605,0.015366916223249448,0.09517167147919219,-0.08487625377581542,-0.07823298706609144,0.05582761169373776,0.01936501189605594,-0.22644880765498607,-0.14061108176002582,0.005736023206141857,0.06293052503570973,-0.07906836818084018,0.03293569172880468,-0.023088990967284728,0.020133597257587878,-0.01876738753293041,0.010627959536267814,-0.07938182073405832,0.013158179438815854,-0.06712203492308212,-0.3938141386693496,0.14572896565232185,-0.0033045475597777442,-0.14639265259660422
136.6444549560547,1.2086944580078125,-0.012453404010203534,0.06370497030457836,0.27133531177906145,0.03727749294518108,0.2711803954955123,-0.0014195125870018338,0.010545683053709223,-0.06092252680818175,0.13142697054410726,-0.027749264835046278,0.029656490550679267,-0.034135361153790775,0.05178209109939845,-0.0017202862455712956,0.007378114313470421,-0.09919870352698962,0.23185487015848982,0.05315393260997313,-0.15948622607781057,0.045926319692397556,-0.020223255048125492,0.08975459278250089,-0.07068959220549567,-0.16531382411037632,-0.16232858585598345,-0.06212341339247252,0.008970018986038103,0.10619523635111806,0.023709573867396312,0.05166140524917442,0.04708626561304933,0.10502248909550622,0.04032486203613664,0.09904936937723255,0.46812197217292983,0.1516379859614061,-0.17836253628665025,0.05648588193895479,0.20484068554595736,0.25003676110600453,-0.03657931399150735,-0.10788534880217118,-0.018471302823241456,-0.14038962249140718,-0.2618363838241421,-0.2986123604000762,-0.02846574834467805,-0.17960771415951118,0.3306591667071673,-0.05340520368993338,0.3194234982637468,-0.0024853230359119793,0.06491460174810423,-0.5546171107541531,-0.2888554201525202,-0.01168979286257912,0.1524631562572612,-0.05519045897141937,-0.0744506365241243,0.030494819865704882,-0.013496498995278189,0.11667546736151697,0.054195667576667356,-0.027054204876504732,-0.0656061735121648,-0.05150708167002927,0.08780018825766098,-0.05940454362639206,-0.009428843684593458,-0.07272979204523428,0.029322660403091942,0.0543414616019654,0.09033625007663386,0.17790750828475932,-0.0278883020567387,-0.2332362294738769,-0.14807040981885794,0.10010037483108206,0.1235413237556774,-0.026485897632591297,0.2089944768114261,0.02797734088515469,0.01983338468910203,0.031824647240520386,-0.06946158641573767,-0.05532006644247858,0.06773415668534002,0.02779467581917243,-0.01342366275393659,0.057684320431063814,-0.05087061586570683,-0.02515911977677555,0.16105954166248146,0.02274804126031112,0.028175194640563055,0.3116362168753827,0.20614912603631808,0.0038479806160403975,0.017126281336626692,-0.03807162983990578
137.8531494140625,1.248504638671875,0.12168874841722482,0.22248523840958478,-0.2168159779953468,0.12702738957322177,0.2950657203161291,0.047670683981894196,-0.09194285200367217,-0.09943495473716753,-0.08465562631722942,0.06260100374997203,0.0946260943767338,-0.058178570349730244,-0.018489923908758837,-0.10085242488625494,0.129130359371781,0.02548657821664842,-0.05927593599555855,-0.09891737048420515,0.12906738758117617,0.030501495199988165,-0.055274237085438674,-0.09251587062108606,-0.013281876027536423,-0.10885671138868082,-0.15601874376299593,-0.07329810236908903,-0.009825117470873113,-0.054746448253184636,-0.0033586567428355307,-0.02810281879234997,0.0380671982370034,-0.03158550415471551,0.08066780461734356,-0.20359361605029055,0.023593438576986786,-0.10426555143562498,-0.14116934785236154,0.01582303594772852,-0.09971596611816023,-0.017276705315542283,0.16392471325827432,0.23332917240468617,-0.24286739546795033,-0.34786224732470694,0.3453440798277467,0.28758239690773557,0.21509579374217097,-0.1857970953988412,0.4448320260299951,-0.032691537173103954,-0.28606351571599237,0.5271098201880897,-0.12726720319178347,0.018473280665641384,-0.09784491742538792,-0.5692559827711805,-0.5679200471073347,0.0011612392175073495,-0.024655672376171237,-0.0008299243467906928,-0.05975258183626782,-0.0031297388476083468,-0.0035546082196903197,0.03444527591613546,-0.015935683179747976,0.14102062390633477,0.10727991008942876,0.12894570749271733,0.06215382319047427,0.046534687401106466,0.04001669259468849,-0.08972698428063677,0.0335162729707847,-0.18006780044424953,-0.026672644522019742,0.16595677592821712,-0.04920798111038821,-0.05128171009553221,0.07659915990338141,-0.09008009694952718,0.020360553893138348,0.009484738224444138,-0.0861231866634807,0.3424203590437842,0.07985766845972711,0.04288735139895919,-0.2209584646093854,0.048440953550919784,0.09317049242092083,-0.13193791259286147,-0.00931298161937922,0.09234699606021408,-0.06404718421394899,0.013151084238853843,-0.14884020516795726,-0.180452477524858,0.027714842703624683,0.06398914215646238,0.07629803553673668,0.018116447301857456
139.10165405273438,1.2584991455078125,0.015248211829029707,0.2146469186963389,-0.003791735485275122,-0.20875414350104823,-0.1777874631815987,0.07571979066548064,0.032474070485174165,-0.0028648094411669097,-0.04891907387155866,-0.018715187172778196,-0.02358372072529107,-0.0845497734423239,0.06189295312767569,0.08885666785490924,0.007444425738646238,0.09573701359609577,-0.004563413988563818,0.05663887154449977,0.0626911593151691,-0.1194913739220488,-0.0894154481169326,0.03959947154249591,0.17936150477801466,0.1297348021670245,0.02703867998783258,0.2888801583933953,0.19940953626869407,-0.2029787335346782,0.03687412260352062,-0.010764522083403918,-0.05783016743120943,0.04632064117990664,-0.07366611528133914,0.12137450936072225,-0.08666112109185595,-0.0026062057655860237,-0.13375616465187318,0.08687315831377376,-0.1477720636622527,0.1643841402476873,-0.14551154042693587,0.035394145198578766,-0.2989533866199739,0.09200849302974043,0.13563655498660893,-0.1003460688774065,0.24060964214677152,-0.08231758563950478,-0.27830119902207684,-0.17266184956795733,-0.251155691157416,0.39606201559254933,-0.11499384191296667,-0.16395237816229805,-0.07786550368420335,-0.29414043962606307,-0.019708078821610034,0.04900649025540882,0.057353967859124895,-0.011434762869874958,0.007282998056348404,-0.002967744661455288,0.009768607997068421,-0.07199243922160097,-0.1306444259129958,-0.006649492474321523,0.07836659907002833,0.016672038085963344,0.015438123101564989,0.017691712186542374,-0.0677523285045579,-0.18370274094253128,-0.15024395264131507,-0.003625887342720291,0.17350049256000338,0.05295242713640699,-0.12247462758982647,-0.09261237791417187,-0.00781426995010076,-0.008538186610334796,0.17362446314115068,0.03143546572244274,0.15138608085613098,-0.11661004621919525,-0.08461204333562738,-0.08663279924328662,-0.16102677950639538,0.17000923805301438,0.057999621903113995,0.08894520960321521,0.036330891849007785,-0.03214194161199128,0.008863456628377259,0.16694914137123626,0.07314094567579249,0.03860951285561963,0.06540876616464963,0.03258632304451001,0.13561437396141648,0.1510275056837806
140.3601531982422,2.58709716796875,0.14867060344778427,0.23028338507773446,0.23204790132982975,0.3806324365138192,0.30509253930258134,0.007501175572788454,-0.1172294038673147,-0.06090557813663006,-0.01457137677800253,0.15590133898958214,0.06063270071149042,-0.10121610276287708,-0.03128692099302245,-0.1712721689718104,-0.1397740467473809,-0.07182563181843832,-0.00859803452576835,0.15343306495598122,0.037941206233361384,-0.0820603763310813,-0.19123536196299704,0.07967670204262084,0.19640517083395959,-0.02181750394786891,-0.032449549089656714,-0.18899337531845628,-0.06177344655290881,-0.1988223176369766,-0.014175881124777232,-0.0008169610361860652,0.09536587392226478,-0.18460359601389476,0.04634270406878069,0.06069717402395057,0.11067756486122447,0.11031365925956654,-0.008811326966606595,-0.032372776578373993,0.5909517220108602,-0.08071149063596136,0.08934896434179641,0.0697723960172866,-0.026834603603450566,0.06609790174675069,-0.7060244785968952,0.21950069875303044,0.5546781299057233,0.20846531577652183,0.011074757284968536,-0.14140715942879992,0.29774377311505706,0.07412677343989194,-0.08516546630598029,0.006937904596051806,0.06369320946142888,0.011097770415979216,-0.007945229196503964,-0.005611672568325269,0.009763022815263938,-0.01502321796158257,-0.06986759574858292,-0.06820016123108079,-0.03995591266564271,0.011981825522472525,-0.029186319155154072,-0.08241747218587177,-0.020483144216575707,0.08090357908807067,-0.007128702871081361,0.04974988064926785,-0.043339060521756706,-0.04226180123069746,-0.04253040230499479,0.054968334701066865,-0.02995299999991474,-0.10599376142081926,0.023081527249154025,0.081133684746852,-0.24448574786787441,-0.08152743720039389,0.18372887566677923,0.002380650666430237,-0.06635733680399197,-0.02622722496791278,0.016132231077694216,0.04040390016847374,0.14395041996087868,0.01092026606759348,-0.09350906672222846,0.01311962611399628,-0.021251423879626908,0.08497103736469647,-0.057085397237001886,-0.03570609829833116,0.12967887057375124,-0.03149217121549384,0.020984413345173675,-0.06424260594822523,0.002479825622397313,-0.0071805907367876315
145.4043426513672,1.2483062744140625,0.01148493152663428,-0.07513656007463111,-0.12564323511173947,-0.08969243864810356,0.19228262766036341,-0.02028398561152908,0.06052376497570971,0.009746021639521332,-0.05511954210115587,0.04466004312424743,0.09753737128686056,-0.03171016660329691,-0.005608565522710834,0.04034640044210356,-0.04081065011913995,-0.22909899077298307,-0.2691964722739791,-0.024296294637873958,0.1403249169532941,0.027356793113372777,-0.0554420481068445,0.11254191801826433,-0.06077196570472102,0.17135128325407822,-0.04720152782697662,0.05002951272766177,-0.11616561916226859,0.09847895211287988,0.11866724298157645,0.04322301805855878,-0.050619251862872,-0.16754192551437996,0.09560034272783387,-0.1120010120806406,0.0167831654313814,-0.1761032748376,-0.0411617877802611,0.07656990608697094,0.024172203485043266,0.2084170972989864,0.10485066424586731,-0.3541763408135901,-0.06638241851682591,0.10587917338859337,-0.4614694525647054,0.07258351281844055,0.03196245359672034,-0.43136652451728397,0.24915172290741866,0.7790419117779068,-0.036982925891265575,-0.16250043837765435,0.05893124505204316,0.2253331644455092,-0.10393459518259518,-0.3648411529812366,-0.048025675517515076,0.06268672924778199,0.0327241000842933,-0.14615859999948727,0.05015037520006672,0.03571264597162552,-0.03675850487336711,0.12137175950429296,-0.021232584004605405,0.062211152498217626,-0.01303165708889594,0.032936500190311316,0.013410626308229916,-0.06329278843338226,-0.0208456172953336,0.04498536572437358,0.02053422050673874,-0.16930840536299335,-0.19825329374019338,0.08961501090740788,0.1568500830689849,0.12598282900725966,0.03941699661799071,-0.1720944315431596,0.09688963012027475,0.05915062054497312,-0.05569254168855803,-0.06297481831791937,0.05005259698612163,0.05604842804121323,0.06575578078391098,-0.030841150552356554,0.10754062996160162,0.0030749659536898916,-0.013434890582476924,-0.003056775037455893,-0.17113001200152292,0.009355264763870677,4.009846588004214e-05,-0.09582900790547084,0.01037610865177839,0.08774780603160148,-0.0402539384487712,0.01240568802298854
146.65264892578125,1.2389068603515625,0.014163335873615235,0.27594506697114746,0.28116125089875244,-0.050692864060001806,-0.02832937972720191,0.10135531077509403,0.013522776200002268,-0.2666300963036173,-0.006915821602685819,-0.012218187331731129,0.04645557204460782,0.017112487892511914,-0.04374907408461155,0.012380760506500799,0.0076199710577947895,0.10649564058934188,0.045059625858285754,0.16390966333625445,0.07042266331445583,0.07875194569139651,-0.09391784692914043,-0.06627523934431082,0.15917569951656507,0.015680465351389904,-0.11074533643220481,-0.03799748330417263,-0.2772769968301195,-0.06900972644861852,0.06323505957955139,-0.05101262226368847,-0.09656438796243744,-0.3294755583327268,-0.05327572282087303,0.06826515624022082,0.14469303634263175,0.08533804461728361,-0.03930709703197689,-0.14175787708130128,0.24492538925333027,-0.2079538116398177,-0.126774051098906,-0.11512149741529003,-0.11301119055426888,0.3966255702768292,0.43354876576830226,0.10021762316881314,0.3932051400098508,0.1487066078215079,-0.0008545056876843107,-0.6292645083044426,-0.21699260713430935,0.25496608501803353,0.14610241748439115,0.09723218554483275,-0.2269452892621553,0.14206698859415176,0.1737934616575447,0.2600880352121241,0.0020546346705879797,-0.0010688083825897785,-0.012834515122608532,-0.0124996668380495,0.006105927294791095,0.0735623983834937,-0.03777090864741255,0.023751179381916544,0.10960674700178916,0.04382813091526679,-0.12702236490343033,-0.09040193549681327,-0.15572392607581512,0.07104861859198065,0.03217685780949266,0.03950180132585116,-0.031679784178641965,0.15943673247376844,-0.05630946794349852,-0.03322649446662473,0.0575158878167915,0.02297530839021021,0.0200991626211592,0.08642239544128631,0.0028768055686420792,0.028962147038730974,0.10572218593439126,-0.11023962154819021,-0.018955033983549655,-0.028531998899399016,-0.027171490450828555,-0.0024967444696014,0.004062835848924424,-0.02036019924939951,-0.004212964874110875,0.047711566535846385,-0.18882718313168498,0.04760788132204573,-0.16699074839347047,0.16999172908648746,-0.06260119631800862,-0.1532122870194538
147.8915557861328,1.2584991455078125,-0.15666313815140087,-0.5338912581082222,-0.1580894694228807,-0.19769210472964138,-0.02087186978495974,0.2204796404116392,0.00817450354448686,0.026020379257647365,-0.04215619788766646,-0.12116739392873067,-0.10796936281202957,0.05353202296910018,-0.14257957285934741,-0.03704002561519635,0.057879722947158194,0.11865886787427012,-0.021772718756934754,0.05076691702639537,0.0459273871777788,0.08749268397040688,-0.13333164951151227,-0.07038111615836481,0.08536417049386402,0.1594967243504515,0.1265495566818936,0.046127829642143334,0.017901128168006302,0.09657641264643486,-0.08606882443465388,-0.2624486041379159,-0.1570118236461846,-0.11001170024998723,-0.034768832315622764,0.12515798555076546,-0.18421415823854076,0.058755535138569764,-0.05337362828815272,-0.1475784830156035,-0.10696179090807167,0.11384813572711115,-0.04250372411865022,-0.16739436569402988,-0.32992180181044084,-0.6511411297223417,-0.26709713371633387,-0.3176279116956345,-0.059428202998756126,0.25040395226834133,0.23321327839325062,-0.4171567120745948,-0.2697902687866267,0.28122946676913385,0.034458655622282126,-0.05353031239832571,0.1272872518990202,-0.47082166015764515,-0.6171352472818192,-0.08664477400936238,0.0004162231924891986,-0.015234780577187537,-0.02277380315214034,-0.0037167343264933035,-0.0034124655387772424,0.06052643493411511,-0.023199941294921558,0.01844953699314482,0.014831209944645396,0.04147676540012542,-0.06436863079618708,-0.20990202525964435,0.0048582598609516765,-0.06474591309769309,-0.031062003256856586,0.02395889383015945,-0.007924824915873294,-0.06420924584275953,-0.0744288027898107,0.1143858807753397,0.1593111347430797,0.1787228934532231,-0.03656607375910095,0.17195927367359728,0.020768905880751615,-0.06908211746023638,0.07775236507047402,-0.0486940057854404,-0.11366605693522394,0.029216724912210584,-0.011867184742993267,0.0021900074935056833,-0.04879876018416005,-0.07022609645083934,0.09324560509684601,-0.0009865642772826227,-0.006556185018660198,-0.26943730158682655,0.2410782015366947,0.09457649188066401,0.10453014746506606,0.20730641489621615
149.15005493164062,1.268096923828125,0.05200504014742008,-0.11432518071610928,-0.050162041996645645,-0.42728814172282625,-0.1751893309245955,-0.031348044048289385,0.13934361795065234,0.06738382501093149,-0.012869905689508406,-0.19997399012254433,0.033304648251261205,-0.03667813947496075,0.043087274316931795,0.0478338389504894,-0.10232669240885403,0.003124742091328357,0.08586714989138822,-0.11490508046293793,-0.20759183700951606,-0.008341712431487439,0.046010785709956675,0.026710549706609167,0.11007310856216777,-0.04167154378851086,-0.07951240895541722,-0.07717460591987817,0.12421564655757307,0.04239397311805873,0.19838773043725255,0.16452747788252498,0.03153467421088302,0.04546718231245073,0.008396771238663614,-0.03576502761980451,0.16666037954974577,0.039141541147188,-0.03154491296980357,0.04907834322137658,-0.08251131697137187,-0.21927323778024668,0.36639050975374177,-0.010689967558576478,-0.06129133011897497,0.2652620618245455,-0.2800696272563547,-0.14559583489996783,0.11080730375340786,0.164828692011229,0.20826262365629794,0.2705934754205619,-0.4069692429871151,0.08556201317725508,-0.07830722243960246,-0.09483412187550748,0.36476777243942127,-0.14987658181086932,-0.17744400807246552,-0.186316203629642,0.039818283632955496,0.05839571343232956,-0.0008393799949754869,0.016615259651547046,-0.00421539200467867,-0.012363753408858789,-0.024491622113013308,-0.06455838156311157,-0.02419846798849651,-0.08877140384266481,-0.07890375805229279,-0.046885276601551854,-0.11485812871622167,0.017872933361181627,0.07494061532889934,0.395076310516034,0.1547475663008464,-0.040571855751550916,-0.22498396620806788,-0.11969080752328026,-0.08006665779615657,0.008358717027488268,0.028261889647304826,0.030274998142359677,-0.20866957780133705,-0.19956489308555544,0.01353018031140281,0.014919224727561834,0.023227914309187265,0.11964848878152866,0.0213723981884201,0.020679619650698606,-0.007607647869250941,0.002878883837339185,-0.349776901502169,-0.10611177116764652,-0.08814578023133333,0.09873874944907737,-0.04994572673389627,-0.15048265395704405,0.051705330700601154,0.0068115980975521
150.41815185546875,1.4687957763671875,0.025268268274081414,0.21185809409175166,0.1861122986135341,0.12684974250765135,-0.09672908180272037,0.25550183087541006,0.15190084229977013,-0.1458308585076816,0.19037035041203423,0.10755484274709914,0.015676071170089623,0.040060303000599894,-0.014406906637954145,0.09694979450153786,-0.059501724489468014,-0.03820773925596746,-0.11965636226284149,0.04337817322025127,0.16283570557671873,0.10307757055115095,-0.007531601585047107,-0.18610739390268566,-0.093025511671858,-0.07553922023516524,-0.09493015988953002,-0.055818846755301445,0.20997595849581477,0.06022743370037899,0.06330729492271543,0.12617677719832235,0.09188245134859285,0.03045007669563793,-0.06543397769956208,-0.1737691382972079,-0.07233096203447949,0.00995876334228616,0.11245957817470907,-0.10886271779208927,-0.0052930670148794365,-0.24339761737281235,0.13947637052146666,0.0968776322941389,0.2438585555206645,-0.08525695225510174,0.05261946889222624,-0.017326035561032366,-0.0792646152191331,-0.2331106515500036,0.01733856756239868,-0.29592434159318126,0.156914025257045,0.21894038985207628,-0.2813496085548343,-0.2587726288081941,-0.044216393919931984,0.09311794802949885,0.1132042976282974,-0.11216606934640834,0.12552909556562966,-0.01769776408964672,-0.026671308740733507,-0.03479269950341054,-0.033217602349028846,-0.038050880071367595,0.06653737129017318,0.013518417411497879,-0.022753828178045662,0.012614448471067108,0.041318378471611426,0.07106404155662135,-0.039023121402634905,-0.04967023074506217,-0.0752074297463913,0.13387623528685072,0.09187378443782536,0.11915641480931391,-0.19558187998697063,0.09386017674294186,0.06741658096508964,-0.10924048402393483,0.04007477460994732,0.10022817146338858,0.05746178030891908,0.0012031464173613976,0.07010722376657859,-0.03458560872783083,0.0013217772681716434,0.24564189390230304,0.023534206099040028,0.019551800114943053,-0.07843555700104121,0.020772850442546627,0.09333752503517001,0.16749241510552257,0.061708345739530615,0.00157519529820485,0.0268066674773609,-0.08052821009443363,-0.14967292195226303,0.042326414985922704
154.6337432861328,1.238311767578125,0.04931572533762071,-0.23050354543061446,-0.060604555896528085,0.06593273956505007,0.168091583378491,-0.12358947615952769,0.01654138660836823,0.09111021552128976,-0.06247958583570877,0.08281501750558695,-0.09114315277973022,-0.10312819895591828,-0.008654678205972783,-0.11902470014949114,-0.02261544005393012,-0.0917179956598771,-0.10129259466028967,0.05224146578178974,-0.08421611866020154,0.07627323548482805,-0.04678977763316347,0.031018147703117272,0.08132322477411913,0.01904144215437708,0.08384455093109885,0.17525143034476473,0.0035118177039225734,-0.02788169830898132,0.1094511984904393,-0.17745553051548768,0.04792675238010202,0.0137681191106162,-0.015621989740110524,-0.08890154296364697,0.05910079578446897,0.08643509628592434,0.1484514061583626,-0.06565335206867721,-0.15531858834325263,0.12298549272618788,-0.3209551040027351,-0.04051208150763443,-0.10176583404984878,-0.017034348084014383,0.02806987788322802,-0.13575291712105986,-0.6683820186379043,-0.2411066375636075,0.9059540109995763,-0.24700802414206324,-0.026815887979308853,-0.2507348170979456,0.1976228657551378,0.14715795609634433,-0.07780399926005543,-0.23396137759569566,0.2455458479478405,0.01787004344315008,-0.048802708313765444,0.024297317798837342,0.02795052599880537,0.00042435619686588956,-0.0009721685496413068,-0.023505929415926424,0.049456755797382915,-0.00832501194168508,0.17221250855384823,-0.07481412356260336,-0.05452288027522871,-0.07646884177248946,-0.24930793600925502,-0.11138554492038341,-0.0263522024173128,-0.11634815368091789,-0.1797852557900717,-0.044622717791227534,-0.1547189153885436,0.038171041313813894,0.021268287065640788,0.14547952510326523,-0.03293352778262349,-0.01961762591960033,-0.032214062960397125,-0.09099861517672696,-0.003992294417767597,0.01017542901490131,-0.058323837026342,-0.07529462184759267,-0.022081367083220227,0.01288364595477635,-0.11308444689121039,0.04036598930731955,0.05186761284403192,-0.05767847109213199,-0.07013509823836421,0.08776929791665375,0.037056796683109294,0.0336896449580393,-0.026313419732223384,0.1497309447190279
155.87205505371094,1.268798828125,0.15139834533778346,-0.0004973958260638747,0.2063645528944203,0.1569168178257632,0.15512737546657576,0.03686963457208172,-0.032209169108927016,0.029118575307417613,0.11682777483026657,0.17094572116048096,0.050996021227433685,-0.016646404023794442,-0.17031688821947405,-0.11641069086461857,-0.03228332733555675,0.03280306895845088,-0.09032950642061263,-0.01661960104373331,-0.12528794985240108,-0.04378979669563346,-0.10594434950021973,-0.015653763664150038,-0.3169414391455117,0.12168292968220039,0.020991975929925626,-0.19608082853965403,-0.11177260632605529,-0.032739737568940185,-0.4235460049764821,0.1405001681442411,0.05700566786009903,-0.036372990650197945,-0.04348972068968826,-0.1004311426900297,0.09727796671628881,0.12042774601093433,0.3494881088831202,-0.15925002968420376,-0.21576431461266374,-0.3899514767705139,0.009747433694534513,-0.11811457842695772,-0.1561496405366256,0.21499785340328853,-0.1972405903338021,-0.9439541245068709,0.006225468846480994,0.23578552699952307,0.03858701164808602,0.07506712630800164,-0.05979470574188922,-0.17536526626306917,-0.10421127197240784,0.1044832443057479,-0.2130420378304015,0.13782521942805126,0.25764942055294293,0.18838084850685072,0.05018686523121352,-0.010330149961380949,0.009724792811370071,-8.307423693665398e-06,0.1042199012176699,-0.023371142747188406,-0.06413343364789738,0.013745352157857759,0.04468078725332285,0.038050270221365944,0.019385022438293032,0.01743960118841492,0.0875700983334696,0.07420841518695577,0.38669717807434634,0.19910840684694928,0.13799269764693586,-0.07275995890321249,-0.2673962415351939,-0.14705417758452374,0.015242238795521881,0.1621153024272413,0.05041831328537029,0.07659175357429841,0.19631340140627157,0.061491420286799936,0.01060978796436986,0.08227028347301799,-0.059459901879157735,-0.05061269359178066,0.12765225237636219,-0.021691277856586064,-0.018591807205183504,-0.011924979428639971,0.09132580294695822,-0.08986103684848244,-0.05489791726107195,0.0625860580808396,0.051331480822040955,-0.01548233598465878,-0.10187775382140683,0.07173523916687986
157.14085388183594,1.248199462890625,0.07139613165225862,-0.19903916840935687,-0.023010756141277375,0.0024171175968696426,-0.05125111796652076,0.1022531272434264,0.08132838677534843,0.026124677061279404,-0.05479688775650298,0.05060006006214468,0.044925435515639184,0.07770289699474264,0.07559711272503443,0.09096790669992669,0.071188777892018,0.08708091316106843,-0.032247269914062085,-0.07955275478148002,-0.12057655989748214,0.08199393298862205,0.025115986329679207,-0.05936633940051181,-0.02589481498950552,-0.09548094052465497,-0.020801632133769232,-0.1138541800489173,-0.1328087875342923,-0.19851607140052793,0.030326249706427152,0.120387600729949,0.07133624577284667,0.020000140849875083,-0.06699101464827126,-0.0735818721005772,0.1326544532044281,0.11546814651012544,-0.02392745801388077,-0.02506527020300206,0.06822359813527723,0.060773642654816586,-0.2205796191104434,-0.022544757966728207,0.03295214637780296,0.0775564453541022,-0.16758880125819203,-0.2856947823637434,0.2564554463258172,0.14504541429375314,-0.4563305182029809,-0.5280217553390476,0.6477895861226237,-0.6102509292641503,-0.7328429790840356,-0.34388623707025345,0.5977815004507002,0.17494720187081259,-0.17057790847717,-0.07047631106086014,-0.187046413214214,-0.028086189358849746,-0.007033530622833031,-0.01906870632162136,-0.039827770765866105,-0.06340372064234077,-0.05888496377461465,0.05590539795339904,-0.004475216804979171,0.07642134604584636,-0.05183533081799124,-0.043609125785772446,0.09890451210994111,0.07374711085005117,-0.03751603544306831,-0.10668976601166655,-0.10604137637915513,-0.025410102258111567,-0.10900751544692629,0.15504704827270205,0.05497938526905296,0.026751202336103383,0.13142163308451804,0.03510884972727434,-0.03107581607959869,-0.057873922276602006,-0.06249058658584937,-0.0720811177611428,0.0720629181309829,0.023182311795414832,0.01609674427836049,0.05205987717611796,-0.01210480674534356,-0.07264917660907198,0.010844603223292983,-0.07448974399869578,0.027777393976307362,0.004453381373946061,0.08275839416507068,0.2007653018593662,0.025229464258657963,-0.1216833472578867
158.38905334472656,1.26910400390625,-0.11876791751090017,0.3424310896976422,-0.009517469807748691,-0.4734303413809205,-0.014607641160836658,-0.12059397777151053,0.005829912987374866,0.18875301810715375,-0.03284525408840548,0.030445415756161852,0.0088982277366794,-0.05640110534859942,-0.10782415185035402,0.02676791409783462,-0.06815030589755036,-0.1452951093350697,0.06665561168137282,0.022525467017211215,0.08934022775895331,-0.03030744299928141,-0.07893098492135879,0.032811188788519074,-0.08211476212607913,-0.02201011527921589,0.0753256097053892,-0.03263660583895985,-0.05458204457030723,-0.0455696924553648,-0.010887888667184861,0.07958447086392322,0.11797878282002398,0.004323200631616119,0.0327675175651539,0.16682144856247766,0.2611580373816589,0.1348662619614548,0.04910318763500414,-0.1172131346239913,0.03844820709374188,-0.07637103699335308,-0.04447879422435873,-0.28796237959555804,0.13888601997246364,0.007923655697449291,-0.22744825667308735,-0.1345618780823768,-0.42007461459619233,-0.39587605555689814,-0.11266849330673911,-0.40613362515064794,-0.560849651081876,0.009561956010893387,-0.25685042063792907,0.1779599922997815,0.11612190432649298,0.06348173308868899,0.016578532638170634,0.02790451872651257,0.001201236530583894,-0.0022550909053709843,-0.04846943342493863,-0.026489891392576872,-0.007801956286685544,-0.062434564944874066,-0.010050337647013258,0.003773759655438572,-0.004205444302057197,-0.06192424886756816,0.08032322995481694,-0.01609690702036355,-0.0031495074859279448,0.17880727891111198,0.0743222076579009,0.0043177725909485445,-0.21774968381127136,0.1690782967495175,-0.07113536148489859,-0.07282990807851941,0.06294078522280043,0.010546195410551318,-0.16523194627029292,-0.1530356843830469,-0.062705328288553,0.11075737419928093,0.09493817934298719,0.17655206000769308,0.062585290683404,0.1728577930015774,-0.02178545099765016,-0.029134343561491142,0.027059381309976923,0.07892288752387547,-0.2298546145167947,-0.029545125566248113,-0.2075502777873915,0.0902928717003723,0.16697860850721477,0.04100870826314066,-0.025332351701974534,0.06542836737506944
159.6581573486328,1.558197021484375,0.05438898554052786,0.06798852112045363,-0.24332039682052523,-0.2012286909240225,-0.025320428800650056,0.04086295702666147,0.052159850574004664,-0.013099666341901451,-0.21858973869291465,0.02645302484685517,0.005382776122050513,-0.03957407309171794,-0.06846419644770245,0.011143004008575931,-0.118623280981715,-0.33757913198683087,0.010291326272405286,-0.054099485121024915,-0.06804308048245895,0.08739565256077333,0.14475633921081218,0.08342327441534197,0.2003109045309023,0.19500126876818405,-0.06871230847151176,0.09953114404265803,0.05527344518445884,0.1593725013413243,-0.24930493142586022,0.0603226807828077,-0.07709210037273137,0.15040423331729574,-0.08016577587452557,0.07614177606398598,-0.016343960378088815,-0.10392024151362157,0.25754225856285295,-0.012416015968300461,0.11108045063190296,0.03493399608862743,-0.18367004799412273,0.05774424654310699,-0.3027080577604271,0.015310989364124866,-0.09634527295761507,0.36073295548084966,0.08482912651301684,-0.6731052854695548,-0.3079365825268703,-0.373513785644775,-0.0490930910939799,0.09745923368288335,0.0663897940632929,-0.019989003185129372,0.06222731442896323,0.21708711644902676,0.056168177282458584,0.07266432304527137,-0.06706645473490333,-0.009917491928630172,-0.0014463178619801551,0.042228293392458795,-0.03418941129280191,-0.030713492100227176,-0.039211565132310354,0.05889758788241602,0.10916015346902898,0.03911337458848042,0.0034130448705514725,0.04097862757686941,0.06546722641192779,-0.027055497171873423,0.14532129403260843,0.04109399804169897,0.19205968156546738,0.198618758967529,0.21377054303665988,0.2084121215737025,0.1094996240423122,0.13396046381463747,0.050056013634605295,-0.0558922695087906,-0.059195529175244746,-0.12711195569381425,-0.15652096552109973,-0.11813477190620211,-0.013275829098156488,0.0732471850218177,-0.0579676938026245,0.03308294906556024,0.06750983249748244,0.004476423371491514,0.07844690721648256,-0.023426391897546247,0.06967393098793254,0.004056310052175944,-0.05188666721774427,-0.016176926980574883,0.08481174993655148,-0.20485078297179535
165.191650390625,1.2884979248046875,-0.08360078605033784,-0.2715306339453802,0.3616892886206942,-0.01874368516516524,-0.0034004167749023045,-0.2303333402156967,-0.12197259740553723,-0.006889158904189155,0.055181616644312245,0.05099961554299418,0.03468870423168465,-0.11986829660011587,0.011291071012355483,0.018024529016545603,-0.0050986730709680255,-0.13419896933705577,-0.09349620989736562,-0.013589712746251871,0.06913816167768716,-0.18652606102384095,0.1819808658497858,0.029630993184675877,-0.0006370274500626244,0.1538490747358714,0.004807560200801751,-0.13842312706206952,-0.102090266026696,0.2239857889720619,-0.037151071223374195,-0.06437539029613941,-0.11579733074790523,0.1317185815967036,-0.02726471133315267,0.04135695084669973,0.11587505337817183,-0.013834879557118342,-0.004977109901817163,-0.16637141856842325,0.33118560406443576,0.10615199457169802,0.11936172047923237,-0.10047303496004992,-0.056532885259678575,-0.5991383386280245,0.31793572073073784,-0.5705845867683025,-0.3361747464894435,-1.1412311109017257,-0.221705265992456,-0.3799195688018847,-0.05000355384497009,0.23326104654649643,0.23074138597760188,0.11888255725165121,0.08703874890189241,0.020727505016941237,-0.055412108944861385,0.0715714100448375,-0.0019522041602091796,-0.018786145396294356,-0.01256428337184426,-0.05531513225115265,-0.0029072384317458777,0.036089407502077175,-0.019978840903969945,-0.058591894624868086,-0.028465249593135677,-0.011564694696440931,-0.07428719522627654,-0.07457495575014053,0.17978442878893314,0.015854094806157792,-0.166086458407936,-0.13591129428829923,0.05319353825113418,-0.018064791731742816,-0.03841341390874443,0.03920501842843027,0.005101390656317692,-0.18716478674463918,-0.17621877097759164,-0.09651429819174895,-0.0859691462506937,-0.04830042662121385,-0.028200788321087796,-0.1706098422629422,-0.043602978988280555,0.10645058293386041,0.06886413675234349,0.015948539251041283,-0.012277380911918646,-0.0024854166567939004,-0.01700443438183539,0.09734730599444465,-0.06514970344565325,0.05683795755931669,-0.21944580751018794,-0.16521297798508727,0.04086547358600541,0.05899972060950048
166.4801483154297,1.268707275390625,0.06466287998013513,0.005365844101548051,0.22344499940517837,-0.18864127719837462,0.0020707226686090263,-0.15616288961774716,0.06576401701822851,0.045139556270738235,0.06670212817187829,-0.008953375928366258,0.0795903955819295,0.10123549573244878,0.024940636326939106,0.044447163048542085,-0.09890440674914021,-0.20032703891170908,-0.10659900229999143,-0.08307787350109444,-0.0017100042263636771,0.18688052023677476,0.10403895654690566,-0.02824928370774099,-0.0624203244597291,0.040758889333459614,0.054825875781319526,-0.07908431100861153,-0.022253215703008214,-0.09197572763374036,0.012467616052507055,0.07539885668760982,0.013431764207789715,-0.05931387127292042,-0.0027254614758212836,-0.0359632470722711,-0.03611274569104369,-0.022162997057665144,-0.029300542710227723,-0.03457140820544228,-0.06084829932883694,0.13280803911435904,-0.14010029766891013,-0.0013142743271848407,0.0013468074369714922,-0.04773472604266195,-0.10830292319207499,0.17597249805091825,-0.2610310340557098,-0.5631884162287302,-0.4982794499831584,0.07864349761615147,0.48751201014518486,0.15914271386032405,0.2768721964791676,-0.3159394637565628,0.1932780126833883,0.2814891408706788,-0.05930665889075175,-0.009537950318219137,-0.013451738614897103,-0.03377336915688629,-0.044876078262811626,0.07443421173761292,-0.01060864134443172,-0.002148506665036386,-0.006812842362744219,-0.014545379122238786,-0.0034531068164921895,0.10484106029260862,-0.09395602729205706,-0.17135131470441348,0.03466771124938169,-0.1339097427310904,-0.041873157364270386,-0.06900585244783825,-0.2698241355506423,-0.25127831909379567,0.004584695924055842,0.010768563327095729,-0.031889408199634414,-0.1740986916651843,0.046747935823319535,0.17718165422511173,0.05163716433976164,-0.18323529783325446,-0.014165831767312675,0.04159838163526896,0.16596581681331418,0.12636295469339906,0.03730307726812229,-0.008033958618067277,-0.0022030330907829875,0.0023311990810565733,-0.155921927684606,-0.07730507254689242,0.003301266594048851,0.02275994827609229,0.025898637837912786,0.0773262407121871,-0.031220378770605968,0.018366255176626003
167.7488555908203,1.2379913330078125,0.009941371905126062,-0.3365851346760348,0.08999562031438212,-0.17903412832728016,0.00697241601844481,0.07712279114948395,0.021902636068550637,-0.05193961361577036,-0.10301934467814622,-0.022176365507806467,0.007014338749611861,0.029507037066129484,-0.0409738531093031,0.04067167738325402,-0.10628223288321396,-0.02841277052788182,0.06973275097159742,-0.07437876954270599,-0.004119349413929732,0.11781314479986946,0.10805860546096713,-0.10180194223930406,0.02396593296089159,-0.058636016155722046,-0.05504913459499341,-0.07692130122071106,0.04561838680426005,0.10225361667504541,-0.09533374064275847,0.005348645581611729,-0.057452884765352,0.009922427118027481,-0.06911942051010818,-0.08246446050717893,-0.008737473119790368,-0.21488899317488303,-0.33862506754022975,-0.007097190361143771,-0.008999819592137215,0.0012894565728578389,-0.11733607398386495,-0.0707806999767751,-0.025673461682429746,-0.04797879910438252,-0.3755614771190777,-0.2379395869773818,-0.15814923596386254,-0.23019056344135536,-0.40148975920159996,0.2841975828058081,0.25193145882821555,0.1510885776204275,0.4218691266008666,0.052268417772284456,0.4435618182130611,0.3115123433028415,-0.2042960781398632,-0.0019430695047221586,0.12219182454737769,-0.024183788034130023,0.1051802448973457,0.006795891060264098,0.003449743913304077,-0.018358388758871278,0.005513469641200921,0.08890331235153912,0.098606276174355,0.12461721921516859,0.10345074521000126,0.06929695364096618,0.02630199826754507,0.15064744000393757,0.1434021247663377,-0.16074794170038456,-0.05042557505680795,0.011731993480076053,0.19962437668813965,-0.07617117985835281,0.01275570834907795,-0.10716227863426746,-0.03168500517586943,-0.0040905032999592784,0.01793767112843654,-0.11188525950040736,-0.035262774183599285,-0.020099733663735735,-0.12471742479326176,0.1645557549977117,-0.1435721122667541,-0.12377765436942963,0.00851580143944011,0.023780934173176376,-0.013481389766540657,-0.049755475760478986,-0.002260188879581448,0.06920678445257371,-0.020260735871648335,-0.03666617086266672,0.04205676224523015,0.27249639951804283
168.98684692382812,1.2987060546875,0.13607035508939336,0.17031083373448622,0.061036658260841314,0.024946473575305272,-0.2541962516768537,-0.006812627999257123,-0.051419646014548015,0.11360828324773371,-0.027161173138677712,0.020659785862016104,0.013469261529486319,0.005086554744124933,0.023771467682462313,-0.07460411677808364,-0.038134827618411846,0.08423676960105343,0.0037684184458998665,-0.2097796691733146,0.07076563257601612,0.06940189519014359,-0.03808174634518335,0.01174125337887326,0.15163372829611485,0.02018708421382762,0.019590079100683402,0.023558699221603425,0.019447390867474285,-0.2517143207397636,-0.015087612092415426,0.0021839260905813906,0.014500993575327184,-0.09987522734897807,0.00074869757740237,0.00940325611699555,0.04738344014313832,0.13181664712813615,-0.05235108771888563,-0.23792067268924577,0.06659034054398712,0.4912603602491706,0.2546655367243833,0.03523257007924464,0.23217266112357737,0.082705167670788,-0.31760138233688373,-0.20513567999894952,-0.026080800707137076,0.08715411497715891,-0.5656619265450574,-0.24707297028941583,-0.08047543608510016,-0.1055859070741809,0.05111703509186691,0.12277001300465189,0.02528283207729526,0.0033591524970931776,0.05162955485904546,0.10799182857353082,0.015317704587796433,0.027011246099175466,0.03243486786660944,0.012005375227426878,0.009764996028986258,0.0016952212766135095,0.0008289188510778433,-0.11770668688029683,-0.027039119763184162,0.1070697521771746,-0.06693353437920879,-0.0019117558980809024,-0.12945137676004367,0.048122883826048166,-0.06666213104749037,-0.0023271206558823166,-0.12365251644291728,-0.0805739686027808,0.18086815867875888,-0.04444051128296787,0.12741316459671428,0.11710884102310397,0.19095907143831367,-0.18079256549462344,-0.0466437207854853,-0.11095525918951624,0.002664462213145981,0.015867373833403597,0.12867364142577006,0.027782360647582147,0.014590918493604402,0.027110368312713365,0.03935088385785657,0.05643629487349729,-0.026816113370296962,0.04759010794058996,-0.016183273972296918,-0.019331893183697185,-0.01664668953987844,0.0440760894960746,0.027760039258320705,0.0452185227768233
170.28555297851562,1.61859130859375,0.04829223929045674,0.12755272086938146,-0.1708043331257565,-0.571440613539575,0.10024875338535513,-0.0013104847425848554,-0.13306331756976658,0.041850019490576415,-0.08052044242598383,-0.052823124222221456,-0.0467358074248956,-0.049641544223531835,-0.16692141364663393,0.002277949866641128,0.05129031914724156,0.20291365873746267,0.034243849259062056,-0.06820119428748064,-0.1289074089767399,0.09908130950882374,0.10473656685615576,0.11701538420123737,-0.21759597314119217,-0.09467111741557672,-0.0015702732210044496,0.0617278844150169,0.1956695874944551,-0.14186957194058827,-0.33152068576559207,-0.05334746204156292,0.011745022416739206,-0.02907058977850389,0.061590771387842545,-0.008540892359115024,-0.005177854785507139,0.02597113529041775,-0.4595460881639486,-0.032482810749947036,0.23671142364204767,0.1699429769584248,-0.07343795917361673,-0.22395640721416488,-0.0622393278232147,-0.18014458235092942,0.15557768002422778,0.4425176392715009,-0.10931113836302235,0.19048292735679367,0.13299716671211792,-0.2142549389291144,-0.18130773311893844,-0.0038811583030587526,0.03957194626219511,0.003914329677750728,-0.13258490227942368,0.004884427179301189,0.021298690087932833,0.0996963961263705,-0.029865283011754774,0.2658337214246231,-0.004566475513308618,0.0012582987598147152,0.03869125667265345,0.07081580197067365,0.07090490983343181,-0.03590181590773361,-0.05112439627097129,0.01323916722781638,-0.054442589278623846,-0.097216182018541,0.04597636186856341,0.08119259483413013,-0.06764348965748224,-0.017075383057144157,-0.059749287014793026,-0.08208550397288462,-0.1371593036938387,0.01494010130783599,0.12162430902972385,0.002437496023222725,0.10028350711835488,-0.05484450175444453,-0.15057958402001165,0.03347565251156576,0.14711173941817324,0.05410364937689955,0.09092207415696799,0.023059176748447967,-0.07218888687473192,0.011182253784654109,-0.05586794749250065,-0.02025242642172949,-0.0715766505528133,0.12326149673617774,0.12004281216865306,0.014677766686646157,0.014555317531312553,-0.1145292460701663,-0.18652967782727525,-0.3937840507772731
175.70945739746094,1.248687744140625,0.3709724377998621,0.034098881904876914,0.08908001623964802,-0.01406051897864008,0.10595043946270877,0.014139187408193907,-0.048744351424251674,0.03826573416578968,0.06182000980030646,0.14065955920530768,-0.03665394166751562,-0.03412786818437019,0.06938039636692382,-0.13761105443096508,0.08352728945284998,-0.09119273437160408,0.008244006687912593,-0.04875281720130986,-0.05655922271574805,-0.1857157184589733,-0.04462989402997327,-0.07698476330666962,0.03578986000055538,0.014575853273088793,-0.040845200454353435,0.010972507200933047,0.019316763203052603,0.06290630373080042,0.05486275037856281,0.08510135052640869,0.06661732128536131,-0.16869547842293753,0.046275487275638544,0.10937539070250574,-0.06634268216547824,-0.1621053398126049,-0.2914101773745871,0.057077794349993966,0.28526754247004404,0.1763380316231875,0.03244994414844363,-0.13046895045856338,-0.11811977844523472,-0.06682900783814354,0.4325578567360612,0.010495310846803088,0.3774301853137766,-0.8380241653698087,-0.6176318484602813,-0.02895332100005894,0.6627169107480391,0.22691033462961524,-0.41886237779151864,0.13634220427965077,-0.09751458116492563,-0.21867563253346833,-0.08475229249686013,-0.1583805990232496,-0.022740707945261028,-0.029777708054838904,-0.06615541660401277,-0.025475813396200735,0.029387266479809743,0.05733454798604628,-0.016963977572772924,-0.006781023957492287,-0.021473413719371802,0.009977447959077457,-0.0963337328893075,-0.04407853206385007,-0.12083639691199036,-0.028436073311992875,-0.012805689504502447,0.0005846527273553337,-0.0880319077435132,-0.12129212063082478,0.05442988341375347,0.011886799218420833,-0.14371493391953752,-0.1113376077263901,0.16656689343399783,0.03034272162825811,0.02558669478644249,0.00015287233601173598,-0.001354904964083354,-0.06618258540812698,-0.12951503412681084,0.0681232656844874,-0.01135961101114287,-0.02133345519957407,-0.07662115566595068,0.030164354785525,-0.03994609232333364,-0.10836206209403143,-0.04981830409863846,-0.1581352812487526,-0.20525530626386576,-0.07868023434412083,-0.04381557440947218,-0.05601720589160097
176.95814514160156,1.2483062744140625,-0.05865266423287656,0.16576366010112203,0.2422426301025008,0.1257683085699708,0.16725852386085271,-0.11156815560441856,0.1765240534457346,0.08480799790418377,0.09670795465781412,0.023952841320010246,-0.0064528631713683905,-0.1140735166994201,-0.12126663972183013,-0.07461901561896629,-0.1194868312499473,-0.08022931044496692,0.01821939767614004,0.11642809582149899,-0.03547205074410081,0.03550340892900518,-0.016166763511341196,-0.1747497440225946,0.05631504705487487,0.07515357034119143,-0.018643443926159187,-0.02311641728568374,0.023429994974525727,-0.07897122391358054,0.021882725451668954,-0.09624506534345498,-0.024577508745405693,-0.08252819688708884,0.01311582295775056,-0.08089635375755129,-0.04443255419706785,-0.2415769199314235,0.11119915320742083,0.24015952379665778,-0.006514311861717387,-0.3919158583902615,0.10527491187161755,-0.08037183351721687,-0.2470242072197813,0.002865553388851194,-0.28087315745487634,0.024906268590778328,0.042748197458067023,0.09333061881154071,0.005613069061704466,-0.6454058927733414,0.24161934411777436,0.08936237943016015,-0.014416424540198883,0.08760302999470909,0.13510195638412786,0.14324824551375345,-0.1334832263972749,-0.09424799715635737,0.09129604263290071,0.07559378087549137,0.07630893751099455,0.04705628256687884,0.029101134263259217,0.010731160909798271,-0.00014260341261801359,0.15206719786933756,0.1155677919560081,0.01310774492420344,-0.05963106996792323,-0.07001110163431695,-0.03402982150412404,-0.07157072082324367,-0.05206675278024227,-0.03653196004467486,-0.029618064221503836,-0.06668715260438653,-0.12799949544412081,-0.15058777206191457,-0.2112298305238474,-0.004276557553260495,0.046492636414865326,-0.08128866051645893,-0.11551703212684754,-0.012952882808072844,0.1663448594803761,0.031957347449596496,0.14710071891455356,-0.07008878265991413,-0.008253953060912993,-0.051964827568282766,-0.05051594624109273,-0.042769969215946765,0.05242836531216222,-0.0544163393439977,-0.11045843430843214,0.17984448810405188,0.12095688237166627,-0.040369538100171284,0.09701115624047085,-0.02614739152031839
178.20645141601562,1.248992919921875,-0.037991601061035996,-0.14942541294923795,0.23517521749642525,0.1251840241316886,0.3608730574426692,0.04409542596279288,-0.010631660512013369,0.0409098623779857,-0.048782550078425864,-0.028548364615763766,-0.23404600587895202,-0.010713642180233143,-0.04561942245413354,-0.09582162851483711,0.01343175642588169,0.05083978608256874,-0.241298244964909,-0.5047621756860694,0.3090886133786825,-0.14378987656868955,-0.15419612177608719,-0.08192635458689711,0.1373241126609253,0.19333551632578574,-0.004883564244071525,-0.22323413079773943,-0.0865359861707175,-0.011393699378652677,-0.033243142716209,-0.14162617053611617,-0.1227435131824176,-0.041370031808407315,0.18114144733406054,0.17411098474736142,-0.09740761536312785,-0.02524649274180345,0.16815259329106932,0.09034606383698254,0.04626851645765191,0.05994552059405523,-0.13450072339542474,0.030532828235682576,-0.04244932416043438,-0.11166774779511465,0.12012187042613645,-0.031651218140360954,0.13394426719027677,0.3581095166756929,-0.3654536359779278,-0.06103686758806032,0.01863044603885644,-0.20505633913137222,-0.3292516382946936,-0.10296622122143892,0.29547358841206506,-0.1504400249941122,-0.10348675495374239,-0.25617883026779464,-0.04327037585791872,0.01100524769214439,0.002566154495544048,0.017419286485042842,0.042531167168729574,0.0019364253243791527,0.08664941466605394,0.05114837740356659,0.08841017559073071,0.04630937744813875,0.03201188297565658,-0.1070588205443684,-0.06286590729427775,0.03567431138003255,0.12375131559475758,-0.016539575119035078,-0.0676612579965529,0.024804352147660903,0.0018990875940132525,-0.08582134538745594,-0.1779547268171409,-0.12147539263843125,0.08657730323841813,-0.06035830997211658,-0.04833903054697223,0.052918478481075774,0.02431133915318539,0.029659237247877,-0.15078900210842228,-0.016320208116078927,0.008983339073442368,-0.0036865871380417315,0.011090454461323812,0.057251455284063904,-0.09874819715312443,-0.060145401747513295,-0.1680783970725095,-0.0211901202966138,0.029771863817468547,-0.048499077388407336,0.06483802426513699,-0.13189363793231648
179.4554443359375,1.3683013916015625,-0.1341199695556769,-0.12853720646734051,-0.18898963219550868,0.22133059368276373,0.23874604437336944,0.11342089733431061,0.06061539761504996,-0.11541028945307576,-0.05551533912281468,-0.2520771642769945,0.12777316161052554,-0.17222979637350153,0.001981822855599502,-0.027162344038169996,-0.13039596570613446,-0.028327372998734158,-0.012715815468989557,-0.0958251511906303,-0.009393252792809746,-0.03943149662148006,0.06162786415493968,0.060740937866813734,-0.10205330392968687,0.08257607932953051,-0.012505884581805876,-0.020179004471333372,-0.03618809664147492,0.09601958280045596,0.16014031189268127,-0.08177866491425892,-0.08368673025921218,0.026037648805938216,-0.13214127204601217,0.12159649391707096,0.3983642150981915,-0.056885860088083995,-0.13438609307778462,-0.3579649860819736,0.047968951687796496,-0.15124683547476023,0.11728286326803622,0.05026195401791801,-0.04129787242181396,-0.019718522314055242,0.4082039121652173,0.11944570705198632,0.3794311203227424,-0.3164391672924155,-0.27018330640456245,0.47096491846104116,0.3891422165246605,-0.6797116279384741,0.12453112520269956,0.024045289278957632,0.15732685548290512,-0.07387241382361341,-0.22109936747529405,-0.1794208594851616,0.030439308644116893,0.0018657280468358842,-0.0029635945084708656,0.003932027296086696,-0.03725575919446751,0.07082340385759239,0.05251551574004326,0.0050655167922242506,0.08219963601153153,-0.15519286842738245,0.029851790458491814,-0.13509248139737845,-0.04389141382447107,-0.049205448697096664,-0.1256613845633822,-0.11091661641313545,0.12276174983242656,-0.01203760347691097,-0.27833445091607256,0.08183647194477789,0.010996749692905039,-0.08089117331058196,0.06630771415235119,0.04289404100589122,0.10053148111994625,-0.03155551528399805,-0.009357299847782066,0.05318028049563121,0.18855309264861378,-0.058486197932905014,0.037601873545468865,-0.021958021277404143,0.11913904011366229,0.011896148966842268,-0.112234959374227,-0.10252185439243758,0.04633451211608365,-0.19261532471286388,0.0024075253342851575,-0.0792273402975438,0.037533629965330245,-0.03530991346451656
180.82374572753906,1.5084075927734375,-0.0348360749406509,0.2571175581122816,-0.07579089177987157,0.13364570469265558,-0.17906929135568933,-0.2785553434293339,-0.1387627357134291,-0.22127793143881067,-0.13088993704734322,0.32034177438356587,0.02766334377501595,-0.017686937948314593,-0.1483798209821511,0.1879873680262938,0.10540788105396828,0.02731406121811311,-0.14975217551565864,-0.2222172918231248,0.018994638965835395,0.06989553872964971,-0.1073935915559501,-0.08620256722045865,-0.06566456869291949,0.009623187934081567,-0.03930978095878693,0.051888186890914824,-0.02886080022427831,-0.09442990396690817,0.0196280323421393,0.012447228601917404,0.05243575919190838,-0.1262121871428399,-0.06363365960811285,-0.04209797918421719,0.08662285987439611,0.16483350074799807,0.14571554860242913,0.06583083620307634,-0.03970001772971863,0.016547090626979125,-0.07450836261454347,-0.14624676956518196,-1.682051498678224e-05,-0.04291012845769684,-0.15058062862731755,0.5060940473115945,0.34977408840634217,-0.017523309238008378,0.3900389182334375,0.30227852066409555,0.27011990932110197,0.07603895494422078,0.18372052595472274,0.069687277906392,0.0949889665665568,-0.09502611988464821,0.44164743113261745,-0.059439892565778495,0.014623053901701849,-0.011098994008622048,-0.00423732437927658,0.061218919901221136,-0.010652140639444967,0.06586171831651404,0.14285797181340665,0.1700188143475251,-0.020716984569607994,0.10116996581823692,-0.08115633110950975,-0.14316569843807161,-0.05751900082868869,0.08321089428017758,-0.04294664599434187,0.016423147767044392,0.0918213228795158,-0.07395172711075847,-0.025826572505289927,-0.09978066304306925,0.12857102320217453,0.051088132021088466,-0.21495927746295654,0.008453745292390161,0.07818250828237953,0.11562053980294276,0.07291924168201318,0.20971007231314984,-0.027462334757548702,0.008573781964977671,0.03867767343057992,-0.07224576076106574,-0.1328046798331572,0.13562572629205014,0.10470577055874711,0.008851783906105706,0.01534942728913011,-0.09775660591458334,-0.1760434906617481,-0.028200156775232254,0.04343796480730312,-0.20357128494901405
186.287353515625,1.2386932373046875,-0.10448861978571178,-0.08321724057327562,0.05690527031435219,0.057174758550175134,0.42233888063265596,-0.019836867516034827,0.04670063297200337,-0.049459188715936846,-0.0720449491728028,-0.03392400913396522,-0.07175878191127814,-0.14324620047815245,0.20114674303814156,0.030706586034355644,-0.011619777633987773,0.023213759261361697,0.11114657399646577,-0.044104085637978414,0.02259686375907376,-0.06342619364807463,-0.19183227919319065,-0.149302199704188,0.056416911949617836,-0.051672013564636174,0.03888958063065405,-0.03893903491416001,-0.21038523100987896,0.05796605640606257,-0.02494342953204701,-0.03600580875609162,0.011013997193420957,0.05522153048706709,-0.08097103703098525,-0.05418208503862629,0.08630829675227224,-0.011456748832907176,0.008227865016134744,0.08856164624873299,-0.09314045850621466,-0.20027351110893926,-0.2717106193855447,-0.008581622437846383,-0.08072194271184074,-0.30472407291111636,-0.15196626346665684,-0.12564668744959534,-0.4947334868075589,0.07671121156716733,0.3557415040441691,0.17082853889596156,-0.07068462187993653,-0.029617969551390552,-0.49042314560955663,-0.6598315227189979,0.18363677025367867,-0.043293277601089274,-0.022804778115948582,0.12344256169269899,-0.022661163055907374,-0.011650454460485387,-0.07650144578122893,0.008509222173846278,-0.01006979018477346,-0.001098382792886631,0.09229772336992642,0.11424543930193377,0.047310644912812165,0.04904833345678411,0.02237306777322421,0.08251714169162447,0.011572909364208328,0.062378495104792195,-0.0003091410517731517,-0.0649471139524221,-0.0707708937674172,0.01293209464971975,-0.11488623928291332,-0.10663883367781861,-0.1075661252296275,0.2545990329535813,0.030500144746655133,-0.010822525587652499,-0.01621571946054861,-0.12266729705478936,-0.04424447580938422,0.01532797655544652,0.09458800998271319,0.025463903994625302,0.14148158197865957,0.08821799184478608,0.08705303688153504,-0.004595657157275059,0.05478467113338568,0.051198196352120376,-0.05780871245898661,0.17379409353621275,0.0365517324032304,-0.1788575947866842,-0.020569252606674967,-0.22328181336879288
187.5260467529297,1.2187042236328125,-0.22234898955542443,0.02567280364556863,0.24350993045181132,-0.18947223234642502,-0.1101561167029581,0.02410803110453784,-0.1275436477067473,-0.03355239088637829,0.03384663530165461,-0.05327334650581594,-0.04181025882319047,0.004793843849408846,-0.01682357488214211,0.0889330217412744,0.015908900355311034,0.04797923798622134,0.10060606557127821,0.07539574103315765,0.16470992225707054,-0.043025628954612434,-0.053779481523068266,-0.035889944588278114,0.12647806636176862,0.05137641671392649,-0.015199628741153756,-0.14387849922808665,-0.05052061548702427,0.02885069359437171,-0.009122513416838368,0.0506739842830594,0.1065482654112519,-0.01932238619926054,-0.05318039536930917,0.2567800116343887,-0.1504099470832402,-0.12730137168931766,0.09423644791138591,0.1328649368006738,0.10856172297719283,-0.1492604380142524,-0.0039933207382102254,-0.10124705783491941,-0.36997750002452273,-0.03698608405769113,0.24078912686277892,0.5844114170992278,-0.4916265933695956,0.5714823300499166,-0.43856113939993174,-0.5488578811249516,-0.3905524809115972,-0.0658331722076145,0.4527923266692057,1.1636380436070506,-0.011910883531596986,0.009602834328313225,0.20002296821773577,-0.00239539782426379,-0.07538147678790232,0.012896591421478792,0.020220624188275544,-0.008613232980095243,0.006356312889856731,0.08716715176365403,0.05038426868960883,0.04094660581495366,0.10287672952121067,0.1356166747884741,0.09776708312495289,0.017922038974173615,-0.007335874319999549,0.047241724736604034,0.015766381223199857,0.11458136630845057,0.09088700993194265,-0.0019405978187910866,0.051362655866419644,0.14629088913959074,0.1524773336250584,-0.07060126233499767,0.1077949032415286,0.11027676270328422,0.03851651143768584,-0.06404329604670955,0.03624950492521289,0.05909662193409625,-0.06566044132315484,-0.0383698711055245,0.00033520218732363853,-0.03392228453014896,-0.20444458779287542,-0.003740799881514016,0.042235647727280334,-0.04711787694607144,0.0397301859339616,0.11262430004943935,-0.04287340493505491,0.026450776766294055,-0.032804892274541385,-0.11318036724736621
188.7447509765625,1.318603515625,-0.2550805030124279,-0.013076663098469148,0.05689514827215965,-0.1180974079875725,-0.08044838330021006,-0.12758299711576152,0.06747079876931797,0.030204852455862796,-0.06293667018095594,0.012714468047995066,-0.002174769885183041,-0.07554297196340655,-0.10750603266544544,-0.1959378875083924,0.0036576320904656984,-0.17119034789380386,0.013766814811704093,-0.1980353653117946,0.3051603003782926,0.061047956019360756,-0.005538872016991561,0.07429657516636592,0.048812368331932005,-0.06226583170356962,0.1511547109714626,0.4953142451559502,-0.31999337018499635,0.09712971335071834,-0.19119994422790385,0.0031649385302665867,-0.042646052903390366,-0.03212986445329073,-0.11529839901912779,-0.014830386517377175,0.0483222224207053,-0.01799232827956212,-0.4493284407197393,-0.10553475179345109,0.07637116744913346,-0.3280627653955917,0.06466008444135667,-0.029297956967332915,0.31694759365042197,-0.19939560880681467,-0.139455172164828,0.0036450666900244427,0.31466022701731966,-0.02605982393155014,-0.09357522567070652,0.28926481793523245,-0.014228932633203722,0.20162372032978398,0.014264576376863111,-0.006248979160838247,0.011414741865920666,0.017628889048390647,-0.018079037796552584,0.033229607774957814,0.05040140427537672,0.03959280276121023,-0.12571096626877404,-0.0047875005535456955,-0.04312350089888315,-0.04862321311029752,0.05997713382110784,-0.00016664430282310912,-0.17092875628541512,-0.0626258402389376,-0.023854152199078913,0.012463607276931028,0.07815779969925843,0.057647065455968316,0.01632987896574193,-0.00918026539454258,0.2821324758670459,0.009078458525818357,0.11132837798198479,-0.0058525748048874025,-0.10594948483278181,-0.10721632182026872,-0.15970729087891136,-0.025514559850027995,-0.11864939773259323,-0.04208952499559179,-0.07116470469109004,-0.0054490405332120895,-0.03985013837093975,0.17689644142263117,0.13424266582008135,0.023110593980757217,-0.09123479544378445,0.016747095472068346,0.03748772401291138,0.10111248387300381,0.12770756788675783,-0.08825681496895585,0.37178415071806065,-0.004825674991534468,0.07489349302007317,0.08112535235784157
190.0633544921875,1.627899169921875,-0.06931126083728884,0.061224106526437116,0.16785512699379132,0.06890251536717278,0.01657450371678346,-0.1076778299213948,0.04939937796906095,0.20658945068267426,0.014256379431716384,0.06222574422825218,0.007542486985361054,-0.0026883802112987873,-0.09592647187269988,-0.007406585444467497,-0.1770663694040313,0.03953297952186315,0.0231111189239233,0.12230822532583405,0.043451700200513435,0.004822975017472513,-0.2592898905073641,-0.02818652123108404,0.04936786408254896,-0.09350313100003002,-0.03220155805560259,0.08595145435407744,0.1430337292549534,0.08257920797130987,0.07913734864935278,0.07741961644133849,0.04772173962435859,-0.008166669696400727,-0.012330522193389327,-0.013208504520291708,-0.062272778592823055,0.14896592923406618,0.12775990111585478,-0.18058880155741622,-0.0043513081348355446,-0.07437325340188215,-0.01733502466531952,-0.036857903441938164,-0.30245739000386984,-0.29895796252411294,-0.16805275676832407,0.08444035422069249,0.042959784930344705,-0.1361073929170639,0.015501697860268521,0.07303242659200179,-0.23728837834493519,0.0032649770065984723,0.0776489485706678,-0.10603820336170404,-0.19962492888641403,-0.022827830320634596,0.04412757526182587,-0.1761995209438679,0.019004233079989576,0.042228023067569335,0.03436315123151906,-0.010065864687962653,-0.012488964456884261,-0.002480535927620794,-0.02415481208502536,-0.04771066504131213,0.05424291414843086,0.06948001891589528,0.12371761030642638,0.0700860482467222,-0.053799052299164395,-0.03520144434817573,0.012197009516973542,0.0010706401462236698,-0.1473602765841032,-0.07791269702957757,-0.02225317433968146,0.04130280684947975,0.061985764349349874,0.0013326438558462104,0.11673863978045802,0.06371522290943057,-0.03820566665830178,-0.066872800678424,0.05664092198646651,0.16560475114174494,0.014309715930489552,-0.09742488977702851,-0.039880576987356066,-0.016801838477371135,0.006289067895540176,0.10466371666909882,0.016347777027106877,0.0491356088050976,-0.06076640044033383,-0.25057107244842136,-0.10198145440396997,-0.04086678299564279,-0.18543552383289208,0.005320660178316512
195.74635314941406,1.2489013671875,-0.0019875518201737594,-0.023696742277554153,-0.15788016463477755,0.1997650820225603,0.059939742798267935,-0.06251815874384203,0.12072282361639243,0.06872957253960925,0.0773980442648208,-0.20394739223334823,0.1692382442479523,0.12615853394918575,-0.06011640030508432,0.05816903937406379,-0.20332561591835532,-0.05324810822865547,-0.0196697655456778,0.03409855902939442,0.012286210287453997,0.13902230039590543,-0.009834544806331055,-0.17498551961805867,0.024102198264514554,0.09342547234359401,0.16516734476023184,-0.04112263333929911,-0.04389337389524163,-0.09445921892868205,-0.04598545873641413,0.025586563814444,0.10472460749653466,0.04682145526275499,-0.00926200049988821,0.09000700366763459,0.045617809419639346,0.18068516239751706,0.2658868945485897,0.017568734017512883,-0.22672398529467,-0.00811474294734366,0.00660243410237879,0.080158496194105,0.13838306928429875,-0.02778645569030011,-0.37497546879526034,-0.20515358531887218,0.10900533448084326,-0.1823155873951539,0.21397647938666003,0.286374442331251,0.787114731381891,0.006616882658559031,-0.6718153253824155,0.25280197547629335,-0.18905663277579432,-0.0019815043242995267,0.07230295780034793,0.06083573997401811,-0.04799964812685339,-0.06178715645308291,0.04696489310791975,0.04842359741331292,-0.03469273496390998,0.03817791365310057,-0.0336995267863956,0.005470778075297545,0.1372965025734393,0.035524174811754475,0.06683838610649442,0.08147372782804815,0.13565883010909366,-0.1280955756636906,-0.059172704989463976,0.20598420679883414,0.16691631200802826,-0.02132832916908132,-0.0022226555348276796,-0.04154338707899504,-0.060714102302600444,0.12183886285697468,0.02135476515106094,0.1692963106715621,-0.02803707443282115,-0.011634163200419281,0.04218572505751412,-0.20638706766971973,-0.05072719634023292,-0.049623152130152594,-0.16726170735755347,-0.06182056413339962,-0.07413424744272207,0.006225824128979074,-0.05522556874132684,0.05085827415093901,-0.03590604055641039,-0.019504839779298094,-0.06584431423655286,-0.10712334638392361,0.10720185474555223,0.022307293839892314
196.99525451660156,1.2386932373046875,0.023391562123070177,-0.04504987585822268,-0.14347499813002063,-0.04117259804413644,-0.11959706279030177,0.05325008444188618,-0.036470564016777354,0.13605670379102702,0.12058879984802442,-0.2134063692893688,0.046803629161870586,3.0505759083601647e-06,0.014947300609912558,-0.009163077031961992,0.0032935015636762002,0.09180383941267167,0.01806253382861239,0.20006261923526913,0.1719818859360347,-0.13427621180378835,-0.014777591965262375,0.14843904041064782,0.15436871876017327,0.028666803264363945,0.024141371840832312,-0.04605674611774639,-0.11256360827527431,-0.15556115456781835,0.004078016832435651,-0.0432937338702589,0.16212023412545154,0.007006742922239877,-0.0051306049550505235,-0.11386220434465096,-0.19122092101107066,0.14187198322973335,0.09384969937069097,-0.11639482114223396,0.2053602167895034,0.04047683372026967,-0.16372554079228036,0.015217968439979987,-0.2865012564007452,0.35999190649494694,-0.218988551570134,-0.058083721006075964,0.006770719301931932,-0.3613219225127297,0.20007543613622397,0.4073393584722629,0.04895367752209326,-0.5049403666507095,-0.5241145841724734,0.23604332570761946,0.1977815803582862,0.12399863314931471,0.09554349687364393,-0.03945014873335826,0.06351875378157479,-0.012905477944063931,-0.06791272674520112,-0.05421869980734118,-0.005285853344117859,-0.007479444280061939,-0.02425020388122348,-0.008368528013678928,-0.04822256259330465,-0.06789014036713922,-0.047389722148017094,-0.10509666083741762,-0.09976442244075742,-0.008910980500388561,0.03491447079149945,-0.02647954390530706,-0.1366405620218231,0.026740147388516374,-0.07558748485402428,-0.12624556896701855,-0.11444104159544136,0.13849121677586235,0.1445222957591042,-0.01492572236160787,-0.00533634496491281,0.00030523899752890604,-0.018428948268083688,0.07688157761421657,0.19336604939573085,-0.011480565812973915,0.013515589851610424,0.06408227975650854,-0.029821406887763968,-0.2232897707500642,0.011992822893212522,0.06503300928274308,-0.03151525220162877,0.09981302512482919,0.015943811634153995,0.08532243371264378,-0.011961906775314808,-0.12223632828375901
198.23394775390625,1.248504638671875,-0.12142812323130295,0.2887718875045089,-0.0004296914245032757,-0.19597366022237667,-0.09232099799346424,0.11285167839889773,0.18812732055797776,0.022297816858708394,-0.023920624552340015,-0.0324435359815762,0.1309816137242213,-0.002304031047882846,-0.07198867440972657,0.018248465162236525,0.08131163354051735,0.08341237311344109,-0.021206931380211656,-0.02873849503215026,0.013185624666553899,-0.03919541142551752,0.07239397972540662,-0.14685448476030996,-0.06769889834318643,0.052350764179018745,-0.06594741938978808,-0.010531144891000793,0.06704591172335435,-0.03201907803926524,0.05684791541748842,-0.005414938452646595,0.10961644611320487,-0.0037397602819052187,-0.1510913965645329,-0.09615568079062313,0.06919259055467496,0.20576385633745436,-0.03206618535383298,-0.34187177113222184,0.17777891994547432,0.1804179983855057,0.04978437638581415,-0.025125207871651956,-0.045320020832621405,-0.16291794050599545,0.17654876810911785,0.2376541470214363,-0.23680652003583896,-0.18684671860062974,-0.2769210585468139,-0.06216269578180333,-0.16465421376938896,-0.12857563381033893,0.25247699339961316,-0.31760024436462236,-0.12573772044254283,0.23668230548105215,-0.08970136750844218,0.0019531147074585732,-0.0514956009076624,-0.03497314670729012,-0.009090676863944732,-0.02650940874608291,0.09999256992860252,-0.01770914552672593,-0.09071315959961991,0.15553449878404912,-0.04993034695421347,-0.10172359176655865,0.03154664804105385,0.052049431900670684,-0.023504855736918576,0.14851653802251438,0.14036104173445718,-0.1024516008590667,0.07323651905350485,-0.10897417153396001,-0.11826754091737184,0.019076225278559802,0.07998846440457684,0.2328810258568936,-0.20305155563926366,-0.10072187169691009,0.00018588659750398348,-0.01496498108127288,0.07359444388134789,-0.032180378229446534,0.10055717697861263,-0.0849765046555805,-0.012582433391131367,-0.0007892170295079742,0.02251085392114663,0.05179750979728804,-0.012319754360700997,0.04489755457742483,0.13213018035039006,0.04640633680477618,0.07499957737334205,-0.052965287817385305,-0.0632510812895409,0.07552923786623572
199.48245239257812,1.27850341796875,0.22363626087582644,0.38542254632168077,0.016258270458551674,-0.058423995478987446,-0.13663867192665205,-0.22231778105428343,-0.04985435223541504,0.07522435453777625,0.023935044737789655,-0.06839485244667341,-0.06351968910611998,-0.041932247250378356,-0.034776254792517974,0.07172945699224335,-0.007234649425563588,0.10783573760221052,0.03727860126145191,-0.08847538677435744,-0.03732709352313647,-0.14793911314461405,-0.12931743942593057,0.0065543382077639205,0.024394789906553617,-0.03281164295050573,0.07960111604745103,-0.07713588464144905,-0.06110668945148824,0.07475046149578063,-0.03794876256626884,-0.06867429903599583,-0.18521929458772868,-0.07928094013514898,0.03879439329507192,-0.02610834619005553,0.04941569412917442,-0.12338707349414506,0.06850585748411017,0.07950105804183547,-0.008335901865819048,-0.10434043255417785,-0.06563580962149813,0.2499465109460407,-0.07915640794139661,-0.06272904208407112,-0.38306366699733646,0.0003347741552879816,-0.5084309615520207,-0.46804890331108234,0.018960017720727355,-0.3487882794338163,0.028139890449005278,-0.20480501350765198,-0.422795141351061,0.2917104618352816,-0.14318922207292614,-0.3126827050216026,-0.06806914433237282,-0.00835280318059936,-0.018589315455850363,0.08244875143955122,-0.07241439725887769,-0.035287439803922585,-0.034427525470219815,0.0498371391977123,0.007924906777933845,-0.03521521495638779,0.017099454589856913,0.21857226610680436,-0.020131408728638715,-0.08751177884914582,0.059920890330929164,0.0021509757220449822,-0.03527903316358807,-0.06477441968451121,0.011504828055269836,-0.13333000010398655,-0.1929267659233541,-0.10311022070471952,0.08002401279956207,-0.16096205700619,0.03441320565867606,-0.02234000283263865,0.0798861633260851,0.06200672343165607,-0.07775501250033284,-0.10356027323352322,0.01715349911093779,-0.02527835346755458,-0.12009034384170844,-0.13826860621388287,-0.008831556501364631,0.02025858900448353,-0.10619905569323017,-0.017887951829171928,0.028623678490473158,0.0637690402710097,-0.12179464024933512,0.16532618496306073,0.27259596823629095,-0.11867874732120753
200.76095581054688,1.6880950927734375,-0.13196418598347465,-0.08041236693151516,0.31556110306371177,-0.12335847902789968,-0.3022151278547088,-0.07418129270894572,-0.09493506103718743,-0.008409753263732405,-0.01958906306104999,0.08520315018384932,-0.03973596477500495,0.05887333711561868,-0.05993657864063137,0.06286806398919874,0.05834323497051465,0.22071616233716404,0.08100859609740861,-0.06486614671256999,0.10183047071893943,-0.12152589071550067,-0.022182022273115977,-0.03018059014048019,-0.14056598930928504,-0.04051802141719281,0.03425425754586353,-0.07221463578527482,-0.11723573116289945,-0.08912790877480584,0.0962318259392916,0.21598840090798607,-0.03842741367718512,0.021630408883820257,0.09262349776988622,-0.08556996347023706,-0.025515567975782635,-0.15952470739878774,0.1411904680284809,-0.03500387948384195,0.10886210176947393,0.1307161143622204,0.001785219098483476,-0.06971535346163947,-0.09547627468875598,-0.3413296728301317,0.06338746347708579,0.17601302581997444,0.10221654525192157,-0.039519106438266505,-0.015229710283879098,0.18174453074236083,-0.22551245498984093,-0.1407339952396677,-0.10660036171466127,0.015688221272464206,0.05168969193727943,-0.2715874445541196,-0.0459096795932193,0.16241044673572055,0.053931825356890964,-0.025881078635244855,0.02062572095936744,-0.0019959637331338153,-0.04398187944149544,-0.00897219384661579,-0.061920546003446916,-0.0430999939212036,-0.06311897439333101,0.15055270689190037,0.006022367485547174,0.028243561354476157,0.08259340129961878,0.15134408974810737,0.10403459722071771,0.01464853948006288,-0.18681286001338507,-0.10267555351854897,-0.12270785483846781,0.13469330835110602,-0.1502980648608902,-0.16765513656396788,-0.10463480418069543,-0.028825213566336428,-0.05472553490066111,0.15818217153991204,-0.015235404915850856,0.12900220547506516,-0.10131079013601924,0.029016321596903875,0.006941442235147082,0.020920568740025586,-0.05312620523871914,0.06317585790033756,0.0736654905743283,0.061682125187094414,-0.15432075933399655,0.06890727644486735,0.08408183144979944,-0.08467978770350286,-0.32515173859553964,-0.12826681840569282
206.41444396972656,1.248809814453125,-0.04935588383007834,0.25973659912017444,-0.03991411693579909,-0.16281996048688202,-0.07516409129631356,-0.022062427067742967,-0.013378266659846556,-0.18057323788498486,-0.08585803776719185,0.001494970841647937,-0.17236824535178963,0.01622647649867136,0.08185463278157838,0.07609016824121609,-0.04579231626822114,0.08122302081760771,-0.09069549668039842,-0.1091519235600333,0.10348321008385883,0.006422713336374772,-0.07526218619899024,0.056616385692727506,0.038760819941693496,0.1231269359646678,0.14657399362045298,0.13045047158650008,0.08878404558190024,0.12241975221484715,0.06996930371657753,0.06101355370174122,-0.054932889542931004,-0.061508814278932296,0.11440920996291977,0.024726695762706613,0.13623045514875742,-0.04792263540977479,-0.12046096664513331,-0.03596533297036135,0.3106735202992921,-0.011291625548320132,0.29722793913915624,0.16450814260952695,0.021905479873536943,0.0011708490824977325,0.18430484774095499,-0.1108444901569836,-0.17710425480328557,0.30064963241690906,-0.07397017242802081,-0.5024786911371291,-0.19151129426739938,-0.15226687305350708,0.23595944129028407,-0.13981263804187924,0.22979968582162294,0.6024575383395199,0.1273587225517828,0.15903334971938984,-0.015336505205734744,0.03695190054597208,-0.004527075950414905,0.06397656172378069,-0.01044028716966096,-0.009343812150064544,-0.05629868285176363,-0.017620217870090715,-0.06056478873355416,0.0015073194695972229,-0.05591717696785249,0.0231580897206951,-0.04081773903425035,-0.02502930947879873,0.06275082189448072,0.0566208198322153,-0.25547651174420233,-0.08852537575944859,-0.0005174659428321673,0.3158621494196006,0.11384337290757593,0.03965955317257344,0.05467749579015415,-0.018205566146165197,0.010240247952505721,0.04272523007664385,-0.0004136536795092472,-0.002926705395639582,0.051322852259762165,0.0011936439986103592,-0.183036896381402,-0.03450720584913536,-0.05223961059988075,-0.04011208544848152,0.15370850709741024,0.18966117705355243,0.01110777910904874,0.027642568188741303,0.04382108603547215,0.10861167149175455,-0.12808942040131518,-0.029647859620183542
207.6632537841797,1.2283935546875,0.10549069174872727,0.05808150943909978,0.3375049861033136,0.03456441099318589,-0.08448489426553463,-0.012105944106494876,0.03488676061333184,0.11509855983030473,0.09672917872699743,-0.11364226979040389,0.030331483419485522,-0.039024534551811006,0.07020415340924582,0.08216921573257518,-0.04143019198305008,0.015697368415847946,0.140266135331511,-0.052562194190049205,-0.060252746978052635,-0.0835319144635703,0.027632402335275127,-0.008308315406767085,0.25340047477657063,0.01064923380457819,-0.06200956140134128,0.07291466816800606,-0.00044930585464353356,-0.053159353326945345,0.039205875493489056,0.07421860369918379,0.10171633405648481,-0.05295294166360524,0.07101349884136644,0.02012562389245893,0.20466212043495147,0.3075550964472144,-0.06168453562700559,0.0056330955254216,-0.20063300652267305,0.07870250822009019,0.1635441743415573,0.21391145973594905,-0.10578398427951899,0.012982738444451837,-0.42019435687704376,0.10245460175243828,-0.3251114757419672,0.10899971076720488,0.3042316295647265,0.5865546342022385,0.2250895711368668,0.3137448246963642,0.05350633355137144,0.1723453960675905,-0.038017493131132216,-0.07838680223878122,-0.25839313204722425,-0.009884481518501825,0.0820963082193962,-0.008916141236612194,-0.011583414880670224,-0.001213718825287431,0.007813886339881202,0.04770036160849575,0.04260673310203992,-0.0801281790739057,-0.03367825886151249,0.07990819889662513,0.0074608223510310365,-0.020450481848640463,0.14297287381014193,0.08022489537339027,0.014900362302498728,-0.06706411759949589,0.12377467321856078,0.03208771798791573,0.019176834655420222,-0.12092213337132901,-0.07223754968801208,0.0062379479544032845,0.060814573213818834,-0.10569047238711392,-0.1300323116459069,0.030477327089501436,-0.06455918124784726,0.05754672496449012,0.026493460050995163,-0.03476262199328939,-0.06420042189970294,0.004746027373171688,0.1167371545406259,-0.01917746410291163,-0.02122000202905486,-0.0009934276751975505,0.039698704628025196,0.0686780993399288,-0.09305945467636746,-0.04086464197619083,0.07153182624696246,-0.11241392683461301
208.8916473388672,1.258697509765625,0.020033558481301478,-0.08244123143305294,0.08735414108934055,-0.015592567545456387,-0.15287153108191756,0.05289125006293989,0.017259699257093322,-0.09981850803453828,-0.01860963356346941,0.04177929032991024,0.0783781855336908,0.0013571261807109073,0.12604792843969836,0.08511882710100838,0.013627123163797302,0.08687865840347372,-0.17109519348471336,0.0065370028092999605,0.1492772281409067,0.022341349447109134,0.1543911099486988,-0.06454613340631628,0.0932449026437716,0.21026196550928247,-0.03952757138388279,-0.12366743293242634,-0.08683136805806543,-0.06150308030649976,0.03644439971965478,-0.11456826721422315,0.04025763157051237,0.2362024894944013,0.12396774298273272,0.170739996576562,-0.15159986964819377,-0.10115766960824739,-0.2513639104042491,-0.010436907383619243,0.1198587633742676,-0.24722222123309265,-0.050173948162705845,-0.028122554109263027,-0.21159838736784536,-0.0901871501779642,0.1800407165799815,-0.03052253975335328,0.1316869268785669,0.09602577975922831,0.1888151853687483,0.08577105470451139,0.040714158299373665,0.23911720318158744,-0.7853523446813463,-0.03987424091357827,-0.02291995144087139,0.06554971794512424,0.14809531801964654,0.046663603478550225,0.026033606778507176,-0.026998635969096713,0.075235808903515,-0.018588167669399327,0.0016120390752502704,0.01988549226261269,-0.07571495287874214,-0.0903366278279744,0.03441617447405733,-0.036361762317414593,-0.12173438091414616,-0.0760390594186129,-0.10558547904529454,0.04961556913005208,0.17507762953140568,-0.12580806237035644,-0.03748810919939098,-0.3119853843992641,-0.1003280871808125,0.0673598176684019,-0.1562084099772385,-0.06876408479698638,0.00813897263437879,0.07962710337037689,-0.005917357562089581,0.0012995226937315535,-0.029597701366071344,0.15121474168620905,0.01824522792714065,0.007840302673415865,-0.11392534243894642,0.008399493052006666,0.09218900164547462,0.09609775222362969,-0.10063544103915928,0.05935142907119849,0.25384648145625544,-0.07457284260343108,-0.045461144444037295,-0.0617296065393572,0.034944246868824046,-0.008217316624421279
210.1503448486328,1.2884063720703125,-0.006786249485772526,0.13972660785652158,-0.4932191709683428,-0.07462507894226332,-0.019590433877183983,0.03722038801284014,-0.03957271885978212,0.04922808831593347,-0.053681858185715414,0.13298550694363717,0.04930514147020726,0.10490977787576972,-0.039796072779584815,-0.07405901591276756,-0.038497868367977424,-0.11924880383896172,-0.06423012572509426,0.2314922183884695,-0.11827871522085869,-0.5060449436586864,-0.22168413019948494,-0.04090109387630515,0.17402974000683985,-0.1373406978276812,-0.09945384188815251,-0.3357715828176349,0.09672561529719004,0.1295063358773096,0.018297569307314715,0.12756346028967455,0.03940510886498234,0.09926540400045405,-0.005321882479931905,0.04899664479653759,-0.38873265452850503,-0.0885801209050457,-0.37003537285830757,-0.2056948389284194,0.0201983124775023,-0.057121675662293876,-0.1830064002548305,-0.26950312003113547,-0.08049057674287285,-0.18171928326646736,-0.5788554880591226,-0.0722069189906848,0.2442366263548831,0.16301421291267787,0.04930099362811037,-0.0018656823249371818,-0.31007353255192727,-0.13009766085379074,-0.022227289420507494,0.09733854992547865,0.2545318504064853,0.16292554716127755,0.11445994689341708,-0.005538970589113408,0.007264828692680717,0.05568207649363599,-0.040041221428024604,0.0554833276488447,-0.0015379049351195073,0.034579914995007344,-0.005074145293829018,0.026606596937303318,-0.013751868854607528,-0.00825868248750415,0.07234766340197925,0.14372415684842674,-0.10093910352845908,-0.13231576261775993,-0.06383914441586458,-0.09398894172696763,-0.16751565358840192,0.18080128028541237,0.2535150715212934,-0.057714586314514704,0.25872596978615886,0.15340669930708914,0.1492967999379037,-0.19023095883764135,-0.06819926802151019,0.13122507513178414,0.07999955643767617,0.044719733574004716,0.04483033044017842,0.054889425555270765,0.062830536941653,0.08570032217743222,-0.042827640008716125,-0.06268851876557827,-0.04420381507806461,-0.04050867617930275,-0.009891940684799448,0.09016527500011001,-0.0526639350165915,0.022039432003137946,-0.084353621684302,-0.03473874466578715
211.43875122070312,2.7570037841796875,-0.02986644923321436,-0.15318118315916665,0.030040158767548703,-0.06770755150502929,-0.2290014717627481,-0.13920508747056687,0.04186084925649695,0.018254958662962072,-0.07680482594623647,0.2944006987883866,0.06387023395558555,-0.10050877973868984,0.1357045063824554,-0.014646278819012733,0.07575098041936029,0.001237364364177591,-0.060103159722177814,-0.04011908544356919,-0.095073271601489,-0.1887000020769073,0.21730591639229235,-0.1302226731662922,-0.43153324960617223,0.038346725006081536,-0.00872521099122632,-0.026452559157355206,-0.21780316813681647,-0.25460984958462046,-0.13455099902925677,0.06408423142237916,0.04801931307258471,-0.028262568684570166,0.10242714446627227,0.04787369188456797,-0.002904528405160093,-0.003886869955551873,-0.045802334181906254,-0.05350664912404005,-0.10600216418438282,0.24532766575064197,0.013420508469752984,0.11270867709830915,0.07162798042628855,0.07759208138456435,-0.043506669677169874,0.2090789118921808,0.15915824519495175,-0.13142137168244894,0.2780462487983234,0.012513807801581237,-0.2573563561523457,-0.12443671653222518,-0.0474581216875818,0.11594211286273463,-0.014408075646485968,-0.02231315780642666,0.0831867379702368,-0.03555189731205506,0.039294429821091006,-0.006454010708788078,0.012041190373224663,-0.002290638078153779,-0.06368384000978301,0.018075133365500984,0.008915991971314263,-0.09038103057089457,0.1183903181292208,0.10841853442834201,-0.03721319270535531,-0.05279735454567758,0.1424851516424651,0.12592934336700395,0.0747975021188678,0.09399517274748236,-0.02540828798977156,-0.013939703384701746,-0.07075403264020566,0.2319431958048278,0.0197332510952381,-0.01930982997979707,0.14869578121915963,0.11200677227371866,0.05085107538439597,-0.054267386968115054,0.02447137828910814,0.08188970671294298,-0.06906498961165236,-0.07519226530910621,0.0039757083183726465,-0.0657828114851166,-0.012105992621698028,0.04213887750295119,0.051597245955851204,0.09328993780779851,-0.22259247061671308,0.14314079214235595,-0.014939442914250511,-0.035108178729526505,-0.07387798781819112,-0.03267362276797589
216.7522430419922,1.2288055419921875,-0.1250468973601463,0.34750137147153815,0.34516421280139503,0.18604622116444688,0.35112245601191816,0.07288372645750746,-0.03760008735018543,0.05596630250016246,0.04840981131769531,0.04530285210129975,0.0366516894551034,0.15331237363019634,-0.023421288099149257,-0.1623221186949843,0.2969347476467592,-0.023441138365526124,-0.05801805904495365,0.021043724732081832,0.017997655424704093,0.24350236764099278,0.11178581767216583,0.17826139570217436,0.07176049830422106,0.10196618182599262,0.07050614050199042,0.030623929324955723,-0.04792803903531445,0.021725329789698218,0.011780744503541168,-0.13632162931463046,-0.03166278105584658,0.0907586997671305,-0.009399745728533493,-0.007511522680446737,0.17164698585537594,0.08467470862178758,-0.19323135016540913,0.22933165567429414,-0.10934330103835449,-0.03140679712003833,-0.06770193089680511,-0.18030060530805522,0.1451441639847703,-0.5309474874936997,-0.1408513903217627,-0.10409189525435919,-0.10585703771617455,0.04518573023302182,-0.1118293585129774,-0.26273112969990614,-0.5290821101910305,0.06936684337423911,-0.10807944203269035,-0.483602405494038,-0.1213473193881456,0.031228756447810428,-0.02761880803418099,-0.03193231272056053,-0.009272905138691712,-0.06918372577032379,2.784514169287315e-05,-0.10604070201457455,-0.050547816564135345,0.0186285651160985,0.08358119266121564,0.003669191324514652,0.10165041367915317,0.07392681730427168,0.24512777192567065,0.09402769380527683,-0.029229944695481496,0.0002485293197059983,-0.08485268227477284,-0.06793164030823087,0.06169301726823445,0.04188142162534847,-0.19604996955529347,-0.10361052498439056,0.05790390613065043,-0.0870233089342376,0.032874786436214706,-0.10663764354025176,-0.10197552378274163,0.05068862449990732,0.09494474653132902,-0.06535665219425703,0.07362451534110206,0.13541305880850898,-0.03189718013318312,0.013824628664635737,-0.030011393747974943,-0.10962586300295556,-0.07082638755570127,0.03231298630651811,-0.05571672924708349,-0.043682409054892304,-0.05888728216817637,0.23581426163582148,-0.08954501364894214,0.019612050139521983
217.98104858398438,1.2187957763671875,0.013864956720286245,0.015607044768503725,0.020938909019075712,-0.13327032522842697,0.1875070590239816,-0.11921208201517265,-0.2535499254494537,-0.11254599263331863,-0.004126532972227481,0.10717485397701688,0.16234758991203965,0.1145088930751867,-0.257847262874307,0.01262191146919259,0.1681492194517397,0.0704886296176357,-0.20337945781897446,0.103533473604769,0.11850110889008898,0.30547736790526847,0.09613539726537844,-0.5598850893002065,-0.11480415509058922,-0.02775547870936614,0.10023195590433182,0.07074210548555229,-0.020556356659561896,-0.004856151643769201,0.07908857178903196,0.09877345840416904,-0.14119318068714923,-0.013294777538524274,-0.06142150885276835,0.02490640579568947,-0.024404310040584187,-0.1344508346700028,0.1865192779649304,0.01191600909006448,0.0021926817041384786,0.015191172167690677,0.10499423485822705,-0.0821927163801375,0.13713487776056008,-0.12142649196699017,-0.19730239041319492,0.06781960741789331,-0.22980621933030249,0.02192040022108303,-0.25488571008778904,-0.18854306342137805,0.7319920647765707,0.09372381356442834,-0.5497541588624768,0.17182668074446178,0.4520740700029975,-0.4012531029498618,-0.3180110918054446,0.49944251604003514,0.09508718953116438,-0.14120504544899648,-0.006098941128998878,-0.003129975368953704,0.07696199335708548,0.05951377227871878,-0.00627183280341699,0.015430112596794937,-0.11915831010495989,-0.06050302684512383,-0.09303006379529483,-0.13157983958137537,0.013319551904872641,0.1685501402298962,0.08377401744399599,-0.02153674369536228,0.15837836664672642,-0.006199609359865639,0.013273896833600515,0.08320388073961357,-0.06555555535214475,-0.18494260577356614,-0.0474448708081308,0.1253962229674294,0.014658303566010883,0.07437356026069245,0.0792856493711361,0.39741334093400876,-0.027568217957700137,0.09997288807000987,0.031721214081103864,-0.01862789513997888,0.047966208068029724,0.03127896369239884,0.09430055775054977,0.005628250393650898,-0.1199522956230954,0.03985702021463347,-0.018689964072404978,0.17153886758164522,0.4996407656880231,0.07298977927738501
219.19984436035156,1.2487030029296875,0.07299229897163755,-0.20986374393174514,0.2645754444109951,0.14302443288714164,-0.01844487641577042,-0.13748249414093164,-0.019754538625098926,-0.22715149583044542,-0.0686952093157921,-0.023823780593709716,0.024211490061808415,-0.02575659371495624,-0.07902496806180348,0.03763286940098897,0.040692656566429466,0.08142762042448164,0.5204917480569387,0.1627661632595752,0.39453429501355164,0.15926052342636157,-0.030657158333396113,0.022818340336718795,0.16696067073058526,0.19695056568342734,0.027916520777566716,0.19154124198494488,-0.013176989861921923,0.040091308106686194,-0.04505667183085615,-0.12858410613197388,0.14293564813087864,-0.029835125016249332,0.133883588692835,0.0466592926088913,-0.09898411329334487,0.09263689438321962,0.17233289846279315,0.10328347016384917,0.11623591444415371,-0.1139004549484471,-0.18673127453836771,-0.049827545715868574,0.34097762937686243,0.1560493898364351,-0.12986200851946403,-0.3648028835680731,-0.0842292557734115,-0.21668034813059986,-0.9847616623561688,-0.5930873879716959,-0.19733985198354365,-0.9282319158935024,-1.3210329756256036,-0.04758059588484895,0.07128067552792167,0.15152581841372045,0.5238730982051084,0.04640193952464189,-0.10454998108480067,-0.04119356788438677,-0.021180713381485076,0.07639285030785631,-0.0073633088851962685,-0.011652383996068863,-0.07165651319719159,-0.026619674576956277,0.09199666965727422,0.0022436280764563357,-0.1742127700147888,0.05701435900927918,0.1028078726150418,-0.06350542307284587,-0.013073298693569838,0.12429988720543313,-0.006747869998868793,-0.01756378480242726,-0.1301935229505735,0.08411624047202179,-0.23043348587026197,0.05546281388560011,-0.013517176371990037,-0.08608792049453672,0.0367010047169924,0.039739682192778784,0.020805811853499362,0.07088833092445082,0.05291742267806933,-0.021849531813923337,0.07321958660591864,-0.02223486241534377,0.12764761776833905,-0.0763987747949499,0.03302556744953607,-0.013240103542699277,0.01208452126394607,-0.04082006738630205,-0.012169491937997122,0.15626245533922345,-0.036798582655242766,0.0591454317731403
220.44854736328125,1.25830078125,0.05788463368419556,-0.16533596531428071,-0.3037256099276848,0.15405847451221064,0.31629820062219605,0.04126939722913672,0.09168732903064866,0.18938864621132998,0.016052590661369635,-0.07494044518579573,-0.16173326593230397,0.026820215652476442,-0.07228649790077533,-0.0503883670511491,-0.011195412598753174,0.11985391601750504,-0.24519226149534906,-0.1835467243554458,0.11947577953414334,0.005277151334150177,-0.008708405996151806,-0.09492119506672177,-0.06655276378331984,0.006114154727570091,-0.08401386807988334,-0.0330753208876622,0.24529546222991547,0.00459007063987646,0.2570257593558931,0.09343403917108362,0.05046886573026696,-0.04846859517536587,0.07080516747596476,0.3308073335757632,0.06506577527027352,0.1748617766550071,0.1844147985297763,-0.009288607244435185,-0.16468060211196717,0.1448103782936026,-0.16925333959073854,-0.1562555886264459,-0.43936056046122696,-0.06281794211704039,0.34233538214377673,0.2009884031578734,-0.18798851757614746,0.11428914185672111,-0.5488140065363348,1.1918636674136218,0.17381089550740916,0.20294489204075045,-0.2935184181466641,-0.3947250505771949,0.16770639393825723,0.0412236590731463,-0.0024862030902703075,0.04305634694419409,-0.022303395153276027,-0.05085255644519179,0.014191322890352243,-0.0975072333593813,-0.06034899988846793,0.04964344576227708,0.09290166576416736,-0.01704717193563661,-0.020277942331852067,0.01646311443479863,0.008303916362281179,-0.07921525903155535,0.05528348336763604,-0.055193432638765125,-0.04324159732742776,0.3575001556503637,0.26889450372335433,0.06470232885116561,0.05720441915494321,0.28020267883764766,-0.09381411421003784,0.04731115341641577,-0.04421822740334932,0.001230061723014264,0.06581605795146696,-0.13206906954527983,0.060557290364080855,0.15198344590444637,0.06059606090978836,0.10701355297589882,-0.1220271103608112,-0.03402967203569336,0.02632594254259825,-0.02864374554063876,-0.029745353252358792,0.14311354014762728,0.014175019511474766,-0.0171478654308323,0.0005952110765395261,0.008503866335520013,0.10861312205738777,0.1149514751761021
221.70684814453125,1.5782012939453125,0.10965543117437453,-0.12476335839582343,0.05816804509747541,0.2750149504218893,0.09859150763051037,0.0007251483187159374,0.08458112999163934,0.0658202552523417,0.0675515399394441,0.018588978480096382,0.1588197403728892,-0.02116964969172778,0.06486370164725572,-0.020441811934213957,-0.00502123355911028,0.15068328210377765,0.002139617761088239,-0.039977878124266994,0.02855680978770586,-0.23982612460663785,-0.07565049820986892,-0.026406485158977044,0.00611569507091515,-0.11031747797655415,-0.049804482152552586,0.07194164225075952,0.01728817449144399,0.13968904035959287,-0.0411507586343894,0.08744873444588276,-0.1805229311826398,-0.1037295439648905,0.05495102205067259,-0.06437810654876516,-0.130128583052848,0.0494945274185724,-0.18354233857359425,0.0893259703906721,0.10693975268361046,0.1714829351300458,-0.30769297778834637,-0.29465183843985854,-0.006958834651107867,0.0030294684728222757,-0.13731296441463056,0.35948798591473563,-0.47997126345007196,-0.010204787755456229,-0.38130875591070384,-0.19330091370261215,-0.1758812362010077,0.17257026002929488,0.03310366144789051,0.2015548881541774,-0.013611307672146146,0.026481087688127868,0.1572458921911788,-0.0985181934748586,0.003161949857640814,0.01042922418229432,0.007578951392045423,0.009334381633956779,0.005323176062406436,-0.022057510707871642,-0.023544620355187125,-0.008357369302711155,0.08599652673513668,0.08482977966988495,-0.039918173213354495,0.03601881430265194,0.09662001827960122,-0.026425204976471987,0.056230944171456396,0.1502259281150681,0.221029278727358,0.0647243127764234,0.14463581897445774,-0.08545230324029894,-0.035688790976903105,-0.0004802746604242736,0.051870926115191895,0.03200929183816944,0.07063804551448247,0.013527440061054968,0.003809328936926504,-0.007387307214547846,-0.054557802188358435,-0.188250022606995,-0.026231139226408413,-0.11639401388100706,0.0040589445268451214,-0.001934024506726858,-0.0721316216419397,-0.0970140680374885,0.018456811987366928,0.08656881789791046,0.022715388521274287,0.01920982140356953,0.02222968961265244,-0.0994772026161235
227.13075256347656,1.22869873046875,0.011137624181204593,-0.12720398759361698,-0.15147943961991078,0.3638695607775796,0.04288622567520378,-0.053948370235503834,0.007661998593427733,0.02712439584127037,-0.021239303119575025,0.17820311453161478,0.06417439236290803,-0.06948762487694263,-0.1376652447056742,-0.080687655049985,0.00020503964121273976,0.0777378206391044,0.04921674537852582,-0.3105600051246923,0.00527992890770862,-0.07919148426804777,-0.014096087298735375,0.04214336171413216,-0.07735177519426611,0.10173472599567028,0.04903770528085692,-0.11752231088489819,-0.11905262919025361,-0.043017816678373615,-0.04299653246502758,0.05554079926683677,0.005842148227752544,-0.12890637271099517,-0.013969087126675578,0.03311116128478802,-0.009425373537863189,-0.027946005118801437,0.009155555321789216,-0.15157904759541976,0.16711657490545412,0.11684352802492422,-0.08940448270184559,-0.0064334061480305765,-0.029892736115650177,-0.10930443410087524,-0.04446062310999573,-0.13154259372394814,-0.4401149774781984,-0.0015834231786627656,0.14928474180056905,-0.3645444713281629,-0.32805403430017777,-0.11427111875552057,0.3164135845933813,0.2538114945327572,-0.6040896349111566,0.10229379129001571,0.17586953705725528,-0.03698670732652931,-0.0056932570601499494,-0.018093903841615567,-0.002823050406248446,-0.0041028039634523755,0.035522329313983816,-0.03568700119236095,-0.01654338782190039,0.05769020605736754,-0.05400424750675821,0.033833190750047426,0.014990804982225759,0.007496545010477258,0.0004291993970975158,0.08872375829783971,0.009140793954694115,-0.061223141378238706,-0.047698187973275005,-0.12824537754401213,0.04840982091793822,0.11581748528488647,0.05789580862262603,0.009138566110065591,-0.24871364939002832,0.23191968880756803,-0.056264161457828775,0.08912143571060085,0.01880978817289968,0.06087034083761674,0.1524978476158988,0.07349344374905296,0.02950271947278194,0.1276674530311901,-0.08222537251919987,-0.039000997600408926,-0.04454262366356002,-0.00576369896294858,-0.0032780106313754134,-0.24683713963679302,-0.12752611596289293,0.10939169229951899,-0.03327088029144501,0.023907751371583394
228.3594512939453,1.2086029052734375,0.013718270360185136,0.10847639173400836,-0.09708617197355883,0.33235513734636096,0.29356009734540317,0.0010832656042765168,-0.14547347067976887,0.08282960242409836,0.2727555166172443,0.13712296809847632,-0.0881277418994799,-0.08589574077766217,-0.0025965850726524242,0.08163136444761379,-0.042762785882571305,0.009641374706651742,0.07943808506727591,-0.1496666876942979,-0.08489925644771461,-0.0524019137407795,-0.1483379229270125,-0.0926825552031683,-0.03222899268493247,-0.016638792018074278,-0.02998057187829581,0.07383467235814953,-0.03856531037161282,-0.04349016893853771,-0.14438421086482817,0.05125444786709492,0.2247579400074382,0.06521520800967975,0.08300754771261429,-0.0073161622427673255,0.021874073004601008,0.07809698534720441,-0.11931950424183257,-0.19999710728300032,0.09448179748215027,0.18855473699229017,0.6392828593801441,0.3828413215799782,0.11842188433546671,-0.16858375456965566,0.003887951470094228,-0.04673271405558499,-0.40056719716408234,0.101371495443752,-0.11737274798254063,-0.14613486099745998,0.39271758611179,-0.09818921772560006,0.5175618484880743,-0.22882407931130777,-0.2983498768550187,-0.032493460632304065,0.1512690479237501,-0.006040227710535501,0.0704426508855909,0.03692858240113273,0.014036508998787313,0.005960701057293602,0.00786667763316103,0.03168305882626884,-0.022017352662562245,-0.0072362485153777065,0.02359253493664861,0.07343231409396464,-0.006563094556827909,0.05519686665331553,0.008268798937928541,-0.028400105249374856,0.022896209868149282,-0.08032834308029817,0.0036291612850804147,0.06926737439059612,0.08722449184342154,0.09662575117093194,0.11431553534753426,-0.013526570111496872,-0.026827673209864053,-0.08217130763030935,0.0468374968737399,0.15441122045325154,-0.13060774356940752,-0.13736733804055423,-0.002402977703218437,0.1492533010118798,0.07307898850009441,-0.05282089445569704,-0.14970406902820046,-0.1291779249085829,-0.023879609091071067,-0.06241924365114315,0.0052724756864063055,-0.2223363612076356,-0.09868780995515279,-0.05350844709322254,0.02194861263538116,0.25218851552908544
229.56805419921875,1.2585906982421875,0.40986455552494494,0.3130635744756885,0.003747691694310093,0.051665024413536306,-0.12658501197536914,-0.1682509368780263,0.19899477249177164,0.014189183169419979,-0.02618592202804565,-0.017313239596189155,0.027454899016933255,-0.03567470908367177,0.07902620408511556,-0.04927402582516616,0.2161268701720765,0.04100288783641644,0.1533274686815142,0.13333878763264367,0.06419921982302193,-0.11699338174980574,0.017704000819194758,-0.05593660571530525,-0.025943371581345513,-0.17789177007493268,-0.12449950184817277,0.016897678634615998,-0.060262883119298845,-0.013078060142456311,-0.07520138704676613,-0.06877609145764221,-0.07456573264524652,-0.051547828191115114,0.06592273801760405,0.10359095775055358,-0.13116622686988127,-0.14790609349648934,-0.0036716001537958854,-0.03487162524704882,-0.05913457527889438,0.0053701256058710095,0.14754452639907592,0.047920761874059824,0.21001206563049418,0.22445594892019244,-0.032051990691921155,-0.017502081610577494,0.5304003010890691,0.15696494884916878,0.7843483999201978,0.3425892394214175,0.13626666309560875,-0.1774420433379427,-0.03352999062412469,-0.25531551327905694,0.2669132298276233,0.11893689621670239,0.06488644670339218,0.021327725131643924,0.025317274811138293,0.003215729002405087,-0.046805313932711,-0.021464705721507903,-0.014259611810731519,0.033059697141790544,-0.19672912487706185,0.052648104172841007,-0.0033021442042801136,-0.21406876308919215,-0.03939369584030153,0.09388867868922242,0.03135820453957256,-0.10559198013226084,0.04448433024418346,0.02996473074787432,0.019982776108839445,-0.14580789706858532,-0.02114641726414674,-0.011895880737572813,0.10356720405388398,0.09523746412295986,-0.11670669498005048,-0.013434446908926284,0.036581924381616414,-0.001433054592622238,-0.0741490620640327,0.2462955825172348,-0.014347387235623243,0.23238028415854006,0.05267282707599036,0.0034279239002353366,0.040177369025474474,0.024086400197147136,0.09635689976845907,-0.04934674642467587,-0.19633810441065047,-0.133965416716559,0.04407734187024033,0.019049715627426436,0.016513778480991927,0.26723304764377886
