start,duration,0,1,2,3,4,5,6,7,8,9,10,11,12,13,14,15,16,17,18,19,20,21,22,23,24,25,26,27,28,29,30,31,32,33,34,35,36,37,38,39,40,41,42,43,44,45,46,47,48,49,50,51,52,53,54,55,56,57,58,59,60,61,62,63,64,65,66,67,68,69,70,71,72,73,74,75,76,77,78,79,80,81,82,83,84,85,86,87,88,89,90,91,92,93,94,95,96,97,98,99
73.8947525024414,1.0286941528320312,0.10664051920025014,0.01804326818363961,0.010910130349299696,-0.012082669584218685,-0.029557701008156963,0.07954296982028321,0.015802221813087342,0.04863337873408039,0.09774347543689153,0.026440323441662493,0.0095982458982095,-0.07112681292735012,-0.026950597595054103,0.06155150605490593,-0.05129910492746057,-0.024861964074588697,-0.11985023081832535,0.029160987584911372,-0.031850027947487314,0.03389482577642092,-0.35525986598526293,-0.06614972452082182,-0.0052318508915839,0.02874305293505583,0.38229305636335564,0.3583484000772259,0.28121296400043777,-0.5967660732177235,-0.23335228992773696,-0.10887398542953151,-0.14374420343730832,0.07233615173529206,-0.2840464319538146,0.07951314528166475,0.03048360460408925,0.19395836246242493,0.04595015099644706,0.30690067737230914,0.019539387867178872,-0.16984374549526673,0.06046965232955028,0.052440683322252574,0.062453006614160374,0.1984189202614275,-0.18670870638825468,0.010484501957192693,0.09042309897417318,0.11577134689435795,0.04551781788964276,-0.1385079960309633,-0.000265925356989544,-0.018535245828812705,-0.015028190384031498,-0.1587912409717027,-0.002404739778531239,0.04949792455887226,-0.017900966041135665,-0.07038893019982695,0.04179794795072837,0.004911276289060775,-0.03481363253045889,0.0678354826558514,-0.05533228794901592,-0.02561731851127002,0.02846519616335492,0.02344985463176482,0.03634470224716077,-0.011765027483936806,0.03575896728621181,-0.13341633293149377,0.03542087009755878,-0.06145032235045895,0.02565815968468532,0.047576905562189326,0.08577820847538468,0.11280199826522555,0.05587607857751644,-0.07936862109324617,0.08100367508652404,0.04380275649484294,-0.023928890287217296,-0.025086366783115342,-0.05301494086145501,-0.0203403034237381,0.02799778058753241,-0.01487679314691252,-0.01628464501301756,0.07197339585143556,0.029043683705037848,0.0662175121766709,0.12367129134256011,0.058118789002147626,-0.04164554702194871,-0.027998831932049655,-0.013812432688270232,0.05632805497489147,-0.029735126985416343,-0.09326713674446267,0.01622874758734754,-0.06424006258782357
74.92344665527344,1.04840087890625,0.07081823227130823,-0.006122782556019576,-0.06125976726326449,-0.08778991943279932,-0.14805166644342338,-0.035299469070478304,0.01894620137337609,-0.14601283880748497,0.023115404829710338,-0.0028141401207693014,0.09169647196499087,0.05716524280961657,0.18776955534968415,0.1354617567836558,0.14017166506749226,0.322098087900769,-0.20461125129957677,-0.02372116155269002,-0.026764064326888055,0.03331312031252229,-0.08041594275093475,-0.07405463967256291,-0.43351799170768895,-0.2749890647258567,-0.11537228895560687,-0.1889076842084065,-0.18085709765947666,-0.048262155335549936,-0.30938969442471004,-0.14849151281511094,-0.2623392907875971,-0.39203627791023965,-0.20334581683228614,-0.21781947649262118,0.08480256592568629,0.22314240597099705,-0.16330963720584385,-0.3307615891274872,-0.38899092398341417,-0.04531315616750844,-0.2998972393924276,-0.08357135770694057,-0.18694719914913066,-0.6126731445019875,-0.14792143543172265,-0.25842805992069273,0.05117000917190653,0.31102981922976514,0.06092823351602146,-0.09733320134675597,0.13098660808654333,-0.054964605661368286,0.0853750376828002,-0.005110761626610145,-0.001415438177110217,0.014382532301556328,0.054634479664463886,-0.03838030412309456,-0.024394845183211618,-0.028913706387700945,0.06498816010617464,-0.01985079916039785,-0.045158506760581044,0.03728586235538669,-0.014025497825776355,-0.013460028457779964,0.0455171073687634,-0.017216992221078472,0.07982063249948976,-0.053564341239739,-0.022029705964969275,-0.004703936444453513,-0.06333958346133133,-0.09562150218204543,-0.04061441532135909,-0.03992930275257798,-0.019874986781146256,-0.011957978433201143,0.017671614877982224,0.036037932151576975,0.009859575955440856,-0.02444831470266406,0.02431734117390256,0.02684493242501198,-0.030117045033344714,0.07438406618998383,0.0575738570652464,0.07553258048820377,0.03250876813780484,0.05919487582061671,-0.03250043031571688,0.06079061351483246,-0.008299143218216436,0.05852856341465182,0.022508584073989424,0.038561462494887046,-0.022835106285997497,-0.020187071948063677,-0.0813881186026208,-0.12674000527714843
75.97184753417969,1.0492019653320312,-0.11677401631498911,0.0007202856319224703,-0.08085490035289708,0.26086607774379283,0.06468078095444996,-0.15251553447554422,0.04907554423153414,0.22802086053852297,0.2323490071027267,0.14076285078404233,-0.1647631156477792,-0.6547775993259728,-0.12436905371509471,-0.13697934785015867,-0.5256419697763863,0.051881028742255586,0.1358688834678609,0.007906769844439665,0.03941328491500955,-0.12783203960302017,0.24410945468296674,0.20263049135522943,-0.09346990482019875,0.2828031944804081,0.32024539488484655,-0.004173535379434988,-0.13719369556417538,0.20456247958343693,-0.0657633401094461,-0.16650849985651278,-0.2134894032134466,0.050995855141489584,0.21995898300772307,-0.35712384830747,0.1883905050181867,0.1551582663621267,0.3719522994641562,0.6683477068216929,0.10055920490218756,-0.31524025562243607,-0.01992466289796645,0.14378740241641533,0.30200051568872954,-0.17451060987177883,-0.28082173672848476,0.2907605234845927,-0.0736675854381518,-0.11774233289435611,0.009972867942426168,-0.005092117442150393,0.1632218129019575,0.0673485324918514,0.01685374155281695,0.10712240182971394,0.05974179000647202,-0.0008992928494592515,-0.003277030037374275,0.02937824566441276,-0.08395700383745422,-0.03508435253259952,0.015724665079143614,-0.05553946670102283,0.006186053769112083,-0.027394869767207647,0.015830256072904343,-0.04484578651610314,-0.10078179609025494,0.028190441413456446,-0.020658738566450133,-0.01184896416405759,-0.0035934985254225957,-0.02960754264658524,0.07504849250588785,-0.0837982928268132,-0.00015449617166566482,0.037431823928144724,-0.0371017447853105,-0.0068883970106118604,-0.001116511508726395,0.022052104212177168,0.041265431047367,0.0723832155437154,-0.034832645384980356,-0.04949672439717811,0.06743705879123651,0.008921281026338818,-0.07168176458835489,0.016964986485638135,0.06031503808835389,-0.10160391491482952,-0.06671520084524515,0.0065407260369872286,-0.011493931568629653,0.024723818067605957,-0.11746082506721736,0.008081484267791338,0.019787963117252644,-0.004975697882650192,0.11953961027186705,-0.009254231418341963
77.02104949951172,0.9590988159179688,-0.0044986921722499525,0.04466148021586823,0.007935023084653783,0.017832411682117157,-0.050546411616687326,0.11580194783669875,0.003468579812956892,-0.028483809955265796,0.1614289757723393,-0.04426925964155188,-0.10771377946232802,-0.5772153381466236,-0.07305840477686137,0.42514736311806056,-0.42195487636493667,0.0240347527196923,0.015996168042056808,-0.5993528337048598,0.20487533885020845,0.7383581876153869,0.3590480817657372,0.6724122494686868,-0.21025706755058327,0.05745574861794413,-0.24904353363694862,-0.057145406850076616,0.31534983800927274,-0.42326514736523363,0.23163225903340612,-0.09552191875370739,-0.15567551426184212,0.3324988767917857,-0.062113811578062436,0.2153075862433176,-0.1871135826137906,0.21422939410383252,-0.09315088751669315,-0.16351885885232337,-0.045435317849187695,-0.24487393158198384,0.3834226783625053,0.31952066543996765,0.019129532837605313,0.17695978282469846,-0.1318825474032561,-0.08253135440198472,-0.27443724572137973,-0.03308351580703475,0.1091121220237388,0.18389971720693685,-0.07113516632674019,-0.09529701866701389,-0.10923487663435437,-0.016706731988125376,-0.03364212267143088,-0.01585240339590363,-0.07318033420310655,0.012633169985672044,0.06403322381196216,-0.021396366882356355,-0.02326623872480344,0.02839599437685494,-0.006775287044378081,0.04288109475788349,0.07455541030718897,-0.06589106886222386,0.03215082329135549,0.061646120087542465,0.0044125210876502724,0.10182652016798814,0.01907042525943129,-0.010059537405748034,-0.0013759547052260884,0.028455957138974156,0.0836217748629845,-0.09333202046445505,0.07412303014932067,-0.023825354558229612,-0.007063123922459829,-0.021759915845739924,0.02427690169589943,0.04480460557590321,-0.09844962990429179,0.014840754694014347,0.020450113057030796,0.003571802531859085,0.006157895626500466,0.03433753444839602,-0.08225903900183892,-0.07625580748188428,-0.009551561706016743,-0.003477092722257175,-0.08650212442821067,0.004242186980307323,-0.025017458229639036,-0.005754539589015645,-0.08930942311425305,0.03450287600572258,0.010759010592181322,0.02659564674542135
82.15544891357422,1.0685043334960938,0.022723478491907118,-0.036983880240912675,0.011056908602192246,0.015584887764975588,-0.0553749123945364,0.0052448159278163705,0.0824152523599711,0.02246837579093694,-0.019536225001957966,-0.03298191007861491,-0.028450591491953572,0.14965709364236335,-0.09197418388961909,0.1338003452478591,-0.3730468783131712,0.08928343727253002,0.24806522448354665,-0.04655342132515994,0.14358348747156768,-0.021513329240371276,-0.02259028037653666,0.14752354539347493,0.4790465020042077,-0.6005502259079899,-0.18296305989986067,0.10503547718556384,-0.25257773703604186,0.039004557651073385,0.159851673143342,0.1963807046579461,-0.2018816362806053,-0.30979665871817946,0.26766226031056684,-0.21543051578119318,0.06841877212439126,0.05955483592008545,0.3677278221301231,0.30975355007902033,0.15775690480052781,0.09873312029927103,-0.04365074612386735,-0.09163456958360133,-0.1317997726345378,-0.3326970321171052,0.17713002143733741,-0.04162096237070295,0.008701959486467525,-0.20166644306426587,-0.042208395832433715,-0.05822905348169885,-0.30517469931808394,0.004692888110813305,-0.38941768934409227,-0.07019942384351015,0.04648290127278578,-0.0006086775702185273,-0.0406904340395803,-0.07403569892326016,-0.007999974989945936,-0.07721522982490675,0.058668937587590175,0.10641427667689746,-0.00020543333195859395,-0.09112883970855187,-0.01539052645007099,-0.0921950649594448,0.1324805365578857,-0.026163336014894345,-0.012054260186938736,-0.0071698404166985474,0.05935228596055685,-0.02090869508070095,0.024385520290590927,0.006427426050013773,0.03145364041708574,0.010556139962701203,-0.011264774490683735,-0.005761145250585659,-0.07329564832993529,0.03355968122192584,-0.06359441806716559,-0.037041780161538085,-0.05438827930258211,-0.03907017984993063,-0.03807023735344717,0.03747912684623918,-0.04508682509651877,-0.03552319516612945,0.10555549343856521,-0.020121529201501037,0.0664355732802854,0.08977257869443397,0.10894735716819115,0.13023783541804398,-0.01664777037149681,0.06399249765460228,-0.04602027001,-0.0165134598748488,-0.09444667675147986,-0.1900837584201606
83.22395324707031,1.0489959716796875,-0.16295117988165658,-0.0389927764311504,-0.08558054803516374,-0.03533261724255448,-0.0004073630993697239,-0.06537013760196718,0.08043750377365665,0.038191050949412705,0.004574597108204528,-0.21532443445910324,-0.07772456145605004,-0.29790346553665764,-0.14788573406661695,-0.24721685853825132,0.10386871688891253,0.04677141159869726,-0.22616615490784553,-0.11346265184033676,0.056464854838645585,-0.17701349883563003,0.09159542882561995,-0.16749470993668988,-0.004550650415045703,-0.3415274805865734,-0.00898284237570822,-0.4016848075925422,-0.04684146141244799,0.26086089230284043,0.09929919847166993,-0.16721245977054572,-0.48445312881970654,-0.08263497768353614,-0.19308796965679242,-0.06386915017308807,0.25551961793320005,0.07638600017650808,-0.3594960066543787,-0.04621776194191448,0.07181002878418818,0.08981098334868574,-0.07555078065776984,-0.16888955549290274,0.08114491930836737,-0.48135483109606064,0.10686764622591852,-0.13120364570025803,0.3472109567988497,0.0965467355708072,0.0038484468385241305,-0.06768515970679057,-0.17336320217992995,-0.04395350022578393,0.13745343545273106,-0.15994806180666743,0.041786168414177344,0.020792286750008902,-0.057355558800703435,-0.050672514358007244,0.011995341887557374,-0.0189659911046673,-0.07163980755550653,-0.03491700928514971,-0.024792822141345802,0.01940521526518174,0.06088796224085635,-0.05923118811387722,-0.0009907848658105422,0.06271964197407859,0.01391233468552764,-0.028330000543128064,0.03215869137817473,0.06648206904390082,-0.08259882111024301,0.0037422847993902053,-0.008405901353307025,-0.05942393332900625,-0.06895099649004971,0.027307407467401627,-0.013094515683131101,0.0027620165344979103,0.0321154102709587,0.03855827659026516,0.055445060826542374,0.032529740380319735,-0.0805374309437724,-0.05688408619897015,-0.0655908360320566,-0.03807702955632823,0.025648027780904303,-0.00047797540358456014,0.03462451055163056,0.07826399097491443,0.11500385879290649,0.05256842230912738,0.052155409477412644,-0.07646460020962847,-0.041074860595417026,0.1017090024567489,0.03764139837810311,0.0016893822426289548
84.27294921875,1.0690994262695312,-0.1318744065219908,0.06484187983332496,-0.1137163567304635,0.0062297355550374744,-0.005756828040279943,-0.031294775667355675,0.019780643131831446,0.038440503431465003,0.0013332393747102064,-0.1429989199503195,0.06363823259144533,0.012746675537179036,0.009495787072693744,-0.08206421943273605,0.06480446916015285,0.13310230059715206,-0.21771705211400308,-0.1351058800336122,0.15447482594601916,-0.1544860211764985,-0.06844657368871576,0.032271143813557154,-0.023271491501034077,-0.4114674289638415,-0.1040774484391443,0.12165201851157881,-0.03256556884591927,-0.016212681948117313,0.275873910769318,0.79011907038832,-0.09773499721464776,0.16600582128364566,0.12590143920279034,0.03508798954569256,-0.16425910719495812,-0.009336699223523747,0.06713856511525505,0.5127021842427661,0.15955282299193513,-0.08985526741440945,-0.19553971099856768,-0.18059817258431016,0.006739974718436837,0.06618271238319016,0.10629142680236195,0.16149528589385223,0.2594910183753557,-0.3832730749795375,-0.13374532779841836,0.05035007637137511,-0.05315917752834347,-0.04808567239212339,-0.038651504133607434,-0.10374748474297926,-0.03302793240375407,0.054145536894690045,0.011032767785885191,0.008776400522805304,0.027543825757899244,-0.008713160846784522,-0.0948415725341164,-0.06559414985159676,-0.03800806157063725,0.041671220168863515,-0.05149046231915916,0.07358626951562007,-0.03101353997955553,0.05749813602982104,0.0019542565194354874,-0.06390605928221403,0.0543536163070132,0.04639647932828618,-0.023837844933177255,-0.010723997057111065,0.028439637571270698,0.04494855450607591,-0.00955924318300861,0.10636124952095088,0.05845851270711448,0.0246669044652302,0.07592148915603082,0.016425587828743614,-0.07512038899288599,-0.06736281878216925,0.01226909055247885,-0.014625258171921316,-0.010589828702128273,0.03788295754996468,0.04202102516764322,-0.04370105441034293,0.017285920602895216,-0.03905882845085595,0.02728061771809921,-0.03422384740340489,0.03936043003130452,-0.0553877176441466,-0.06508881888553392,-0.037427034441484895,0.07394379090346889,-0.10408634739121707
85.34204864501953,0.9291000366210938,-0.08522431747336001,0.01676578267644453,-0.04889985671503965,-0.04852250862096885,0.05819112439459673,0.0035743947263618264,-0.07779120542231396,0.006885064777158667,-0.08415854822510452,0.062119224928710075,-0.04054563079905969,0.03606804689467922,-0.04796898923563487,0.023695121102949468,0.06448250683533019,0.09957133136895453,-0.1119910627873418,0.08582960041118788,0.027679134027583315,-0.08766634758582197,-0.07897553790629358,0.17492439696212422,0.07669137351067108,0.11363091727293065,-0.1414443438638106,0.09320279846415314,0.03302549622152939,-0.11841406515276212,-0.08445682668538271,-0.04150001623398979,-0.2318608932230634,0.030051973879600687,0.07295978954757798,0.44470662641087316,0.28573095576896546,-0.42373686932157284,-0.4595992619416884,0.16376276706369988,0.0705842065116979,-0.2563602801043549,-0.14405687145796298,0.030551994938925155,0.20918760337645653,-0.21727525413845541,-0.24657719682382637,0.12666898338880825,0.308708394922135,-0.02974233759375541,-0.055980472400476405,-0.08361558448645431,0.0471750947216633,0.03994164779608284,0.03248474799429807,-0.05203929550953109,-0.054952307701844796,-0.0396467256854797,-0.03537040455368338,0.038265723251759656,-0.010757809196209368,-0.059095002114416664,-0.08963568864533722,-0.042336000375155676,-0.04570220660049715,0.06218414056509166,-0.01048458508558981,0.0734826670945594,0.06008803403919531,-0.022952704373131405,0.0028224062377069574,0.06926448575368169,0.043843825112536955,0.028102906146314603,0.029275394396682423,-0.0691684623956225,-0.023506798784657123,-0.006711727960979208,-0.011658317950683533,0.061630623485914825,0.04015361585823539,-0.0007585530111137463,0.005633518377819342,0.020431094284803834,-0.014216758271539343,0.0035780789483264627,0.07805424382621515,-0.05070176895991736,-0.08292313467936115,-0.04674391669282216,-0.01473370409688151,0.01431941093138011,-0.11210568046819627,-0.06438081633208777,0.06454066938215508,-0.07531181144774474,0.0030391357258941374,-0.04787080567943876,0.0626350548411231,-0.08962711754011471,-0.08131212913936293,-0.06632790641804745
90.44605255126953,1.0392990112304688,-0.09641539367259318,0.11944936122658306,0.0212972964379541,0.05550511953147472,0.021104580058549663,-0.020022298850920967,0.14644682998653827,-0.004228996236842378,0.007317038533009338,-0.0028275148714117246,0.02648424673962345,0.06243581882688916,-0.015302473925404611,-0.035407834326976466,0.06552006037506454,0.1186453474066414,-0.12798155076982193,0.10310448102536132,0.044497302264207055,-0.13344302321626544,0.03721914053126092,-0.046346128780490624,-0.07600115574748266,-0.015250913979993216,0.04152918631949057,0.03637586067365008,-0.0025946106658563534,0.01360691296474062,-0.09952041136321066,-0.49337410594540626,0.07016418103803729,0.20203024816173923,0.01225807924019129,-0.10736004628962413,-0.1935703193215449,-0.00828581127212813,-0.04794501255120015,-0.24823019003472194,0.08254903000152197,0.19060042580303982,0.23989485580521266,0.06942712016563968,0.5477787740998964,-0.0679471321540499,-0.447559249829502,0.07391240433987253,0.08314506541789422,0.07706113852031109,0.22661801922746294,-0.14967853332531872,-0.10653324704700198,0.03604782804590298,0.05586974340090051,-0.08806385548432155,0.02224432364920299,0.012792328684776338,0.02309918210288473,0.03676087181745455,-0.08458132894153664,0.01207748978032303,-0.06104365066450683,-0.003717113890168936,0.038037269227045374,0.027476217818409903,0.060543805256118105,-0.018837010571689326,-0.08516354547984568,0.06851437487293294,-0.07344508176404424,0.06408022239067722,-0.020990209605494248,-0.01569449356045023,-0.006850317428640429,0.07289540242856271,0.05393304686175741,-0.08814223956469057,0.08836665749688694,0.007829183051067506,0.025659633190328476,0.02709902366932416,-0.007925768661702965,-0.07012517997647956,-0.015847644159985044,-0.01911929991942941,-0.0738323855477214,-0.0035669512386416287,0.026546745191922853,-0.0349680353165496,-0.11199861132233495,-0.07481002491330876,-0.028520790462290266,0.014994517117987272,0.037197119277526836,0.03527401952072634,0.005164561432897105,0.0845743684051126,-0.0220062999192294,0.06175933388894718,-0.06479650010507867,-0.11411498018657522
91.4853515625,1.0283966064453125,-0.2366607641363483,0.08725003117437981,0.009298798173045221,0.06610172728345942,0.07914715194869865,0.02845944487425536,-0.06176630335537242,0.030824547075228262,0.05162036304404751,0.002450971910755258,0.09800417033307642,-0.0038896269674859943,0.015215645857374067,-0.013990434651793478,-0.02491215170219623,0.04765046681791908,0.12218082441105682,0.19477827854493432,0.11915007855651583,0.11585684054905544,0.14861150940110499,0.1227294563551821,0.27830305852052806,-0.011953955785929705,0.27954126874732976,0.24533604584285718,0.05639292292681364,0.009918104473797366,-0.38935829513775455,0.09012020945452032,0.184390867749174,-0.01303254194623285,0.17356073269497774,0.2617632012414721,-0.03823712772671696,-0.19156966650717874,0.20284657544562484,-0.046207896611430536,0.20402982182309962,0.3906450034430737,-0.4511264645137869,-0.25238864083099766,0.12880675772232542,0.22821648692514518,0.014183570733713902,-0.3580159291984109,-0.14790529649662384,0.3081812549787185,0.042699791489196504,0.19596769663442404,0.110256332829994,0.08275990735124138,0.19047291190961757,-0.2240623451081245,-0.14377083049290146,-0.009511423946999832,-0.009199844384774135,-0.09215752605021124,-0.006440734760870218,0.02955828508815808,-0.005211728582076738,-0.02520282570925357,-0.003173036055137699,0.004274571278689826,0.06976583630331712,0.05656071269453353,0.01842230341415979,-0.06309138072466548,-0.036664060295603804,-0.06634516272467003,0.05614849878506809,0.047716201867186836,0.01886819154317211,0.01651971550906723,-0.05542900768692065,-0.05606104056537496,-0.048253503076611595,0.03709585762149019,-0.025180718900915874,0.007829372809758539,-0.0274208850501398,0.028374187511072044,0.05382288734656519,0.04368806024904384,-0.06913305652558904,0.001620200499889159,-0.06731988223266346,0.016322747182583155,0.01446389510362307,0.025894610192502516,-0.021871649121464526,-0.012284041922037935,-0.07218705290951369,0.1030701253196791,0.007696910342010977,0.04161081823089776,-0.10372569743280508,0.014337640283906555,0.04709283565904776,-0.10628607205366201
92.51374816894531,0.9991989135742188,0.04512832162833236,0.01864907889025344,0.05091493858771791,0.029579910451513747,0.0030444023594799197,0.01182069424402405,-0.02915829450750128,-0.15050571160087872,0.009481571318349041,-0.04477099942128334,-0.0012157420196032042,-0.09430253487092956,0.06684738367893626,0.06648129953037174,0.15597309693429512,-0.34140439371370696,0.41132928035345534,0.018265691309575532,0.12566830488761138,0.03393622866367937,0.058777245995028295,-0.012814311142861846,-0.07304745646166987,-0.06789521010883395,-0.11667939003228113,-0.015370998637170423,-0.4078702105579025,0.07312904435883243,0.2666707373573516,-0.25094451788922706,0.20066462545808103,0.12628131352262068,-0.08311406160961086,0.4049527939813281,0.028108372980542112,0.08724002417950266,0.11777724854160145,0.23057725364395332,0.44079861223366057,-0.19820676231308745,0.11415377476613112,0.23619795039051733,-0.06992899651138976,0.03046500462650066,0.663616411195511,-0.05589723697773023,0.6225457651863083,0.04294919425165009,0.2324986250241381,-0.021465098513424145,0.10672808773475538,-0.07634883689152966,-0.12019953467606422,-0.09099650548811719,0.09246108034324386,0.07499343348936278,-0.0026837668332002134,-0.027242537074365775,-0.011139933770285153,0.07379980193931128,-0.009158090619453734,0.07654276745302462,-0.04480863849034314,-0.029390037595667304,-0.018483949619552617,0.09234501238886211,-0.01900909792714331,-0.03922212757612928,0.03248830242027836,-0.06684651693370734,-0.01554566045387646,-0.0007691036419599364,0.051307537218750636,0.06692152163772218,-0.08835843556395005,0.021052578275186,-0.09202751491395668,0.035182167013228224,-0.06962063605978491,-0.08998439270528447,0.003575242006787757,-0.005686852181529142,1.2005771403291658e-05,-0.022839289993779734,0.09880288964658947,-0.0008573594667160328,-0.020357115020143448,-0.04941483409013144,-0.05286347605783435,0.011726282130685219,-0.06527191521394309,-0.030635088063241556,-0.014027059707323469,-0.045875403885337715,-0.011939348657166024,0.017125149423325804,0.08246006870148441,-0.012182358692910077,-0.07718172019172334,-0.04350792898842048
93.51294708251953,1.0489044189453125,-0.03455778364880887,0.044956353315693046,0.03371677458771266,0.07750295431875845,0.009776002722545533,-0.06404635212306808,-0.08635492949178421,0.11872682376075958,-0.16777273017889924,0.062300794011750336,-0.20704571698328253,0.24630069229052665,-0.047812981243573305,-0.010726621411919213,0.506897695128751,0.13183326744598406,0.17364160571718582,-0.1859325869750579,0.03000792448464067,-0.0949495013633988,0.3184158951568663,0.48987003140028507,-0.21512069701978143,0.15989651793547072,-0.24271667796079555,-0.0011971851957062072,-0.0763981274409425,-0.11129048348192289,-0.501280711887327,-0.3897894917344567,0.15934153997459338,0.24413209935101432,0.12868842537608693,-0.3593377098029901,0.46191950721964325,0.20380741717157339,-0.2113281082354675,0.4134143771640313,-0.09592261219111084,0.2081626036534004,0.018979605553850757,-0.19640790248779702,0.3583938118489937,0.07780735781894493,-0.00825104921702947,-0.17934605933689002,0.11532179278885465,0.13672531714586372,-0.1775327067761207,-0.0767843482937491,0.04248475724856693,0.00975547655416876,-0.03783382766968984,0.022153955211226498,-0.004040393664319356,0.001094898935846281,-0.03909467468148818,-0.052759196769004174,0.06482725417878117,0.050129190599187905,-0.15213043333440202,0.026004143598723668,-0.002186292125032554,0.06295839414376131,0.010187110444499603,0.04407986987764822,0.05738227675625057,0.0014570492945191799,0.056894046861539996,-0.010119926963248732,-0.04036174645118466,-0.015972046280739338,0.002827186669878735,-0.10599810107030787,0.060067097654383415,0.06117919675270256,-0.002803702280002339,0.02784473000055057,-0.004276749932558137,0.013197810664861325,-0.0026909035509706213,0.03942900068710864,0.06350059107916182,0.032393320806695304,0.01589530310279651,0.011578952547335805,0.08755149378537934,-0.06027181758364436,-0.00033375551940957593,0.004155356592359022,0.07425252950431926,0.002464584593220811,0.034123007587016654,-0.048313140345900674,-0.02530133076486496,0.0111538386587469,-0.08812832399526953,-0.10554912811003427,0.08049471184846274,-0.03607585471249057
97.89814758300781,1.0688018798828125,0.030965405673151494,-0.1319391569022227,-0.03792408110085252,0.06092654648102989,0.09102318135319795,-0.0007617467375880954,0.07418757885967261,0.09179762476668549,0.013660339185895076,0.06704722646561792,-0.007956771742746085,-0.05506959165976225,-0.04621636376031285,-0.012501386982737754,0.0741639682789496,0.04414840664563656,-0.07480076516306608,-0.34057165263665884,-0.01715190700687481,-0.19330296646985257,-0.06510908388720744,-0.15753387787584358,-0.08433484678659611,0.07363652283144609,0.6095444146386458,0.3629294397540732,0.20824293268411814,-0.010308318884390905,0.3600292182945191,0.08145531206967385,-0.035888387578592765,-0.2831952306573255,0.6033410494234499,-0.03437848823321432,0.10877715998314455,0.2211479742528355,-0.40143538141287466,0.011489812179876102,-0.03835146933345337,0.1776059185990681,-0.27913637459254914,0.15651070352098545,0.3293194903875198,-0.030686244773271837,-0.13807593522641054,0.5283003486355031,0.14161969545723174,0.040268749492134735,0.19603569645230196,-0.0005303760912323697,0.07868676995437718,-0.08097936943184487,-0.1848111478355429,-0.05519854026198178,0.04984213094674032,0.047006033752892425,-0.004550041309023939,-0.046016666573354674,-0.038304980363103217,0.06443076550419853,-0.07004895797782223,-0.013096929752206346,0.05901286342237265,0.10801293983431812,-0.007739664851375927,0.0284983651255048,-0.029519648869345504,0.012878342598609614,-0.011704694413119138,0.018502484749305638,0.002624616730489813,0.033799010107589345,-0.020722413926107398,-0.016908815665836865,-0.06307084063616296,-0.04480310117837364,-0.031161519349460542,-0.0752115362827726,0.10295875315057564,0.10466664179080871,-0.06592660818833501,0.09737839223306453,0.00412907301405932,0.015171930143128488,0.03803032440200404,-0.0623174034717615,-0.03320904305772046,-0.011789941977628142,0.01593844436318614,0.011284163595618055,-0.022606078480752446,0.012670902923443106,-0.0011657362976903035,-0.030999766880941478,0.011801151960982418,0.007847655800032393,-0.0029940341362944857,0.05351693527009606,0.09607628278242519,-0.015838438329314305
98.96694946289062,1.0587997436523438,-0.0014646231025734376,-0.024274551358795377,-0.00037828483398934416,0.05870529332392209,0.023119824329602495,0.04000941431645323,-0.00825376490626811,0.10225038270380873,0.0750008288523385,0.07560645397929855,-0.034405383676145776,-0.04843876698072262,0.03880084109060023,0.0018688944206946834,-0.04814168868763879,0.09778718714449625,-0.05443866419020014,-0.3599079593473696,-0.07460791040800985,0.12581745434902927,-0.2671533407042746,-0.16454469577848774,0.033615809191506155,0.25115378469894517,-0.1026415571537247,-0.09833297520946399,0.14561262399899216,0.14197961261037817,-0.08287912851837759,0.11844518348683516,-0.17141767300551408,-0.12351704542411612,0.27264058408929526,0.035767923275896105,-0.17017383858530258,-0.1680857192436643,0.2124915766689489,0.1816120579830618,-0.34016218133683307,-0.03385713005293743,-0.16629266223018427,0.4043168577567603,-0.06291729783256483,-0.37542206299186465,-0.03153808208864116,-0.07146054184191293,-0.04798469766459042,0.02700290351564254,-0.011176503212425528,-0.1973425158256828,-0.011980151861940305,0.04602831787024157,0.04987800428919743,0.05150116148451159,-0.06397677870019886,-0.002276625885022921,-0.022766334285725755,-0.024462682121175663,-0.036788275394651376,-0.09688801852544787,-0.05217427822273075,0.053931094061428125,0.08886516430673684,-0.05977250442195691,0.11414899211016984,-0.022058851954441266,-0.133845028905214,0.037307188215948944,-0.08419683763930698,-0.04845503691372891,0.012288764774307678,0.05116290762801229,0.05877673802901152,0.06538609987040685,-0.01966249195296971,0.014662926600566423,-0.04878434629863203,-0.023021151974070418,0.0355779226274191,0.03108091908786477,0.01578845025759357,0.002388712330724089,-0.002685315255544657,-0.02654831914882748,-0.018281194463415133,0.06741527487105593,-0.10519342678138754,-0.02011153666135849,-0.06009707043815782,-0.04824371258318867,-0.002972980386113076,-0.022239219644583082,-0.016629109614106616,-0.11576183269583597,0.00918037152069573,0.02578056251757995,-0.05881635640698622,-0.14153735298156206,-0.03910643229345506,-0.04308761155908101
100.02574920654297,1.0188980102539062,-0.03576177566160682,-0.03170782051769195,0.044072390272809014,-0.07713769406976707,-0.01913868061298316,0.03355190244312152,-0.03628098878380949,-0.036960207604577196,0.03544544580418547,-0.09350735421142667,-0.07598043961765075,-0.04431488344391791,-0.01573006352402946,-0.012466458369477474,0.033493014930687674,-0.13047209913680205,0.014187675000031121,0.14830249265756112,0.2044579082692154,0.18450245105930468,0.10262588160183964,-0.02329109748317975,-0.12511520877738339,-0.0008949117774164919,0.21820885149870947,-0.30117813534500343,-0.12741781841245586,-0.2967191106972206,-0.12467589097242825,-0.13403834641393617,0.026250943083636753,-0.14302022819515786,-0.31444601696627345,0.2670708592896066,0.18752509128057035,0.28254772220724805,-0.008772055818753177,0.2950545581404362,-0.07036239157703846,-0.28144209058076197,-0.2291627231124474,-0.060553984637706504,0.8572313043265339,0.13643770959470908,-0.15501364436543877,-0.03628175724895541,-0.3792049495424018,0.052354067880008945,0.06298170609914883,-0.1311739221774339,0.16914422025239162,0.07022592364463018,-0.08107751842580081,-0.013418079406041603,0.052256749954425086,-0.15078320156299488,0.0690672650304662,-0.015758101380409166,-0.022617406604969196,-0.016192765489738567,-0.05063945559500995,-0.04599465758892521,0.05373300363352539,-0.0453995433006886,-0.0632876531526,0.028397201294415555,-0.04511497583924062,-0.006488289310358683,0.05527054549256436,0.00425117695190745,-0.09113775895060498,-0.060522066848102664,0.00015177374570050537,-0.020503032191137204,0.025733705247471258,0.025207449705057443,0.05483544796228246,-0.05564226252248037,-0.023482580392267926,0.007454563323799114,-0.06916507045931176,-0.07379262541383526,0.004465234082276224,0.03247225817879649,-0.03893725194255088,0.05207693746565181,0.017444155569202077,-0.0657360955229664,-0.01720877290125233,0.012981548008113686,0.10513901611347586,-0.0007444463291761364,-0.03161862851706393,0.09030173886605382,0.007383054926573323,-0.040520996748371674,0.018790377151691056,0.014981808489598458,0.12695130760057727,-0.019675102794514985
101.04464721679688,1.0088043212890625,-0.02110612049066648,-0.02247481674855649,0.1299649676133671,-0.03634908995531225,-0.0036516537294613684,-0.06168659008864338,0.03131180641507413,-0.03066232726416994,-0.10707257612135296,-0.01130198086032859,0.07481603837767112,0.03866793236996735,-0.41202996232968186,-0.2870688500276014,0.060078266414366935,0.49138125708748753,0.43893038935536044,-0.3234577895630088,-0.3774005485398688,-0.2789406797296028,0.11849904929720179,-0.23083988896562402,-0.21087754088602978,0.22974668387210387,0.2585382349368489,-0.40150948346300147,-0.013399808320968903,0.054567901273565686,-0.061755314038556025,0.19441587879422156,-0.07235688351504455,-0.182719586040884,0.3941615187697073,0.24956388573769167,-0.020434203191956518,-0.28341271343200974,-0.194959972710041,-0.21952740285654798,0.24097874422181742,0.1587120919875112,-0.011370502500542484,-0.29948402680671254,0.2711752786573499,-0.6715855879460094,0.20154807389517237,-0.7455245622578894,0.21632549793746483,0.19206330140369524,-0.4051100882597225,0.1618686585534247,0.0991224346464743,-0.31586574046325744,0.19414421043629898,0.09236561683332016,0.1279528069076017,-0.02177128580593006,0.05959716599902018,-0.019825002333525556,0.021682988018740794,-0.11876541282843589,-0.016239845409258356,-0.06613251313926381,0.01367147755022468,0.023441549843383286,-0.03575386190271759,-0.003969252138316046,0.007563458806320471,-0.051844810220526366,-0.11973880796460865,0.08780907109462133,-0.0525065631394603,0.13957276252809234,-0.007716664949199424,0.01780663225387295,-0.029548147483686775,-0.10675655003237858,-0.024370543215977977,-0.08960246284741619,-0.12925697187737153,0.05184134326219739,0.046837630539121454,-0.059381033754116075,-0.05306823464231507,-0.012238020378217057,0.0037182586838112944,0.010373375973559893,0.04189643134207182,-0.08733393782715027,-0.023949111179842344,0.05064549734915867,-0.04356379273861944,-0.0765894293361272,-0.0391553545196422,0.03594762312231223,0.017149995681538622,-0.07240798230794308,0.0014201874426769037,0.015063211071603362,-0.0789922378260599,-0.08268169014749409
102.05345153808594,0.9787979125976562,0.09002584415493553,-0.023683088544558015,-0.05230887444609679,0.011807701159157219,0.023739772807555203,-0.022655483742131482,0.0007748497624271225,-0.08307038800415498,-0.06874138634056591,-0.03359530577742273,-0.09888781077587812,-0.024379852378231752,-0.02302736417878662,0.01514323826883611,-0.05502143369992757,0.10727208273602763,-0.2012219266339275,-0.09634321711590588,0.08469872921914642,-0.08774264542021065,-0.024811699713816502,0.026737747744945528,0.08246797183545286,-0.10825929144088457,-0.1836305325457555,-0.04606414046605556,0.18797362403581153,-0.13839198234130007,0.29151274825386186,0.05291263603480782,0.023274881940969275,-0.19331073868631704,-0.2653216354774641,-0.07222740194633637,-0.08554622411934132,0.19330868563651993,-0.3604804897912479,0.28421178285805315,-0.007856100279182071,-0.13792426281548495,0.14902597045235547,-0.20415399984568142,-0.09023762891287872,-0.03369093006807985,-0.15962425978158792,-0.18145486035717312,0.1251503553168703,0.03431684203532848,0.12809629691270086,0.06675214789649699,0.22303082986593017,-0.06598863710326679,0.00972443560450921,-0.09891548512645636,0.048850992138093026,0.05490829323119803,-0.04152949138818052,-0.023492678076476294,0.010729093655439531,-0.04183292471002731,0.055848806345192986,-0.0880009176005851,0.00045053270381941596,0.06895552473876163,0.026038897464217253,-0.06461404295790892,0.01773392880906776,-0.06449969284182513,0.00990970120670212,0.01318282915424683,0.05729375411115385,-0.03584442515121368,0.035946867166890106,-0.0483994204174068,0.060361130674097624,0.06823306789132738,-0.06057198588088727,0.012222676068472976,0.018190652733610542,-0.05209983796908357,-0.029032678974868567,-0.04052549218430022,-0.02501938761334165,0.005025162288169533,0.0018496147440735435,-0.04479580321054512,-0.033232577317272506,0.040824479438218764,-0.01048573698930941,-0.11405537195088572,-0.02423149018026073,0.05715648070285079,0.47038788151938704,-0.1501998543977458,0.24641097587021915,-0.009117300384159116,-0.040746039110620386,0.18161527366830055,-0.12790349609491794,0.15044401071486596
106.23844909667969,1.0493011474609375,-0.057963691240607663,0.07002895782784632,-0.029150414565326778,0.04871554417167878,0.08415406639562166,0.0621848069476041,0.06987819535036265,-0.005790934316425619,-0.04352212415411133,-0.013127491958075787,-0.021073565357680842,-0.07380349262226898,-0.013282619916313708,-0.025906974027862836,0.3411837296018463,-0.16031570836075054,0.2072798005014953,-0.14718448635525472,0.05890862745624739,-0.12948838862067358,0.24166673929496402,-0.4955777734277178,-0.33168936510010144,0.3458434105170516,-0.2925138640706607,-0.02010457177035715,0.10939527157934366,0.3613465878604721,-0.005080176118951888,-0.30709768188818265,-0.36740283960755193,0.5456867337149067,0.48194608528668204,-0.05963374859562537,-0.03044437240545724,-0.2452081523863665,0.2921254753227686,-0.15351127370096282,-0.05189696297166685,-0.5992692637672522,0.11359766802527715,0.23054705345711016,0.2429993680591215,-0.2613334504428915,-0.07035140794035817,-0.8279849033932412,-0.2741299916082184,0.17991667602778263,-0.10864797721062318,-0.0983512752849877,0.03280653911688253,0.041437072476520335,0.023444978100972486,0.002055870364823651,-0.04739316933441866,0.000707377894806932,-0.01903430816364772,0.09055348646916699,0.055552790097242136,-0.01520770947686352,-0.013486071973027825,0.09525058281652644,-0.011662180037889509,-0.12556109979464355,-0.08168168999130372,-0.052841943112000134,0.0954151205571073,-0.010756203897990075,0.07319905617201297,-0.02466261208493524,0.05513718566913779,-0.02245196430164094,-0.07903522119652906,-0.026260162422695153,0.013582754546021309,-0.020287240390467073,-0.01571486498592844,0.06718046741143499,-0.008797639238073324,-0.03141354043108184,-0.03349105511024611,0.03227000841988074,-0.023484906309785936,-0.014531542392288918,-0.0155525140980593,-0.0028337198307558003,0.006055692849603318,0.06213955314559662,-0.0014309557766342962,0.0925114480206311,0.03886349331148905,0.04313066645473065,-0.07788327314204718,-0.11483346360601282,0.05037946825724681,-0.03806606544840036,0.01900523389411715,0.03198690896126364,-0.04368624969381609,-0.015206957527962
107.28775024414062,1.0488967895507812,-0.008908508791538032,0.10649129699520438,-0.07548041652915406,-0.013943429137201965,0.003844442099608693,-0.036670661212843916,-0.05780154838931166,-0.07395210541670469,0.00845107174565382,-0.061598037082791664,-0.10229653431340169,-0.06726696577868689,-0.16994136562614195,0.13434758450450926,0.17956596100724548,-0.9900941408749595,-0.06997231672674914,0.026828839639542242,-0.5053007922220538,-0.055532906772411524,-0.2701196006063409,-0.07752393865968076,0.30573827965975225,-0.2899063032213631,-0.03013310751015727,-0.02704624594820624,0.02452410308639572,0.15104760774535833,-0.023814036918331886,0.19526144892510455,-0.0778824834033702,-0.19275212978623,0.04110014583297804,-0.3420585248449739,-0.13378507238496173,0.07969130322778016,0.22615867130231546,-0.18032382343603495,-0.039903820232708345,-0.7091976835645605,-0.5449947511014411,0.17428694134264652,-0.18168681644659304,-0.07121521651935325,0.15509109179332042,-0.13685182499651266,0.26768000149968224,0.2489773277135002,0.08397768949971054,-0.8646496664987631,-0.146874497261629,0.19087469147694508,-0.08011265150964522,-0.047251347225651344,0.029164275720706696,-0.08361858078477458,0.023078674139990596,-0.08382864757732872,-0.02269445344553862,0.0015677590394315706,-0.013659277371974574,-0.009942180797936295,0.033006093459001414,0.03345199171345913,-0.03473017272887814,-0.044501252018668766,-0.00020384670787586268,-0.12694278551813598,-0.0001257587842402319,-0.023885147053290284,-0.05167409571801306,-0.011919609101225442,0.05617123860070652,0.04881499927389514,-0.031944569098232414,-0.03371338698555339,0.06246359014593926,0.023467106887965834,-0.05215456006582965,-0.030126570506185377,0.01799926607096028,0.03002473574647191,0.04577688690172364,-0.0436977015004856,-0.02085357797441218,0.03089831423439311,-0.058554310855385365,0.09621635956081226,-0.02977597802902261,-0.016134348828459058,0.009265248535055389,0.035861342599915094,-0.017153555416993437,-0.005986368829881246,-0.020966195576085617,-0.048225349454227184,-0.04887623294441648,0.026357047657059547,-0.0020537886600304183,-0.0007676301931154456
108.3366470336914,0.9983062744140625,0.004909170241348366,0.03606123323117385,0.00845422777645025,-0.10782851875724819,-0.02403534158043466,0.02758997747470847,-0.026551279173893994,0.05958196102534813,-0.10288698944956495,0.2767518796442557,0.5435425940002154,0.020248160539744382,-0.07362816956909306,0.03338947672138258,0.21745477852100792,-0.050818390071639935,0.1938707517101885,-0.07332534133799117,-0.011487672138694546,0.08540217629470138,0.0010530728343748242,0.07937366891503603,-0.10245428071066515,-0.038497505211586486,0.23771121842081339,-0.13094587062426027,0.024060773005026778,-0.11950134261017792,0.06013293584563338,-0.03350469260728148,-0.2333263129380622,-0.17171472982752908,0.32855800834591053,0.2077751615644872,-0.3083058546900764,0.05184186507331868,0.07009802715379262,-0.1911676633835493,0.010752907093394687,0.20360733674528414,-0.12833580807192174,-0.014975356481748973,-0.2812434594275179,0.002345545630315849,0.174606151300397,0.5503359515063593,0.6691271117786861,0.10172898533643601,-0.08797678948818743,-0.28422854777172696,-0.30724723286061467,-0.022436373903054772,0.1745241594858264,-0.058635516876347306,-0.2233393340193967,-0.08657209374098586,0.06339826756488845,-0.09016987328474235,-0.0546349099970818,-0.007747661502731527,0.07437356311049957,0.026860147841812374,0.02243388426418788,-0.05912622587345333,0.014562264141184666,-0.09641980250679305,0.039344825311724514,-0.23907655031128983,-0.01900116863415867,-0.06375198503005038,-0.020256154839067037,-0.012105479028187954,-0.013843097356062924,0.1004137402301869,-0.050730012141087626,-0.03201935534076119,0.042689282597693966,-0.03713453659771775,0.02013426507444052,-0.09343049932694282,-0.025392989222715472,-0.006998616528555268,-0.022793699954866048,0.011593055100136697,-0.031976916392568874,-0.006418028801461749,0.025728431303748342,0.005049038717384961,0.005792548902472178,0.02301644202339405,-0.03748572823865383,-0.09003126465747675,-0.01915049450864655,-0.018656619469950488,-0.0530156037299678,0.08647831767235255,-0.098479367463814,0.14979204909905752,0.043485385622329883,-0.09067302215281076
109.33495330810547,0.9492950439453125,0.04089864204888194,-0.1117774929235612,-0.07096011762343188,-0.09172270296584287,0.019921228694970837,-0.03468865141913217,-0.04571927621311793,-0.07055006302842932,-0.13165570452889916,-0.06674409523512971,0.021826587002525842,0.06856683083861151,0.07577847665388465,0.025930156028183774,0.1376953484835352,-0.1997614703852892,0.0033529234614805,-0.24229341634700524,0.1911839379423879,-0.31479501147853417,0.002369635325856474,-0.0017576540160883607,0.13394235461768225,-0.07300957050572483,0.03345699623326033,-0.01758765933194599,0.0846991245083085,0.2263139273263194,-0.12158522292963084,0.016345373210108732,0.0367228679931535,0.3887872141076888,-0.020189874375425187,-0.3385010608102531,-0.2791731260382767,0.2403595150297647,0.5163064747010573,0.16990277283183564,-0.40250273489170085,-0.04188804699502696,0.23106085780738814,0.47452553362143457,-0.022739068165898213,-0.10043371611175919,0.04235066176031609,-0.09452309643475298,-0.088352638906422,0.13292491635345838,-0.10145975098287846,-0.1456296994087717,0.17293862943663596,-0.6066517303978465,-0.14679793261034033,0.04324660706262839,-0.024541153213595956,-0.0869015235354719,-0.052843499707566535,0.002080489233349925,0.02373942100463285,-0.032682327197102644,-0.019630660419906756,0.028410862828342744,-0.20278475212593028,0.02001590210661979,-0.016469785982535373,-0.05991857384828811,0.007144564032107166,0.050453262865523436,0.022647403470244756,0.020870596681015957,0.00880277062759471,-0.09779359951582024,0.09818999345163855,-0.018811560576373218,-0.0027356148099434547,0.082621012687907,0.15593845413887333,0.0055938918559475335,-0.09302905031810456,-0.0015961716142538016,0.051839159244455604,0.015025333001958796,-0.06893660121291269,-0.028971458588159235,0.008660325157705137,-0.02394546594204107,0.0329819431764647,-0.10756758576895495,0.08788103761355229,0.13014160516684176,-0.02355058024593046,0.02260999365085547,-0.04080557261500345,0.01573839131526108,-0.020219777804851347,-0.012428395311277318,0.007910982642998122,0.006576491831763662,0.1662241135393871,-0.07806014329266805
113.58065032958984,1.0486984252929688,-0.03456328043057873,0.03568014061337983,-0.13295746089005592,0.04935766229553579,-0.02849052175479707,-0.03480243363191413,0.02889848205054755,-0.04740981964948336,-0.049606752016469406,-0.005377224536305042,0.11689062684615949,-0.06699753941513252,-0.09440666555790166,0.02003059066812435,0.1396069856125267,0.09261142715066555,-0.08344776152092448,-0.29270602968161236,-0.035709910826206503,0.003520222878081109,-0.0457729185590483,0.06290199822663858,-0.09481771802694716,0.14006234309336751,-0.1561549389590517,-0.19882300152683274,0.052656621890320755,-0.11036609367190126,-0.0844908513209599,-0.07800091586222907,-0.045837705108732696,0.3479750140802085,0.29962221705850844,0.10965096112994593,-0.17187793498113393,0.07551860377299408,0.06189898346028172,0.0018066987393918286,0.11427815797810453,-0.2570781667808961,-0.2833065935491528,0.08996611555940434,0.39961884027394773,-0.049141274410155505,-0.06868979954548898,-0.1496011871288238,0.34448654770314957,0.2303287438388972,-0.2911942711096248,-0.3042236626810165,-0.015943846631224882,0.21567638826165894,-0.03473991714303426,0.12242121616777313,-0.14319024214803683,0.10289540734738745,-0.07594875502341346,-0.04640607515805743,0.0489200424794259,0.00285163597197452,0.029527480632554295,-0.019948537411403067,-0.06468308248663282,0.09122606393389092,-0.06281720231257025,0.10396194769939934,0.013956045994745819,-0.04282061944399242,0.006018131672698875,0.0007162688667647216,-0.025810688046328828,0.077233013142949,-0.07121358243163246,-0.03334160501545046,-0.05300891804212192,-0.012113749805455916,0.02276668553579192,0.06411216719218477,0.03335024967911258,-0.09529386420940554,-0.049063351924608284,-0.03612568868444568,0.042959385460464794,-0.035284111601047136,-0.027436528459486163,-0.023626249370417067,0.1051122403866286,-0.024359492760026812,-0.01895249823403994,1.1555786842998858e-06,-0.014127931754676717,0.033319791591009326,-0.09610792512060062,0.034899240630082914,-0.012348642556111024,0.02573213177284621,0.010937181571823634,0.15266262215951443,-0.012431486304682087,-0.14875200473642494
114.62934875488281,1.038604736328125,0.0004702509402637056,0.015167111352143995,-0.0179757672515229,0.09594055108770654,0.02411865719485094,0.0008300816500641669,0.14214205735815372,-0.01086922256448565,-0.15041275846690488,0.1881457590787737,-0.0030049321123391676,-0.17133861115397792,0.24704958953890466,0.036252728334347985,-0.7141530000862175,-0.14440868901128953,0.07331796465392165,0.06304671638664666,0.46388414917937654,-0.03984000221491296,-0.04634370977605399,0.5418183828124836,-0.03454294102867653,-0.18201676987746582,-0.3058023862498945,0.24539734733192592,0.4791359082318142,-0.33054095700217023,-0.06161035818894421,-0.3146804499931581,-0.03353826891198055,-0.06041116997047027,0.20283780631718443,-0.16978364966705,-0.13840440877382307,0.14009853847855874,0.3706951031614032,-0.35005915945751154,0.189530197616797,-0.09503556027984131,-0.36252891656293307,-0.35507376716318684,-0.3463779351461351,0.22898117298460352,-0.6596159221809332,0.06244326890929991,-0.2078905285188114,-0.08098398679720452,0.1901444704893146,0.10839926278304704,-0.02432976333548515,0.16683423875674563,-0.19428375527379316,0.06636662370155896,0.007342707134231949,-0.11573898522978208,-0.0027405673818408634,-0.012255759974480413,-0.022089973244994753,0.04005821502226841,-0.0368233312567207,0.04211146214515187,0.017286030220985127,-0.07784172257089174,-0.05288196957147234,-0.06390419661609963,-0.008009835342139109,0.03144104685898637,-0.015579403967770467,0.0014329908181186495,0.09794775697467602,-0.018797391852681533,-0.12458301245099271,0.11393584857839703,0.04449718639541684,-0.06643164710932238,0.003870362678571597,-0.01099632642872355,-0.05059448222730814,-0.05976837453579686,-0.002904067698645476,0.04618152230342053,0.05004124615702774,0.034866094620280494,0.11511108182200118,0.10318810213991236,-0.0007698163409996998,-0.0031219457457213576,-0.02567437892039054,0.005197274003673537,-0.004530148995666507,0.05722749611555937,-0.0009010158525393809,0.05946109488092269,-0.025960240339103637,0.010280060319792285,0.07863007154513241,0.05138371150648535,-0.1663402605052175,0.04455791933948259
115.66795349121094,1.0293960571289062,0.04119626099336374,0.011197710862651256,-0.10841109599335903,-0.040765263882631,-0.060787176754160746,0.03647420922198647,-0.012592723144721013,0.06693709215468782,0.30900134148388775,0.25018908390802286,-0.04418628623066055,0.10211044985269137,-0.4360420835693571,-0.0908536709531296,0.3466798862893701,-0.11302238961258271,-0.15563691617177164,-0.11962241622133227,0.11543274982146823,0.3972962715925439,-0.18178658724274027,-0.13368009489702365,0.27470338515870124,0.34465128131417194,-0.34830381268242355,0.24265452473682092,0.20223856495773496,-0.4307299215491791,-0.0858036144983848,0.5090477566170187,0.10107366839530812,-0.08880412860663763,-0.49107781090935304,0.16454832124373145,0.26987280684519893,0.14247035198610078,-0.4845546211503074,-0.8963116059537015,0.3153829789376571,-0.3128491038308241,0.2738556271076765,-0.12505522010600334,0.07551728155405243,-0.10089922249717234,-0.25629970250473844,-0.009239425971133294,0.002265909727945159,0.3189348474648979,0.43575277930629985,0.03597849795730709,-0.1618877470084217,0.06021498703602748,-0.0421030442553912,0.029702137827217874,0.14333150254099145,0.28456662338473454,-0.03816786607737152,-0.014025320219025014,0.023655696896649342,0.036073383421691946,0.06736998213850058,0.09082851340131654,-0.023378301179735234,-0.02763092447757485,-0.03429790967535354,0.08274251941888827,0.04203486824975691,0.03851223800026261,0.005886240697956332,-0.011679972916623626,-0.037114637887794705,0.004265539827831247,-0.008182597758635569,-0.013119147447386369,0.027361329776579707,0.03589100484302597,-0.08544812738832222,0.019763112170807895,0.12317711590781476,-0.06362772294078102,-0.03591485815369413,0.05660638813595529,0.06969512273283253,-0.051652858232424825,0.046303385277124236,-0.004708229449854482,0.05647481052048665,0.026597337922975257,-0.03687134792326307,0.031122025535065725,-0.01643179683314487,0.029962352946305105,-0.0347601435502076,-0.14092485087071174,-0.08945161639904402,-0.08670122742697055,0.002968410847843012,0.07588327823039287,0.05162285895514929,0.09067933346144137
116.69734954833984,1.0283966064453125,0.09846209363818002,0.034331817055249875,-0.005580387281303535,0.05314223221653943,0.09464643793015577,0.0508634980974641,0.09397813176373263,0.036226380593917445,0.15827651717649938,0.0544060566966436,0.04690894459508636,-0.015209437612727774,-0.1214881984951919,0.1582878991451394,-0.27445299305559656,-0.35061442247645486,0.034141076374989886,-0.07043963635941697,0.011976021415982759,-0.20769016404251844,-0.2707281826892609,-0.30826198619454415,-0.2170978945250392,0.0827338438922447,0.4847728454073769,0.03686578602945459,-0.002180014623130569,-0.012973842202598104,-0.1410230713580462,-0.10777418973422194,-0.06256414197333038,0.08777951864174208,0.28167306845071677,-0.12533544873292476,0.13540505123027166,0.11904895315021932,-0.29184632481115,-0.22037206746906798,-0.2585313258329091,0.12359116601651404,-0.11009739227914354,0.05513559802558723,0.03720339549442579,-0.23349845749599926,-0.4232588694646577,0.19552588100806378,-0.24922439581404612,-0.1193844472328119,-0.28408339040215824,-0.09047058678837203,-0.22208411174221035,-0.002449163813442203,-0.11874457090458779,0.017841488938665787,0.012016853507111307,0.0855950031004779,-0.02192255766212529,-0.004350196733865976,-0.01831519158979676,0.024857422951263863,0.015112729065152772,-0.011686747874103572,-0.0582254809002087,0.004245366859724198,-0.10670961212275115,0.08564863639984648,-0.04046922481888823,-0.000851777701478239,-0.010314829731940636,-0.0007178373083742873,0.06558854331036286,0.0018775675785092129,0.06565845459636334,0.05099813017276643,0.014756877922983849,-0.08309487903676929,0.01279457610687794,0.11157730053302622,-0.11001159446869466,-0.022626033534666194,0.002470592085503812,-0.04046803134455603,-0.004317573178094258,0.016781905849094322,0.030832901511250496,-0.07701542729084895,-0.06728406857663045,-0.054499612356825385,-0.004293100794711821,0.014814996223247135,-0.10259933722557521,-0.024663612438630543,0.015282376523058198,0.007046764492929663,-0.02201506814324504,0.01630311528986001,-0.0664678815121236,0.009639813381429788,0.042985067204360974,-0.03709297594452894
121.96115112304688,1.0389022827148438,0.0053229861924990705,-0.021168557087940625,-0.0522970162171344,-0.028233253707913346,0.01814558604411705,0.05246099981734381,0.03290667175684571,0.07336018979939728,0.11858143865181023,-0.013828807585849406,0.05129818532341901,-0.2258738928605442,0.07374154424943521,-0.09086048674726499,-0.1449293513502517,-0.25085937050984575,-0.053467410743280944,0.047634342857027494,-0.10027887377656403,-0.024575764472004057,0.28758572451467107,-0.016756229492268397,0.0974653089532109,-0.1109418561406923,-0.4734185359053651,-0.14608920063637768,0.12362422832892826,0.06117378130837178,-0.23911969059796298,-0.044674257094719665,0.05877002564981672,0.050754120976173156,0.3119456629629535,0.33391841093871444,-0.21758188971973408,-0.08382841608868401,0.24956374048868574,0.17124144359030719,-0.15087945057624647,0.25111790813896073,0.4003610945494189,-0.04920392311026327,-0.12907229188969907,-0.15468580940787596,0.12021762224318175,-0.08360850829441341,-0.048259607502758595,0.2200595616289394,-0.20944607690479217,-0.3674730001395393,-0.0635929985679512,-0.12630568869317413,0.034078269879605536,-0.04912947158076353,0.09490166762914826,0.04685246015898603,0.04156237290487518,-0.019861194536570377,-0.038606020785222205,0.023383725106374712,0.034167639499817,0.08467678289569504,0.08856063116438236,0.036467213585031695,0.0896008357562322,0.000849239501712056,-0.017307778872039527,0.0806983551995864,-0.06434406624070874,-0.022213349053077144,-0.019525811211649702,-0.055574424156344046,-0.11555641055274729,-0.08972124392441855,0.03133102868994399,0.03594273802171256,0.06949376921379197,0.03336965913992707,-0.05642293812483312,0.027116013500917066,0.0009722965247136908,-0.07441759489265583,0.03754578560355555,0.04362041245940662,-0.04222776264907953,-0.041455450107267866,-0.03930424019677697,-0.0649151246723955,0.03801400557436083,0.06849269635938335,-0.024181484588788306,-0.024794687284517704,-0.047421742537276074,0.050714445364109365,0.038501323089569814,-0.02923626549244715,0.02294636816323446,0.048859478975015656,0.0034755014769030272,-0.03606759248729245
123.00005340576172,1.0385971069335938,-0.02381698361713234,-0.033624259443612664,-0.036314423205631566,-0.005682967910750608,-0.021191394798965948,0.002295340043073661,-0.07015666828876403,-0.029163172570473544,0.014429581977962047,-0.04498868312539575,-0.20590748996739947,-0.016329591922194374,-0.2314884692754839,0.04425971433131129,0.1953131068543377,-0.33065810634074594,-0.10398551226401531,0.11469718013388745,-0.004485766317647542,-0.11924961313480725,0.2560974045016435,-0.12932737484252868,0.21028461618020933,0.15216373698551472,0.0065723875892951256,0.4124781617031227,0.45665712855662793,-0.2575582869912836,-0.1526747776540272,0.0010690735528792947,0.16209659579546415,-0.6389933709246609,0.3583594879060706,0.21540292415078455,-0.052378300034349075,0.2691944055275829,-0.5744403745914256,0.17105390694523775,0.9135118032568437,0.4695427020180003,0.6952739979869462,-0.291839242480137,-0.05568443122084431,0.20698515202801224,-0.5531858771825161,-0.05202767256036171,-0.0661411106848711,0.2658343529261923,-0.12882568615797596,0.10633921610252493,0.022832101691216876,-0.2367206238481217,0.016704268067218142,-0.011578750364791186,-0.010786006947042782,0.059265165156035776,0.020970358632564016,0.017629123337465656,0.010118968744004045,-0.059691952410585086,-0.042480844857726234,0.02480895292270323,0.03128198255477892,0.014210052946793998,0.026414664426371633,0.07605671347601863,-0.04549533990600106,0.014407638515046627,0.08626968008791873,0.02266770766282805,-0.005579184115401842,0.019892782481095148,-0.0015817604326624954,0.0845187957154449,0.07958775032199175,0.02177700100699479,-0.06646105350642058,-0.009293917220515237,-0.11843851187076394,0.01719644145230971,0.059849226460699824,-0.048952155734914723,-0.025198694183747594,-0.016730716826054544,0.029033069283593175,0.08716328359433757,0.024473215143371464,0.02017716126102189,0.020428530293413016,-0.08278717241964709,-0.02022296187840499,0.0051782927105719955,-0.020733085173836444,0.00498192991348273,-0.009841378980252672,0.012020447951318597,0.07828434315605354,-0.032056318333867545,0.10453555190715068,-0.007825164254631228
124.03865051269531,1.0389022827148438,0.002167841424055461,-0.05804485763351613,-0.015426133413403388,0.017807146732999643,0.06336271656138669,0.0030502795094610596,0.050468315344991924,-0.03548851587484719,-0.015835966816055064,-0.1837473543170477,0.06462092100684934,0.053194125946214345,-0.2175630035322336,0.07430563043032197,-0.053746707024710544,0.0257953731477544,0.039937810456796424,-0.11945707905792177,0.3656015287186579,0.07242384241449618,-0.15175624493298218,0.04417149786750136,-0.09284692301440364,-0.24100577616652935,-0.09237630621358217,-0.15534691131059303,0.030657992245086724,-0.1906321328371378,-0.020454879824883393,0.04682672341654314,-0.3425401883028708,-0.5083407058141197,-0.20342222150436245,0.34876443852148653,0.04070920014207116,0.14225830592442856,0.028331312233411093,0.3427034880768358,-0.2940450610996262,0.25448739158236766,-0.14507382116250572,0.03354670869644167,0.4185959405705409,-0.10065104284246697,-0.660955987495032,-0.2708363522545968,0.003596092814833432,0.3037880220139365,0.12371907313658023,0.2673610235148806,0.06369448201977018,0.14788363741765878,-0.021493910610526017,0.0927853050972992,0.037304468056743874,0.008484971614978909,-0.14668167933876475,-0.008561239370371579,0.049624132736254614,-0.01585990033540676,-0.02403147160799962,-0.11142771784632201,-0.029065994285316307,0.11347260232970785,-0.11391094581948603,0.007836567116132892,-0.11086873044005323,-0.0014743115433508598,-0.06673683505196111,0.034683825242898494,0.048680977714587986,-0.04985388434316783,0.0019093386128963509,0.010200991208015235,-0.006475977466556315,0.08220274955057433,-0.13446723127139262,0.01690923835079997,-0.09636682827725582,0.058601403770924126,0.050384510587413014,-0.04157631817856748,0.00597207328686866,0.011772197832609198,0.045273498788861076,0.0408603969513022,-0.031441576448504836,-0.05530861177998933,0.15045890843220122,-0.007606812526561326,0.0050002769887493425,0.05085338050550891,0.0010612399320769211,0.01709000762669821,0.038924540386820985,-0.027143861116496103,0.05722957952493848,0.02406568455418033,-0.028396491656607736,0.06169420332838969
125.07755279541016,1.0890960693359375,0.08047462519109211,-0.022263559357649038,0.08462577978461704,0.05411000146008457,0.05569631008263686,-0.0033805656782523452,-0.025810891666246616,-0.09892200531468659,0.008393473848114104,-0.06065310685766383,-0.2057901233669423,0.12154795244916933,-0.19485205389552152,-0.3329431631571035,0.07997366187084207,-0.1309498109167076,0.266224995462586,0.20390531044692825,0.4963989502623915,-0.03619200674105914,-0.1616936955456724,-0.3742197481430704,0.044698865156114195,-0.0019755907013429925,0.2682232972132122,-0.11150512616290917,0.028634218351385965,0.052771298534879454,-0.03788166816017671,0.2840940708107112,0.7501584634838807,0.3561115602714257,0.2202109739483285,0.2072046729216767,0.08891572619586607,-0.003286787961572784,0.0008473068793107552,0.09305423333195763,-0.15605032055574167,-0.13182111930785156,-0.05611097878729848,-0.5351848997727588,0.5119709382047606,-0.3475850699286488,-0.054167465528267976,-0.04533807519998629,-0.09506389479366344,-0.010082207340938246,-0.12874141979740394,0.01766429944136266,0.27088382182929016,0.02415664832627233,-0.18377684710239578,-0.08907000525604912,-0.04036624451605303,0.010912216177889147,0.003664893146232185,0.09348436527534874,0.03923134141227266,0.11001462836298276,-0.050144001607445324,0.11404342376818766,-0.03776018557246985,-0.04120063112349444,-0.024424670140233543,-0.08225372492149441,-0.0067014633339733684,-0.013326218639138477,0.011947320240666758,-0.0027756871173163344,0.03781438203150111,-0.01617928427569578,-0.045155581276841134,-0.03620720394135556,-0.005741336817677764,-0.051505304225005585,-0.009137128049230302,-0.016061575869906072,-0.03789141921187433,0.06520036324589724,0.10140984036231865,-0.10848899401130463,-0.015229103633543505,0.0581128533202928,-0.0016744349806801383,-0.05445209281338539,0.004238721691829683,0.02257727633569146,-0.13259973844549272,0.009236979412685423,-0.015896714535572738,-0.0394211839318319,0.022281620372019063,0.008184303162763626,-0.04623459713999375,-0.08378554781417605,0.027754183021061113,0.11597577390589761,0.06803473871417971,0.008721459776757506
129.623046875,1.0688018798828125,0.02356925497869702,-0.10545404497269933,-0.04599935170127253,-0.0124339136142862,-0.1889334128386746,-0.05314386936321127,-0.08127169617567015,-0.007401636164727957,0.09726869478884194,0.03305707843333664,-0.09860309230284915,0.04685915678072952,0.007979194179420807,-0.002968564298495442,-0.11727842098810974,-0.007072538851574678,0.21404938039766164,-0.049763190511157754,0.005700148375337888,0.02748416940190207,-0.05801224860608187,-0.09802190367867226,-0.1702462614154624,0.11582251885113085,0.12072396217819513,-0.2514862875701348,-0.18972062122771582,-0.11416168786478237,0.1671638481238153,0.034646284118824304,0.13510909355538828,0.10109249778532241,-0.04902773707435111,-0.1379916023240878,-0.10179275855659811,-0.03494752015039833,0.3525224579357856,0.019965545850714216,-0.09051650405482668,-0.07444099791052275,0.07946176943433206,0.2429739382935147,0.03862638405558173,-0.3655848894308392,-0.0537845742261565,0.48160628816251444,-0.05628924359075195,-0.07164883862123803,0.21059727600276168,0.05692953389151108,-0.10504767097550154,-0.2269423671152635,-0.06918096759619813,0.11813762640833292,0.0064489302289501204,-0.09980170374290995,0.04804817817101435,0.046300519631482684,-0.030789878617424608,0.046609497351288526,-0.02049512927023301,-0.08126029850058748,0.04056682710726903,0.03755891621673327,0.04609454383557419,0.01209320950706879,0.051203658995343106,0.05786538807290777,0.04841533775950478,0.07176095777291,-0.008231998058837568,0.05159031302870269,-0.09536787603658003,-0.034223778962492415,0.013286791788376079,0.05207288697314545,0.02333027929839194,-0.06097489389568629,-0.006085773883379218,-0.005414646133699651,-0.07468536021019814,-0.009398747651338357,0.06527547620707452,0.05670168830163507,-0.016519996614289427,-0.03842623165100201,0.10753928000842704,-0.03152024046077256,-0.09435625260525662,-0.02131036525574269,-0.013409204066599054,-0.060831207822768386,0.06685943072082891,0.008665993379887039,-0.012871705515623659,0.08345902617082497,-0.038557987353655,-0.10931211139890515,-0.06647953854061772,0.07792155059483499
130.6918487548828,1.058807373046875,-0.052058807764820234,0.057229900198262226,0.15597177580688856,-0.018605365968102406,0.04606474085330742,-0.00016045136306226584,0.04629950041242786,0.007598229105177082,0.03433488538049821,0.04953305312662108,0.04105067684300709,0.04796297323671333,-0.006178316244325952,0.030705021403036714,-0.1221149583716987,0.026072129144877665,-0.02657873137847614,-0.1492913256198941,-0.19282706740977945,-0.2536959459126297,-0.01775386321415244,0.22487204742500502,-0.08909773198544162,-0.2801772066819772,0.02457268114514268,-0.175214710354793,-0.11638616749723626,-0.2238002781380211,-0.09263536529687934,0.2160477989432988,-0.2555459879617181,-0.15067019599195866,-0.5699475434328614,-0.13019278701734643,-0.6114430650943451,-0.17060748625190755,0.04515817996986923,0.3239864090689981,0.379989408532162,0.8946268656530588,-0.0055005418750843395,-0.6126201245249158,-0.34006404452610056,-0.057269555178995735,-0.5254837829327385,-0.2787761837758341,-0.10481074939076551,-0.05671777135502214,0.06311885764390562,-0.2659651095053492,0.34353532433288797,-0.0014391269846610803,-0.11621122857156553,0.23039066719638213,0.015370566998008367,0.08229454090198596,0.012061214418348324,0.0023592359501082233,0.03374896843326216,0.05836552639269761,0.046866830341198824,0.016948165052756876,0.0143897108378111,-0.03991366458480666,-0.059863311735764875,-0.029997901513093266,0.006754033537390236,-0.03694802149124282,0.05177692663811834,-0.1337737382641081,0.04039204682156343,-0.0059939290009254145,0.053317111992773725,0.002348020195603373,0.0006419529508939837,-0.060602614582927025,-0.1280830800274987,-0.017257114006291853,0.036962258059246716,0.0479618425597262,0.009621023484761373,0.002080133376846483,0.025729391469737503,0.005675990237484064,-0.0168780081975098,0.04638470319863409,-0.13094465745791342,0.04021557625649852,0.014652963573007821,-0.042968705135074343,0.013366688409095611,-0.0006768812171992489,-0.006109537325132683,-0.03171077489636658,0.020993825619465625,0.05205907470853014,-0.011964785694167257,-0.10185500587580046,0.1272863493730079,0.0421200980026199
131.7506561279297,1.06878662109375,0.04973037600946843,-0.034547227465853814,0.006797994244979117,0.03755217574253214,0.05629384097713312,0.016063627865585517,0.12498493216610002,0.09139971260981605,0.14970406600608635,0.017820608294142698,-0.14650670884055653,-0.19260046025568978,-0.07762311901390906,0.5329642702296915,0.3049072329327831,0.14865068681729587,0.17520220393356134,-0.015933836396541005,0.04536402583138732,-0.06480177530093809,-0.06280497425424826,-0.19290704835441916,-0.002770954814340069,0.2505341636428972,-0.03850259141318349,0.19307688363993575,-0.009982004408614006,-0.3680298016014658,-0.19006016438925583,0.08652383382959339,-0.508382077894341,-1.0205811243017535,0.04790430196024885,0.20008682296961927,0.290377800130544,-0.1918674208954092,0.5204814607697398,-0.09171518864642977,-0.4448794751535665,-0.15995662120991383,-0.1284727975780544,0.08320385756519899,-0.2487089747428935,0.3579797491441792,0.11413751384303243,0.09547481419308855,0.03532487654767798,-0.23975975447540682,0.2034334891864697,0.04362370683726997,-0.23179670050107146,0.13215881145754851,-0.003967181413583374,0.07914550169711983,-0.01914736251007151,-0.0457642697034588,0.03005360595802896,-0.10467527564690546,0.006427769037000966,0.02712027582535771,-0.051363912082419215,0.13741985876657578,0.005019186000316327,0.0970253702032164,0.01975067530980003,0.06698192935436577,-0.09037948987677587,-0.0023543429508759576,0.018701513875933704,-0.0013515125428543756,-0.12516856864016002,-0.020140786205283177,-0.005382818781896722,0.0367711917117011,0.031543071515314214,0.06298345503352794,-0.004085902699406447,0.12403121938863501,-0.022747451179551494,-0.050258520602926585,0.0634738734267084,-0.010916988175265395,-0.02828564813688666,-0.02140058301625518,-0.007949005475101198,0.011627021603148423,0.005862078605631427,0.0281954936933055,0.047663138628711826,0.033527384846406924,-0.033499335218260005,0.05672707398654367,0.009551456066149447,0.07483665736391013,-0.0500539001708365,-0.056189109803936675,-0.005353589517684209,-0.054195613273311044,-0.09671269196127036,0.017693026587426462
132.81944274902344,1.0091094970703125,-0.1167783557471607,-0.006383499675169789,0.07411993792847625,-0.039598755228537064,0.00014011421734636356,0.020460685712776584,-0.05109401119674056,-0.015489754300057251,0.06204600180299168,0.061254832126762915,0.03781141615135234,0.04606607103134286,0.08607843704395703,0.16955776714529416,-0.13895055333941575,0.0378468128671407,-0.022828343797014275,-0.08318047466649522,-0.1350390533084647,-0.042404887582875875,0.037632610604876174,-0.03121606110367312,0.1253750384140876,-0.0351401023319691,-0.01345509772765258,-0.10038770824477779,-0.08042697918119991,0.11452506009492049,-0.03824626214284299,-0.06240229130613267,-0.08599110811955048,0.6581393145355968,0.3446108551590584,-0.08145963894179996,-0.21267876493872015,-0.6260353579634373,0.04142705316681154,0.18345353266111344,0.04500614608415321,-0.06160465819473834,0.26697011725840325,-0.2437219757877222,0.020211251819009603,0.03108429846287944,-0.2486276817593933,-0.06757079016253043,-0.12722611051753135,0.1273382871968732,-0.044987074515219085,-0.13961560807392562,-0.10742122691023316,0.12587438453893857,-0.06165847238466149,-0.10752569040230596,0.04672233590946234,0.07669116066856664,-0.03510264318169751,-0.0065604253651260075,-0.029256289316050593,0.03739167948161872,0.011707255422263778,0.03514240472646396,0.03325979716764198,0.018958385131782732,0.010073490110038904,0.008474609370656434,0.04411554952952438,-0.04398916242375656,0.012572422041401025,0.004368857762069068,0.03810387513762975,0.07904594910389111,0.15330254828673545,-0.0552614595933865,-0.024950031915551934,-0.01797134050275216,0.041521008975713626,0.07177843615639148,0.020141691522309952,0.017523630178639088,-0.07694980009650451,0.007849764070109892,-0.057247085150188746,0.05892535286022607,-0.0809025043642072,0.10170053855028233,-0.032007656365348386,-0.026914257018154728,0.029865738574091395,0.06693546187780873,0.02612362965524099,-0.03570190138871293,-0.09061025425077568,0.0027047954054086496,0.02648743472947164,-0.11164442552496849,0.006387522561218828,-0.0031313146569293404,-0.0514631833011491,-0.029859789060293067
138.09335327148438,1.01910400390625,-0.09988762874654195,0.02510162987616259,0.005043752029668017,-0.08368174646021191,0.016838150965055344,0.03637247564997666,-0.052874606864186074,0.10555080645225792,-0.309621617811591,-0.43637542036259286,0.19148207310829735,0.31862509349756357,-0.26532738377283904,-0.1965686137806826,0.5419774995374433,0.14276148263818875,0.02086553475571401,0.30338309990243806,0.24878970627740193,-0.08273618703123986,-1.0325978332594432,-0.10556293886051361,0.3543047995467358,0.10329571194924575,-0.010741266712771924,-0.173054056008745,0.25409114292233287,-0.22727548138207987,-0.20916648658921877,-0.46553278916806634,-0.13274557192300604,-0.007740044931353076,-0.3175069891175044,0.22217846212570316,-0.15103225002131743,-0.38402402573591293,0.13538679892035121,-0.3581931295646187,-0.40987013143066925,-0.019423464549007056,0.054813340303477905,-0.12509344596110444,0.6092010108426272,-0.30187983836291715,0.01961053550816287,0.17508477233321612,0.10530935185952543,0.05232506015313884,-0.12979023609967255,0.21242646724640582,0.15706933813112858,-0.028241195239108813,0.17926241283052105,0.014692826494873225,0.0060768858790659795,-0.04427661726709785,-0.043704905234945454,0.04060319689438584,-0.05931760252745625,-0.03561598193244894,0.0014348033644060029,0.004949931371601365,0.035663549553363864,-0.005822496521508742,-0.017625108696986965,0.08752506993293466,0.009780489897046121,0.0035458860843085166,-0.056838429106252406,-0.01969570286184595,0.00987683206264646,-0.012645851167478753,-0.014948892708131864,0.00577890410042841,-0.002149716717734301,-0.06262125037455263,0.011838352182166523,0.01271644170450325,-0.12036624067589724,0.05533312742356475,0.010358387156552157,-0.11531452991291666,0.02292869280027142,2.3078543742146088e-05,-0.006985459413901091,0.002832283499294397,-0.025970871818749987,-0.04730747997415642,-0.034590631654221125,-0.0006183154998538887,-0.0011502258150650228,0.015168657855035293,-0.0017247056904718255,-0.02690899880272624,0.043713229363250714,0.03262036275634968,0.031166999314158714,-0.015952954818136685,-0.06743084622962785,0.014738385763997781
139.11245727539062,1.058685302734375,0.011129994357604603,0.002202434530114289,-0.03550517738874847,0.0543089169724148,-0.17642566491961803,-0.032297877322905795,0.02590398911003979,0.08434940019246408,0.09869822207946455,-0.0013647199282496407,-0.01859264020473676,-0.12396458830261964,-0.004308078256146218,0.25344335044529986,-0.0887306575202256,-0.3051746171741624,0.1847535000883192,0.17991748176352318,0.15555431143407294,-0.08953631581536002,0.015111935008635358,0.03363606628027131,-0.03822407988320458,-0.08672260854631891,0.3593823432804757,0.27669832207638945,0.12966471090119075,0.13725757482782214,0.35556727436543145,0.1467089936746089,0.7029163772645904,0.20377819627149513,0.11838992230614445,0.39071784881922456,-0.11833347941266245,-0.2093299795488152,-0.009771323500849069,0.0065928432264041915,-0.11346149457935836,0.24248725804147292,0.3594606698937756,-0.270834757816356,0.3630387597719609,-0.17700278120379795,-0.00048528648724886075,-0.06958492467683206,-0.06593092190685497,0.19329133458862666,-0.16333422278640358,0.03362896021425019,0.14608622391148954,-0.02628838865163899,-0.17046696623558466,-0.12637863018580078,-0.05359101364579312,-0.05374147060545033,0.12489404220269486,0.0532701896055738,0.016799550141186604,0.022117096215278444,0.06382566405563561,-0.05482687750890832,-0.0686061747884178,0.023471903121769735,0.0015560253717350524,0.01294033004911701,-0.038520106201506116,-0.018923872031769942,-0.0031690205758320685,0.022660855673523352,-0.02975441491135768,-0.045161797916535254,0.0026891381266494732,-0.03105376094160231,0.1326262536530078,0.015527517008567514,0.03612602818471082,0.03499401150219009,-0.058112528501461785,-0.07225609293497945,0.009339803387810357,0.10811019036196762,0.053683548578963236,0.10929095608874703,0.08593276593139572,-0.051602458643188895,0.012944832418534983,-0.0521137894454839,0.015473929882198348,-0.028349371153905588,0.001095191601525093,-0.06926478691528407,0.09583192516860065,0.011455739560048264,0.0283556284448888,-0.0006029107483419604,0.01034181309615164,-0.12099891833159682,-0.002484168712101724,0.01615013470686877
140.171142578125,1.019012451171875,0.024473964763686906,0.02694191101048888,0.02998394518831203,0.0004405609601884947,-0.016538817609975765,0.008559681526579701,0.14737814114618802,0.11409264545478892,-0.005946435563371671,0.022565945587221196,0.07731625880206401,-0.06050956731180801,0.11831035759194478,0.040436393660104875,0.33925792646075525,-0.13846846114006528,0.09724051957249613,-0.20726045227381346,-0.12724648025441918,-0.0682231118115137,-0.015493850582039465,0.04464325834126552,0.16625769771694043,-0.04303735867101717,0.024620393010097302,-0.21319750349303349,0.00030476178185000896,-0.03410070353229885,0.23390441699958517,0.28900573453840084,-0.28003578213787633,-0.5851878903824657,-0.36816009032790353,-0.23021401200378505,0.21005448708062002,0.5367670091724648,0.1381847008215417,-0.6545389127057273,-0.11190376118185663,0.25363779659759167,-0.2903158238059833,0.15368279359194237,-0.20192212566135134,-0.6699750921597121,0.3320250837572828,-0.10180368327360703,-0.5060851391196873,0.15028407790333823,-0.09291467616314494,-0.2526250670935291,-0.04671637563750869,0.36649570559792577,-0.10774920912622646,-0.2664109776637318,0.0512497534437342,0.0020931622339593016,-0.01024039719677225,-0.022639126448415113,-0.013225598278873525,-0.03178419830925545,0.017169711338243,-0.00038410156414891766,0.0029642151244798354,0.011759549449653392,0.04519511079159216,-0.02804843679505972,-0.04493466858774847,0.053707692624985495,-0.07019021673345874,0.009967783243940239,-0.010523475238049458,-0.01717664247463998,0.11105075824413624,-0.0709069665526822,0.02141259332184599,0.06834921463986462,0.0424658859940924,0.0026844824760262976,0.06296855885803462,0.04545701368659572,-0.007721998236391888,-0.07198362115994766,0.009213738274624628,-0.03160101063745248,-0.038032369228341065,-0.002955154048278141,-0.0689451606169314,-0.010960209636577142,-0.11123913041349462,-0.05048981367015022,-0.019417171360515677,-0.01925170343996528,-0.07381837957470881,-0.055546040862094234,0.002390230144398081,0.05088605930988217,-0.01973027004274701,0.036019400147261474,-0.013298334422352676,-0.16287295606858393
141.19015502929688,0.9590911865234375,-0.14320901356225968,0.028581475127666005,-0.0758840564828161,0.058425749457366866,-0.07357213976900422,-0.03310838401745145,-0.06773256803490417,-0.0020977726005101255,0.10946320977014264,0.06421849253792458,-0.0300059534436313,-0.010315309583493637,0.05490504187996986,-0.2726239589922419,-0.020722309430523642,-0.030921129004492703,0.08875502781815454,0.6104932783038057,0.12653564070667464,0.049360526658835044,-0.046507927675598484,0.02319146581631372,0.2043706700745095,0.3085472330153198,-0.06870910229741241,0.10220471692300392,-0.0013704992257347892,0.27410530784154263,0.12880286573070476,-0.09907855860443801,-0.27103608745148033,-0.14322648414396422,0.1792061772892063,0.43970484085900824,-0.15103539067986818,-0.18396088207142045,-0.4626089954165555,-0.17276288891948222,0.5056391190497792,-0.10757052102736309,-0.23465904291114786,-0.12318862188918632,0.15245883080642095,-0.21069193511149228,-0.05491239785411738,-0.08420439979411602,0.12804744575894092,-0.16527152737972572,-0.018323081281450267,-0.11112712082305941,-0.09117578726701249,0.2730570975138256,-0.06834537696185564,-0.07359953899456365,-0.0066586575292202025,0.028059313975427092,-0.02845170082761887,0.03136198405558503,-0.08632287024395068,0.04023776772208757,0.020360677004038454,0.05855508825962251,-0.004353170797853143,0.002677719692414371,-0.1348333204727784,-0.015296991541999008,-0.04671983649233763,0.019570315740049915,-0.019357908547093967,-0.06351619820413484,0.016587577054188004,-0.01778926232985602,-0.060069807898392426,0.0035540844077991654,-0.019294187434498417,-0.02128673021526093,-0.008639216702163735,0.021387110075395906,0.0515895827738361,-0.12900111185445315,0.014062123385828216,0.06051171613149169,0.05013666677126326,0.007494272991864032,0.0074605349532107625,-0.01269673787668479,-0.03664159232255092,-0.04405327608358496,0.04372475598579022,-0.060997644489372324,0.03024042739136541,0.0188608994647763,-0.027604509679759404,-0.004903260307556546,-0.0419381980548622,0.04418744819203891,-0.07344386679961448,-0.02924637586270179,-0.051076434846613686,-0.01939054139229092
145.42564392089844,1.0583038330078125,-0.07483251412717466,-0.0513443304590335,-0.126244217570861,-0.027154261999875553,0.14194558281248626,-0.029582568989100676,-0.17161491406537205,0.12877935186320066,-0.06230166927317712,0.042605212707331364,0.10853871837146649,0.004039363455633394,-0.06105717739298956,0.125877304312048,-0.05910152589397416,0.06997382148452054,0.054930744408966864,-0.11848864110485524,0.1618937781950441,-0.02624011920625183,0.0926053547828799,0.03308386405516453,0.011588578508857889,0.08441741434205335,-0.007067874132055435,0.0972600442056292,0.027310520726920792,0.2500685986625034,0.06432484478335343,-0.11455637535167171,0.21835078723769208,0.025197435014403805,0.3697068698073861,0.22022475994202248,-0.4804204417117174,0.22144193202888063,0.22488600377389195,-0.39783436095475033,0.22083992157977023,0.12686756101359464,0.11953846941979701,0.7142594202417948,-0.1589576367178002,-0.35799063860090863,-0.5266363937686892,-0.3836462678370902,-0.01881430293613707,0.07633730376086799,-0.26904214517869607,0.311461242927211,-0.004307587200707446,-0.08858383254368796,-0.16510158145616247,0.010231905111755604,0.12862132237051893,0.011553228382829706,0.0571482442079029,0.023406747909785586,0.0551013548672841,0.004837343364472515,-0.05522284023869412,-0.0014574100083948813,0.009769241257186185,-0.04651342516864284,0.010262114691896432,0.05643232269481322,0.04343157916567071,0.017490108384021003,0.017595468662290788,-0.12836123877447403,-0.0005310505900817664,-0.043881756368178024,-0.016825739845965047,0.033493798205731895,-0.0247583585488404,0.012385246449975962,0.029871628491344997,-0.02027530420670586,-0.016073126104429267,-0.030729129307962445,0.0660326622670072,-0.05020700850696403,-0.03492488758096697,-0.11222480340037103,0.0316726275156164,-0.028393961619041078,-0.022360384601764968,-0.033348787573606174,0.016776021279004415,-0.0324905112418121,0.03825626631052549,0.035676583950932206,-0.009157847835974009,0.014176687891536985,-0.08812689700487536,0.052135252647592646,0.039025077430776094,0.02579405788402155,0.073883466716117,0.07427833232505401
146.48394775390625,1.0493011474609375,-0.06254459159858733,0.0723871577160294,0.04161603373680719,-0.0709095378709128,-0.024248687662528766,0.054943509651855835,0.034957802784584435,-0.010643969474061809,0.03696863280264863,0.07193393494345815,-0.05557172868914992,-0.01932731407917744,0.055489603202542676,0.013776864900514857,0.12704808157721892,0.03867760672747321,0.002299165077452184,0.00578560206077685,-0.040621327105197,0.01571467330367933,0.13274562746739965,0.10012582089025937,0.015282532419138906,-0.045842856365471925,-0.030499520141553986,0.1574104330571588,-0.02952626415049964,0.004113986016804887,0.2924041940232055,0.02745431893544792,0.13090365246920513,-0.6603462584775606,-0.20771160558966184,-0.18091218065930076,0.11975701058878625,0.48184094016228646,0.1378987281360136,0.06988913301381489,0.41265349852787103,0.25539550412988676,0.17690323311193437,-0.4131972447314882,0.23300256463468405,0.6160277779096336,-0.1887198435718816,-0.09507445092954431,0.21292935846239042,-0.5636403088625375,-0.029506636643290902,0.4593462060754045,0.05756085668768509,-0.06207563555917142,-0.15056909391340112,-0.0123701723793982,-0.07815833628911233,0.02438869518261351,-0.016721090560098448,0.05966251465103596,-0.018717158148123404,-0.02199328265341508,0.07367863710843071,0.036857171623051674,0.043701915375191705,0.04519351372839899,0.03840581418226075,0.03470262101693739,0.04915489361633359,0.0058758007144772,-0.012118617977995932,-0.031368146176220114,0.02824706219992598,0.06356918481532116,-0.023943511989794913,0.03368037680833708,-0.06455305984314968,-0.07987895330637584,0.013119770401656032,0.04400343386888766,-0.13273988079325555,-0.08830480160367897,0.047164545258681224,-0.015448511048532045,0.05267388726329068,0.0803954515088401,0.02762564539848344,0.04736838660925588,0.04486821212974706,-0.002311099247156659,0.07731154521193304,-0.021509398434145885,-0.021249688857522202,0.03297030089702192,0.05670210862912419,0.04795091637433178,-0.037843212385545576,0.017647413869007613,0.03239829611785815,0.01587269176103998,0.026831157135628496,0.0732438204955558
147.5332489013672,1.0485992431640625,-0.0552154386741773,0.015895985565832212,-0.08121709326572599,0.04434270592023199,0.006063175626862871,-0.045771857105426375,0.025478274277691282,0.1116917219782555,-0.011201877959149809,-0.006957724375112651,0.07618002838042794,-0.07565948837890585,0.07711223683175918,-0.18417861851353595,-0.037504416129935374,0.17697196171729604,0.02190187582721618,0.23960360905765157,0.1241336910387004,0.09042506774393888,-0.011165198104232534,-0.28786545032136435,0.06441034230971915,0.04425432834441525,0.13897048421873145,0.12400281931765583,0.052246031054976036,0.22248661041601356,-0.2892780127287348,0.01151607820974998,0.27322597230124746,0.08370494010706123,0.16918120810235013,-0.0892449781769133,0.28750018143045714,0.3657982048353339,-0.28379120081379344,0.15695008874569466,-0.3005405830694043,-0.0020735795551273233,0.004756659809877203,0.09199492982494462,-0.0562880076535536,-0.050828935660651664,-0.4138787379579438,-0.3451297859198411,-0.43951412943932167,-0.2908503291804212,0.13084012867821132,0.023665900216148936,0.03449517201788547,0.09070068405137348,0.06228372532174787,0.011983574596691957,0.09925040505143302,-0.01877991361325908,0.0744998307573188,-0.0490491294751706,0.03268100828477598,0.051451922550414655,0.043036375017882905,-0.011978200947579698,-0.01671626534950166,0.10975713135261721,0.013549189988149572,-0.05628373036279842,-0.060311783769212785,-0.03358716853418704,-0.11977614260398504,-0.0018522671736473605,0.007819104901883946,0.031711862676046566,0.07346813164357112,-0.014968671358529405,0.04899887279751308,0.012727435221951258,-0.03670133588937027,-0.07226179211429434,-0.03720493747530912,-0.04403309860217784,-0.029898362197403494,-0.038743744077269854,0.008942749807572942,0.06929565987134377,0.12609473094026763,0.005321135853046985,-0.007985301871638768,-0.06801836224722459,-0.011270091182943143,-0.0003552276489530048,0.025029891304738466,0.10394911880152156,-0.021699881322637348,0.04178557194868732,0.07399257012341956,-0.041930414577073,0.04914381882467846,-0.1367232758814786,-0.09771702321871754,-0.03403527661836843
148.58184814453125,0.969207763671875,0.10941447271784216,-0.07871360545663691,0.057016178375906,-0.02934166571816668,-0.1210427242921956,-0.016713299592250486,-0.00671648887648664,0.047779935258450784,-0.03124914208593884,0.05281608548948344,-0.05128642804131304,0.038929282158848,0.09487569409599608,0.0007252513565825852,0.16295177393157778,0.11043321834870469,-0.09013831716182318,-0.09052520745263001,-0.08279224558184473,-0.03297708647320267,-0.10706269377685532,0.1923248335227183,0.2550465598703183,-0.04441335337287118,0.07937521619839163,0.49212757839573573,0.1645975487051138,-0.09059827341427698,0.17964995944501397,-0.09668927762195526,-0.0003790233681258276,-0.013260823399125904,0.34692245200091004,0.6378774725433245,-0.3354844501090894,-0.08588095324529711,0.4318321857274651,0.02648288958378838,0.37002946506605805,-0.03344530180056238,0.19511207546297982,-0.2952603566064413,-0.08699667262638053,0.09287406455731234,0.07704495012795232,0.10602967939037278,-0.10138297780510036,-0.20142263759050122,0.19588103503719975,0.195860834143573,0.03586458432246216,0.024348690739162262,0.15726589365143917,-0.07535448879688206,0.05929976803862212,0.035225612908303165,-0.08244782374570045,0.038512040170814145,0.01625623659466642,-0.02836328767074147,-0.003539818662980981,0.003838688395912386,0.08379262004866465,-0.03898942169588455,0.05637952903224773,-0.004663242285082078,-0.009419063484024884,-0.016037690973519793,0.06969056045727477,-0.020125108209125206,-0.011584477307306634,0.06305981537458223,-0.03399066919355566,0.0526286799053276,0.08211327036371066,-0.030779078172398416,-0.020367765081506686,-0.011902002680874888,-0.006259828358959374,-0.048173003097667144,-0.09238542456559237,0.026293256433138776,0.0903716158659933,-0.0140936567347473,0.017277100696861114,0.0004572784330525211,0.050989895079320294,-1.8787157819183213e-05,0.020596285721591192,0.08059551002492074,-0.031135944290755783,0.018167912502173183,-0.06918750134117846,-0.008251876584995148,0.052109605545644075,-0.05217957594548238,-0.03968848207982301,0.06592150633847513,-0.01750074466262285,0.04220125901285628
152.89735412597656,1.0681915283203125,-0.028224829995807874,0.11552318025632029,0.14777962341101994,0.03359467397125787,-0.042357239727796404,0.03155641922341864,0.06097592972987656,0.004525746195260527,-0.06059613586175662,-0.1106439874713919,0.09894244437816528,-0.04086412356451968,-0.16916823046821433,0.028109952408027664,-0.009656002118536676,-0.00356692903110896,-0.010571815715658898,-0.08204396969039211,-0.1782308723303924,-0.3127292261532375,-0.37066448862575657,0.08202506800765394,-0.22103264316535898,-0.07311960207788029,0.1219479844559628,0.11347813229465713,-0.4201462279301501,-0.09735033117391814,0.17832452905024465,0.18591165636291304,-0.03798776562524282,0.4222014688680856,0.1742849532677525,0.05557285176662627,0.20198185928416365,0.2113925839821999,-0.12340300561224092,0.07048007482596327,0.2255626015373522,-0.348271425252089,-0.5219797582024095,-0.09188220034000201,0.20670654401782845,0.2494101213010994,0.1549915076431245,0.782353455019342,-0.06479380386181606,-0.04325767761402097,-0.9180521538603228,0.002471587721193824,0.25096754512621,-0.005878662468712829,0.09956117895766867,-0.1338792887406926,-0.023550117657492306,0.11701669346202628,0.22296072813531176,-0.06353664668365387,-0.05333668805931125,0.0017049446871814714,-0.019454747264303515,-0.0502386443454591,0.09304181248366271,0.060475350485701185,-0.027682186256227398,-0.049004450048019246,-0.009308868187997171,0.006603543183181216,0.08116608760034294,-0.022345697463672987,-0.01576053422398055,0.07735266724969904,-0.03287475299486664,0.043901315179077666,0.07910871038905123,-0.06614515798765117,-0.014479590299512018,-0.010275610784707463,-0.04505528384344756,0.004495057106034029,0.09286228856830739,0.007573072922541238,-0.057596966886838886,-0.0027030873577339057,0.05811650646089511,0.042929878007664096,-0.027754195689586706,-0.037694101483554295,0.08012093855672328,0.0165759582079562,-0.014030405853544828,-0.0393218967031403,-0.02234220438321374,-0.07003505721972515,-0.09359661945149644,-0.05581618761788855,0.04850323057887099,0.09893452641174454,-0.08669683068516214,-0.10191697725020923
153.96554565429688,1.049407958984375,-0.07668046149230415,0.07278646415978211,-0.06678414828288237,0.013155304603503832,0.0617685857622819,-0.0027749272039713363,0.04382224426586774,-0.05842592960843403,0.016444252477123465,0.0009979137040232108,0.06277182782785591,-0.03986987606679262,-0.04797017286445346,-0.07462028840846781,0.2951273792163308,0.1282078457829874,0.18176325503124352,0.20244699596267937,-0.1579886080773718,-0.04298178985716179,-0.1691478516630019,0.05981147852188434,-0.2122470702689172,0.1814778591532006,0.10355127207662325,-0.14898230355775025,-0.19722498717185372,-0.03749147990647282,-0.26431718937328796,-0.011713658563548876,0.529958397057369,0.03388763304638209,-0.15636284475100637,0.021138456923311302,0.12160016083024308,0.5622052554933653,0.21669404760611571,-0.3755265763214014,0.014800725855544872,0.13085488694440042,0.10688821552881023,-0.3201691194471991,0.07011254264887534,-0.10921086697080637,-0.3675447683854915,-0.5276156267731733,0.14219500680597413,-0.16357261250382849,-0.3495018972128695,-0.24950270850534972,-0.0011560554354161647,-0.055240563054055725,0.054881685009682456,-0.5986833343881081,-0.024889338701093264,0.061125378405593206,-0.06170098849617628,-0.026109892911160747,0.025810221702331555,-0.07621567330676585,0.05483557619088751,0.0017563511714140667,0.07221489253440651,0.001428105731221688,-0.024382974375040396,-0.09299939182295938,0.12757664330901616,0.013874003020510353,-0.04135960388660357,0.10703552458496912,0.0054276688681249834,0.0029319648345784294,-0.06358496419041784,0.056708479281338466,-0.0886977658126499,-0.051323476632279125,-0.062270245298741346,0.05533894343596621,-0.04903182202860232,-0.12945819679851645,0.00477517493535274,-0.07254345142603888,-0.07695127005911233,-0.05411883369230759,0.013775081379971889,-0.10898999073718975,0.017980775524453367,0.016485548009049417,0.0209662537453828,0.04082575706890664,-0.010607734637500648,0.09459470240928018,0.08943548383243635,0.02222380323258439,-0.001531137717025538,-0.11656766053730692,-0.06332097825612365,0.028530002801050426,0.010026393830441656,0.043612097877099486
155.01495361328125,1.0587921142578125,0.044305789473966975,-0.05099674211901404,-0.035635545300542,0.04593730095637223,0.026996640008456693,-0.0014692143231695176,0.022541375835264166,-0.025651632665566318,-0.06646655656611547,-0.060093986825410624,-0.003474643977396468,-0.23605248187403638,0.004650275139268335,0.3187639863552408,-0.1332105127753932,0.004548580755873651,-0.01953235857875472,-0.010590699919094919,-0.6058302858065341,-0.035284168606084576,-0.09379748558585228,0.37574327371091876,-0.5097467330375367,-0.31166620848463905,-0.049530937213159876,-0.3025611767679091,-0.23086547894172663,0.1483329063720872,0.001958708899779338,0.15545932818155073,-0.2418939709348483,0.03509803589427522,-0.17364129223253455,-0.30450647760608535,-0.1924393531383906,-0.12663215346935733,-0.03755691618077616,0.04515546020582835,-0.10181884726195545,0.48214321926051523,-0.01587943868349874,-0.13315483615764806,0.3809635502193759,-0.5736415376076267,-0.35966553531093565,-0.396830024460341,-0.04171235812636241,0.14405914136419531,-0.049599550946292724,0.10348055378960339,-0.0734022563311836,-0.2570537900981538,-0.00033474094562947754,0.01650014925117188,-0.02645820141394839,0.05032564108767212,-0.02512990143562531,0.007846346456612934,-0.07197942918277822,-0.022411093625902365,-0.005629601674616469,0.07232511191793194,-0.06274467918864352,0.0019678208461770905,-0.004220326387071222,0.06484410752550784,-0.03226331318860559,-0.0915847203353389,-0.016871760104143867,-0.015552891726734033,-0.08036554520343435,-0.058302771400039144,-0.009373232982550387,0.028778068249059072,-0.07623939947083604,0.011236704934255447,-0.04449401270273886,0.026615840087814667,-0.04300696248523321,-0.02370035314743652,0.045805653081181286,-0.013380890693310027,-0.03919658911196793,0.07576578996826697,0.009625211744441428,-0.021642568959423094,-0.04746514423010582,-0.037007707258928844,-0.06000861745823301,-0.061269475996836034,0.07232474652489057,-0.0691831257743951,-0.01923167473186633,0.01526520446784611,0.010632183443307568,-0.03930834006187467,0.0630401503234434,-0.07028503080575312,0.2028240845434044,0.12930631406635296
156.07374572753906,0.9788055419921875,0.13711947135445127,-0.07233177231216975,-0.004272163060290143,0.02483288682180769,0.008668614143194154,-0.05105914507616189,0.013077177421141027,-0.11315198205273652,0.04056652101909809,0.08044547127207799,0.08349198674207503,-0.07416866279715678,-0.05662399695819065,-0.1633957696466142,0.10523533340698507,-0.3830253062778041,-0.16732580992146054,0.005220261628497744,0.036927443634034135,-0.5240856967492751,0.1772679808991186,0.48162416359990434,-0.26249572508371244,-0.19062037928170364,0.10728644415957078,0.15747740929161136,-0.14903017239909275,-0.08234437766385709,-0.25801013338377893,0.16163409761443123,0.2739717484030532,-0.04750156152776176,0.29753644698015197,-0.3995441066997545,-0.0933540098486146,-0.016843178489751337,-0.7175216926588415,-0.45101068785483484,0.3394856789199277,-0.11351831729426815,-0.16300159599712952,-0.20912923664617614,-0.468040343691041,-0.0007897952633982262,-0.914281030146584,0.011478722334332505,-0.048953346774733245,0.04260309735149219,0.11846546431529498,-0.476644642166807,0.0890751714888941,-0.02085848327933626,0.16039037681552515,0.0624503554276217,-0.09874745902350635,0.05119334122606133,-0.04070071919010343,0.006334248258755027,-0.03922434294790162,-0.020533773421551826,-0.07777505800445586,-0.005592154773737349,-0.11148153370119354,0.10971273602820306,0.07360113400980635,0.029267499694699724,-0.05798294009071456,-0.038586320328310844,-0.016447001982492472,-0.024046276343657608,0.057487131452367564,0.008421723172121278,0.027936834288455583,-0.10007083353370261,0.05849184327551646,-0.006698244761733643,0.01723719154003096,0.02981142313274423,0.035699568414380704,-0.021146810888516516,0.0025390048209385017,-0.02659085961120066,0.024604222685304482,-0.016205547546386888,0.0017353254906950998,0.04884863108854506,0.07883724998070775,-0.03285640974782219,-0.052160775096774734,0.04028441738262507,-0.06560949444118208,-0.000499248538135106,-0.0924744851019308,-0.01717631742203702,-0.012022230081753434,-0.007528609627165568,0.06558873100847422,-0.03761062077163036,-0.04972656917164471,0.2302514161085862
157.05255126953125,1.05859375,0.08627311195378505,-0.0027827331937066964,0.009007281104883733,0.08351179650196526,-0.07177782235773582,-0.015328444351004458,0.05049710576015136,-0.059511287356375175,0.0261270584735035,-0.06811514609122578,0.027632082651012923,-0.08804578607568439,0.022976453861732565,-0.00940714549282511,-0.0435334167366038,-0.10259095518656038,0.15244493630516442,0.34824521279510845,0.24832429524510363,-0.08981094808393722,-0.009620801014848017,-0.16844099872783372,-0.10723099023762092,-0.1400743726496396,-0.015086783761043998,0.13173872720661406,0.2478492836479089,-0.022752407588101715,-0.09516803042082683,-0.12233794687784837,-0.09589488103517096,0.7483707196945633,-0.07737687542405917,0.49918171107397885,-0.05203485483948648,-0.22178214569120755,0.18232085170730378,0.16528528231322773,-0.24570584450487215,-0.08307369148158655,0.4259671600887788,0.08475239755311298,0.20173069604018182,0.02391289532504853,-0.2316318449105232,-0.23418295599272834,0.20474942835293158,0.20298678160802702,-0.1119985875363074,0.06252100329451205,-0.050058181764371525,0.07966448065277407,-0.31635401873834024,-0.022230590392788574,-0.029204023483196343,-0.01946086077371652,-0.01457489430750274,-0.014856273856994735,-0.05925114437625258,-0.08539159950916471,-0.00821570697021248,-0.0495068397653859,-0.13938125887431757,0.034247322718628556,-0.059719917973468525,-0.07956414139045952,0.032569267882958816,0.013799674638023722,-0.036002108780497755,0.032448021877238796,0.051989187554047106,0.04417261039446982,-0.06251708064970854,-0.04202269442265649,-0.037777152363511604,-0.0002961677476823931,0.010056029300814246,0.021376395122675692,-0.07073469329168405,-0.027141464038875154,0.057530019378671596,-0.07184536193601522,-0.006057289497268886,-0.046758269364143804,0.049718015503998805,0.047316441829400514,-0.01982748405481572,-0.03347297087008899,0.1565491853400927,-0.41911534490564495,-0.365196366293554,-0.31297780008046416,0.05552612661608929,0.22427647682060323,0.15750431343515162,0.32190113659997754,-0.02704084948368765,-0.10194645312017232,0.061165375976711844,-0.19311955422353116
161.23745727539062,1.0493927001953125,-0.031754815305134854,0.048197290371632784,-0.046338334127345115,0.006748480193664988,-0.020412013220012137,-0.0005655894783143239,0.01422425556038373,-0.04714809176223338,-0.08223589569151386,-0.028400084734018036,0.014868277217714035,-0.11772131807770651,0.04156942374578837,-0.1314327690240751,-0.15105002774230344,0.292267529754796,-0.1314892272010839,-0.20986869048199103,0.24814019660271672,0.05108260287198006,-0.004559923857563222,-0.039240125948355825,0.1598564111826819,-0.19682805167503153,-0.11131636208252349,-0.042450517925411144,-0.04522757460780933,0.16320477265465508,0.18698376579399212,-0.11168188956096788,0.11103341843312813,-0.49857461205591924,-0.5303688556865893,-0.03714406870622919,-0.11938352723714554,-0.26544077463870547,-0.7057789911299799,-0.1086212464238163,0.6890310531388035,0.40854897412139596,0.05822967033494664,0.07403933764939892,0.75758493407724,0.10706195763008011,-0.43852047774465264,0.01620463507356669,-0.3375674696394814,-0.02667001219490945,-0.11989423535233984,-0.3464909805591237,-0.08083739472817983,-0.106557494104788,-0.119726169092828,-0.03382445283997207,-0.0625738886305175,0.05085306830011885,-0.04273211829517014,-0.05907184286957203,-0.006749841338996346,-0.029559757493736946,0.023774715845493167,0.04398341790870075,0.008046343661168742,0.030011368332485397,0.0013157236862068379,-0.005438290429657449,0.0055701419867480355,0.02528244108340503,-0.011262285567088257,-0.006675689416782321,-0.05378489293712509,-0.020756156516199546,-0.06538516618991261,0.05826070670360255,-0.03465645386366253,0.03548137120161375,0.023685875724199675,0.007177655999144696,-0.02066561765089442,-0.031108701742782276,0.04139419343722506,-0.0015344917869318173,0.05022888017029989,-0.07519312717454564,0.07251399206589607,-0.03859214537910972,0.10026884672408774,-0.0005589094911051923,-0.04873553099255255,-0.010811520520617134,-0.05930484831084219,-0.013158924822914092,-0.016126405696916694,0.04609801918430921,0.026807486424408708,-0.09177637000367604,-0.003207963470706711,-0.04320820319967212,0.01938889990789339,-0.0718559693037529
162.28684997558594,1.05889892578125,-0.06472709840359867,-0.07006888533554963,-0.0414153845711686,0.003572019972811427,0.10934052118402289,-0.1337668526252458,0.017836843958605013,-0.07836090179876498,-0.06443837512177918,-0.05963242963053053,0.05064989713293081,-0.036019118125994634,0.011781386081315423,0.042399139688914594,0.04077232059298448,-0.22049337768515467,-0.117876978893094,-0.2398489806223932,0.010803321779652621,0.0687060683539638,0.1386202520370799,0.09831723469470408,0.03354895561875447,-0.02473272995008408,0.007894235135004188,0.11318878584903151,0.03747606292335826,-0.027027607454628955,-0.12241843020510439,-0.34163348908413566,0.16024366131312692,0.3174694043571501,-0.48612440507495513,0.04191612106757814,0.21240008520896375,-0.12482905141267923,-0.3546030294939804,-0.032166611556568955,-0.00918158878115427,-0.3513398856180522,-0.06342290714831575,-0.034072119372760945,-0.2982425276503444,0.5000701215569429,-0.24876831057022133,0.47702451737311463,0.4169947889333693,-0.5971584781595273,0.1392145849075312,0.02416259971340365,-0.16308867245511863,-0.11650042554978879,0.03290961400126065,-0.11585592222203889,0.07340522106847419,-0.11811088805054035,0.023586971749387904,0.0402435858359886,0.013672082119735599,-0.05991817764256584,-0.03639400985080468,-0.03781278513576647,0.03993597204023989,0.05918208898822921,-0.04768096596192245,0.08064952982193654,0.018568617536597186,0.10606904092034167,0.03465477982236992,-0.13394393241063898,0.026829873745705016,-0.0020472234445011797,0.008459041912096447,-0.02068247279079463,-0.018878601733138642,-0.08472097194773413,-0.10063226868937386,-0.051421912665579786,-0.044540272358677205,0.06117786874193097,0.03240423324782439,0.07356245271881447,-0.00021160576140166754,-0.03304822161698548,0.05407309834180521,-0.053894536298731616,0.0983328357455218,-0.025266457828596794,-0.0030537476428967036,0.023522061548412597,-0.024211430344935204,0.04348768326900501,0.016340039013998987,-0.012472961506051938,-0.05713752825828466,-0.0037955114242851163,0.0009769537184719829,4.6096144876627e-05,-0.030013889364852685,0.019642513465293027
163.3457489013672,1.0283966064453125,-0.10685188439372173,0.032397751633651085,0.028160105748419737,0.018739914440656834,0.01866669679146763,-0.07519565542417744,-0.041347645835454944,-0.05361851405713899,-0.015152347288580018,0.021159634913337343,0.035137334363462266,-0.02990249610432992,0.08184777427676104,0.05735396764746932,-0.11617558842681645,0.2297817975226366,0.6385501430211944,0.12791798502526647,-0.0010130057717522307,0.1211641273556672,0.25110973105478535,-0.027995800105192988,0.0705608361494868,-0.3656020545022284,0.1524911896874893,-0.3085157031715848,-0.20516089042365637,0.20149621100889592,-0.0737004922880539,0.4932324219621547,-0.16948429853202546,-0.20557502595335847,-0.23763571082727372,0.3848621107464606,0.17905635965952185,-0.46234524180515946,0.05579877518255816,-0.43926437893271036,-0.35511242982240965,-0.36171614234350735,-0.37136754599021055,-0.2580390578927989,0.10139236051064231,0.5591263209184968,-0.13466870395587732,0.015103940689495087,-0.014945516381548837,0.05397057481839457,0.09158510361019749,-0.07351346411021187,-0.00551756389298684,0.03710459106854949,0.02970698163753328,-0.046345771809263095,-0.01765941539926029,-0.016239220830513653,0.015125231098670852,-0.04723110005293745,0.026187404361669976,-0.008167147752934187,0.009439973267806464,0.0857465127164103,0.09029206799359844,0.06673814385060602,-0.0016697654270185383,0.04100419723106749,-0.062017077146074025,0.12131568829784736,-0.04817153689643507,-0.09323526921240005,-0.050104153178528905,-0.06666833054887897,-0.08305871405413953,-0.05598724774483577,0.09242304850385452,0.027108437983332536,-0.132965129410814,-0.028051224805323214,-0.04366394696726275,0.07549347466487939,0.011407015010952393,0.12884014024972787,-0.005466197349519686,-0.02643839670732277,0.057452704725767446,-0.010779176503556812,-0.006257272024229746,0.005632252377479663,0.08862479459655456,-0.024320637449702066,0.0178012512741992,0.03373963467594508,-0.023689553975354095,0.007279042262324434,-0.02558124562955948,-0.04627357266409292,0.018860989142567043,-0.03981475441219457,0.08244180590296614,0.16353736803253588
164.3741455078125,1.029205322265625,0.03157738949927793,-0.05969467795700384,-0.02945027263397749,-0.017628917220164762,-0.09332406210877392,-0.004027535121870378,0.023721079945265754,-0.07777029248622161,0.10151826079702708,-0.057707253735899335,0.11374287219359897,-0.11254206370087318,0.235775975767872,0.6848883014368369,-0.04005644236927568,0.12481336485631259,-0.16567955655486288,-0.2461783372755809,-0.14429911134315224,-0.18031142169452594,0.07625420282839089,-0.10762430521966834,-0.025195982214705717,0.4784584537517714,0.20079518035482363,-0.004984325653967619,0.17131570520635872,0.1579915732010948,-0.04534451765530061,-0.10193263005581439,-0.34708058757833804,-0.3292829362526508,-0.20774189531724857,-0.4651445784524587,-0.11852086491510866,-0.02094835912811432,-0.17206477963597872,-0.09043216140592403,-0.25034762644164543,-0.20557005119753866,0.31028699378020314,-0.5369784318556395,-0.03654878685695094,0.1926948194859217,0.41367396592839545,-0.030937900075029223,0.13648328894254855,0.2005369258498776,-0.00811636621694617,0.030842664870866572,-0.2737173685193777,-0.0016758388877876544,-0.3144338529697255,0.010094313455111997,-0.06236195940711524,-0.11738681159097612,-0.06000200676488222,0.018055908973969595,0.03741698511504008,-0.029922860683096124,0.026811171986350208,-0.01722986813347037,-0.016043699071654677,-0.005176416280142839,0.026340012240557126,-0.04850592605917811,-0.0308375635639996,0.043746989254065005,0.05779421664175121,-0.015583484479869578,0.0650381113486629,-0.00853033112386077,0.050103143149764745,-0.10189765052117598,-0.02308783089310094,0.0347538501405387,-0.03787693851456349,0.02960355871679518,-0.11355874519024563,0.11775925222178561,-0.005906686357202082,0.12687737936648544,0.008490697543566536,0.02354327316674222,-0.08337376165512701,0.09753534991171456,0.02795708138612729,-0.041539879496879276,-0.053541674025350226,-0.011246401371669875,0.08070418957886584,-0.02726125645910025,0.024132836296064265,0.017220240216077147,-0.03361645321940432,0.08201444391068236,0.06413075126222045,-0.0270993497453145,0.012674157670730178,0.007062661010271448
168.78964233398438,1.068603515625,-0.0055145999006221275,-0.04532710708748871,-0.0085189287970385,0.004473437253421218,0.18874140164186468,0.06680468385264347,0.03669455590920968,0.00961303755522295,0.08111687113677905,0.03668444497178724,-0.012871324015083523,-0.11216715662965104,0.03659907570626585,0.0737670459113281,0.1735763468937694,-0.012924267701626288,0.07725263973783504,-0.22736395704652404,0.1674723945251757,-0.1796499734968205,-0.024778198122177644,0.3980999831823691,-0.16191344109928307,-0.16157906243243592,-0.3201477074572474,0.1225963444648622,0.013590063476194642,-0.12808346240567878,-0.05922740220087418,0.3356813044824581,0.0627713899242606,-0.19375038724045396,-0.04473584060747534,-0.1252874318651125,0.16079451331099162,0.3499093948013771,-0.3887867200922048,-0.05927687097534648,0.38307191428211046,0.09022320150973043,-0.4694692251967193,0.04850013294976763,0.10904722963833247,-0.0033360303205021563,-0.1300542666439234,-0.0002796531378571193,-0.36052664444058036,0.03690715115547899,0.3713759718382671,0.04995282284479936,0.2795181337839673,0.27946466945695214,0.01983412879571675,0.0025387371212774014,0.018975729924865514,-0.07025230250033143,-0.0547933370362404,0.03041091410826828,0.028289352473107477,-0.04941044409680076,0.0366361116492831,0.07561693238502191,0.02535064929892143,-0.03339356359519114,-0.040185118860531395,-0.0629845057276876,-0.006264812109548644,0.054820761925481964,-0.07833451051652025,-0.014682736063224998,0.01563800088189793,-0.0794073183461555,0.009595975163818292,0.06658180041600356,-0.022367637685498404,-0.04317857128956314,-0.055700835975927086,0.10752012941503646,-0.013070493407130339,-0.011949566147901075,-0.004609325753612845,-0.03173305816738658,0.013178914911917392,-0.039909109645865345,0.018072466997435744,-0.01966758413779218,0.03185177131171685,-0.004162481034395621,0.022786936851174455,0.0018476241796727827,-0.03993432031037415,-0.03179754796342834,0.01860791911283786,0.052096359662949336,-0.060771102646262815,0.01248068197901048,-0.061429494120306266,-0.030057382899804697,-0.0008176223786191539,0.049492479724309826
169.85824584960938,1.0684051513671875,-0.07671909899618178,0.12730747895255662,0.006213038788166619,0.02865014565635412,-0.007127316196001036,-0.07484508746924187,0.05922482153887826,0.004319645138232468,0.07276402668834682,-0.018412156279211403,0.08568465484587484,-0.16805523036721018,0.0007383535670678338,-0.010081271940344042,0.17149247887155922,0.406628021956632,0.12611575935415378,-0.4072651430539359,0.3188076123009641,-0.05008514730192257,-0.05942431003062047,-0.2109644607067656,0.015510140153508017,-0.07188218464246508,-0.09829745337596402,0.13418178300299055,0.17212472203256934,-0.018103971513071852,-0.2731216791025243,-0.14780849274065358,0.32022704263366875,0.5967739112596157,0.09239595960507996,0.10225329302185966,0.13862551479742033,-0.1290313728482268,0.18273290868369077,-0.08010804607834045,0.1211440574217179,0.16685499946316754,-0.019254669886184267,-0.0458023992528965,-0.006567947143889558,0.00256938760669558,0.19667804568538635,0.42209097910735194,0.09597575264031588,-0.2051049768069535,-0.13500834372999526,-0.005851037048140058,0.2057524239870351,-0.05954540411730007,0.16745348195576454,-0.470427982331701,0.013350163622254982,0.025093533118230336,0.03154789752798273,-0.002092068362345982,-0.03871674661123993,0.032189867664196396,0.03898610392652632,0.06677179715478748,-0.08022325139725615,-0.06203474456072676,-0.007644263129974235,0.05401458865384444,-0.05614536744236389,-0.09304380362575583,-0.03243016181481943,-0.03817308997906216,-0.04570973309286744,-0.007148933555944592,-0.07942503560644933,0.07716701861843366,-0.0716412187140313,0.0064100436139195435,-0.00592752677498119,0.07149963345494426,-0.014198868181758056,0.038213037586002696,0.028823412202763615,-0.08931368422205688,0.01431059831028897,-0.03604480416169578,-0.036502346626291655,-0.006695109349431199,-0.05835543013365226,-0.04979403917533967,-0.025360272609553397,-0.0379384630852183,-0.030036640376997374,-0.013123373927694583,-0.06677577602051593,-0.035036950811226646,-0.007154563197647297,0.03049937760840843,0.017348261141589907,0.010789977078102284,0.08034262215656507,0.10647055300658945
170.92665100097656,1.01910400390625,-0.012293527182252503,0.11002304328639913,0.07804262066229288,-0.028934994678499647,-0.07671750936425133,-0.023116761327933933,0.07390392616291941,-0.083892825027284,0.03998602190226752,-0.06400413689583646,0.019658926370719445,-0.05563614864921324,0.0547992382996912,0.07612279774209643,-0.092350116452364,-0.0231632104527765,0.19217404480490388,-0.2795877823504139,-0.060361491350461746,0.3221660885346158,0.1707060377766192,-0.3068282801307586,0.1431250648717191,0.3177889116567346,0.10273835463092158,0.08860633931184082,-0.16809214806528813,-0.11488609713618744,-0.14769770497682194,0.2053627920395204,0.0029300516546707234,0.19495979205069158,0.18669858348137724,-0.02256703176616953,-0.37450999301396143,-0.36426749999000907,0.0838042492349356,0.3817530707975188,0.23443601147216822,-0.21390316420255712,-0.2795266918385493,0.33243390529639666,0.13269628906163716,0.27591737188670995,-0.28138779526374647,0.4091566760101201,0.16062270571385426,-0.20769044593782315,-0.48657998755864174,0.2502939604148918,0.404802199440657,0.11925444231466245,0.10934645968510752,0.0776866454479875,0.0398366167904468,-0.023353109247029533,0.035240992974873174,0.011019667547358529,-0.013315949823322503,-0.018172234842860527,0.06052919749838759,-0.012904367642006361,0.008664883722118145,-0.02173003444633841,-0.00899809654141772,-0.043456484887897086,-0.049838922520028285,-0.024109499954797803,-0.06442076122082528,0.01570812217613409,0.01948911157945037,0.06971526257466489,0.011617760407610919,-0.03292735904926458,0.023321770891810555,0.0071418858714866335,0.04462487486817138,-0.027532352940732294,-0.10749405857522519,-0.03252160713871867,0.018365332568754444,-0.06771190649827742,0.01748628087138856,-0.04266686090342389,-0.01755816269247515,-0.025308232816193793,-0.015551444520741059,0.07235257558757416,0.0900580483337949,0.05043531863033653,0.0493042274240139,0.09071278491709736,0.020036444329443133,0.12778392408434067,0.0030592457972951686,-0.007865175770387482,-0.01263834704199246,0.07561988594309442,-0.020235768888020755,-0.015758476834257577
171.9457550048828,1.0290985107421875,-0.006715778296259447,0.04816862036374424,-0.09505933224855091,-0.054527460810897675,0.05248332428505898,0.07579385634473342,0.08648978954447319,-0.028128195739285922,0.05589373501744722,0.07531284104294611,-0.12806932937156584,-0.2468209474259363,-0.37892075421786925,-0.13028626773526064,0.7986641576860185,0.47343709708700743,-0.19160712516439216,-0.17519003795810661,-0.3427737041875672,0.15784539969157216,0.6265697356546251,-0.0451435183304128,0.1260556091717393,-0.4506352485840991,0.2146901737957413,0.20971295274796575,-0.06096546472376358,-0.140078155164327,0.3913822528010093,-0.3859787742395819,0.38430473086094424,-0.23629264230365404,0.03006602915379586,0.20601995749558738,-0.007831811679658901,-0.00828098781859283,0.12600930341335384,0.049300002713874795,0.11828379872300865,-0.1864716394092284,-0.03380787029594151,-0.35885909056011345,-0.12331259852039922,0.1037426443187758,0.31256435219457857,0.017265511897256856,-0.8129801829616563,-0.016941527233296592,-0.035580078228097486,-0.1866249706638135,-0.07007947884628125,0.11796653026659482,-0.09992230232729662,-0.07070509387024096,-0.06560730687605806,0.05591139337415679,-0.0068219658393112,-0.02801012469133799,-0.06976703421815032,0.06775934587814478,0.002071386266275607,0.028005720573104114,-0.08275881091444022,-0.007653919487880467,0.019946277768843976,0.001941356825674435,0.06683988606411098,-0.03454749948755534,0.03970605376737654,-0.06385128373941107,0.10563190132054545,-0.03823364283699421,0.03689852313904826,-0.09384660808862963,0.024666336319999763,-0.027824943208823227,0.010295444856127708,0.05830797784664154,0.02862996021207675,0.017971707028135803,-0.011596020139570657,-0.013810766839189043,0.03728178555917357,-0.04316911071678497,-0.030379885597901654,-0.026649846197307453,0.02259120670104349,-0.0011598950990997794,0.08737311590002667,0.028033452776240766,-0.032808587806147746,-0.02363646194545085,-0.05126577920077967,0.04725478310000126,-0.003516605064918344,-0.01207240835670527,0.05977925579885251,0.012838333307594544,-0.06418022758244901,-0.04022764195878098
172.974853515625,1.1887969970703125,0.00114526352372063,-0.08751949795146632,0.020418711671921098,-0.06216996100745767,-0.0028340468436648847,0.04549771096773135,0.11313967596370193,-0.0349878834837222,0.09390377676218983,-0.09361120653509952,-0.1120357235764455,0.11112107604356426,-0.07089324412954362,-0.08951646124685278,0.003031280180179059,-0.05823387570114115,-0.23453055534636505,0.14227168593352327,-0.08152507069798964,0.05382312930672954,-0.7458966401921805,0.09843220890907997,0.29124908626969526,-0.38322088959371403,0.4686338471663632,-0.11269626619567963,0.17915317460452929,-0.28658583370016827,0.4209661175229463,-0.11385120232250395,-0.4166129628238253,-0.17831312013128503,0.23575205005749839,0.3282679938725029,0.07579838983809199,-0.10505494208370114,-0.03764990258865873,-0.4121934174684228,-0.3441032928112897,0.36155241973188545,0.22810053341693542,0.20664720114770502,0.051728139546461493,-0.028103810942204918,0.0431581449035018,0.043715249043390685,-0.03931132368573628,0.033224339194329794,-0.07103084618077762,-0.08164773836528016,-0.02536852086152219,0.08015083708155442,-0.115290486116733,0.05956401221356505,-0.045587530305357865,0.02643083459909973,-0.06671318559497674,-0.08682813147862664,-0.04188776634442626,-0.007898001777176734,-0.021963968184735994,-0.07076210421035449,-0.03239762741922343,-0.09064960569181955,0.041866009499075915,0.051199671166173605,0.010532667168049724,0.05732282936732313,-0.08683786815362386,0.09832936996460825,0.002538205213472127,0.05364577646019425,0.028236291334699886,-0.028757969662587226,-0.006830045501182884,0.005429343217170077,-0.11546238260684756,0.03769610245102223,0.026442913846845023,0.01055354947829186,-0.03377627141524603,-0.03899804498442971,-0.021842419627318473,-0.01954807506518502,-0.05340915808096098,-0.006287266582588679,-0.059339692101859534,-0.05344314285162985,-0.05917576736692352,0.015269135871078596,-0.035500922252800104,-0.007220891192346632,0.03189701501093214,-0.002722846013495796,-0.02109265260025236,-0.11590934964064394,0.06241423649271132,0.027942335781161093,0.04322283262437541,-0.07042425040053434
177.3800506591797,1.048492431640625,-0.07017383425296961,0.01271174736592499,0.027772431016789875,-0.039351127175255365,-0.0011077841242158326,0.029978447131458044,0.009887729211101093,-0.046867943145037234,0.08911215787036403,-0.05717017178469955,0.09258092504465341,0.009621508967064589,0.0270553583254383,0.02787786970008036,-0.05869007798726179,-0.08244887961512178,0.24318754022361816,0.05354597770874939,-0.16364548350806926,-0.06579738616939847,-0.06045851989794191,0.055659829784080905,-0.08792174787449959,0.15199930980424148,-0.046189646831512755,-0.011671658355078982,-0.06900696910183911,-0.1945910891034618,-0.2713089069182766,0.07053658026789826,0.43501616654814745,-0.16267161480304856,0.06768668030788458,0.254236870259314,0.06417540536645437,-0.1934053525758175,0.004521285424142478,-0.32077164001627095,0.017670056189750774,-0.045031911972913244,0.13658063124267913,-0.3030182652885542,-0.1783778214218928,0.02000117290573268,0.28964459731736913,0.48874750097269337,-0.30183831410613066,0.19634255752627133,0.020994744385126916,0.0383379360033512,-0.20942161469277576,0.08411070736737866,0.03327853238843106,-0.02115257520382399,0.04461585837448982,-0.012757642505172846,-0.060718886359307125,0.0416445136897176,0.07936378306524011,0.06271239365542686,0.057214489907089335,-0.01934725261650086,0.05152797798926984,0.013245931415178339,0.060012890308632785,-0.001931518767865069,0.004049727494718061,0.013357450057462807,-0.033658014275865816,-0.017943720848034556,0.04164065584914585,0.030416484207406544,-0.02273062769588037,-0.0810255653915487,-0.049575141216464946,-0.10915213207146153,0.0075131125831941785,0.06812252476312279,-0.05055720557209331,0.0013769600304820162,-0.06235717979974979,0.027007027410949562,0.05288396403022386,-0.06730499239789711,-0.01127605301154716,-0.01587401811512447,-0.03604954742901961,-0.08826410729694235,0.026961431653286162,0.016450374633902004,0.027938096269587993,0.013632594302565984,-0.10069265653716426,-0.00024900109288822207,-0.009942706041363566,0.01855933547126533,-0.0992220702234975,0.04734515212475015,0.0779978310350411,-0.04571414384784758
