start,duration,0,1,2,3,4,5,6,7,8,9,10,11,12,13,14,15,16,17,18,19,20,21,22,23,24,25,26,27,28,29,30,31,32,33,34,35,36,37,38,39,40,41,42,43,44,45,46,47,48,49,50,51,52,53,54,55,56,57,58,59,60,61,62,63,64,65,66,67,68,69,70,71,72,73,74,75,76,77,78,79,80,81,82,83,84,85,86,87,88,89,90,91,92,93,94,95,96,97,98,99
9.550649642944336,1.0087003707885742,-0.0692508363720093,0.0031860808352854823,-0.012798667458244992,0.03971716110871333,-0.16644642332024442,-0.14001348022761784,-0.21663049447995394,-0.025339952312936613,-0.20449764041853713,-0.1726688585643049,0.0528049194708725,-0.21962539066733297,0.24631574902211736,0.04575725762169446,-0.06330289492794536,-0.10087940224424875,0.03885611617066545,-0.156508512179583,-0.09909761249038815,0.19770900023262733,-0.05070078057822263,0.008877993167875032,-0.0003542766935997182,0.029423564886340972,0.10556905273421331,-0.07114742982372263,-0.12230523273656849,0.06656337572059771,-0.1859297387540953,0.1788143207361714,0.08953928947040177,0.14614945591341,-0.20345065948966146,-0.1012597320227987,0.04349715773505053,-0.09660955540271006,0.3149172237860251,0.11680144308729314,0.15659959798704245,0.3825387596540501,-0.12700383720640773,-0.5786546369596707,-0.06901528589598314,-0.19493575267523794,-0.6388713368082459,0.33438030445267886,0.017563128293918,-0.23694329008287962,0.1556235354056369,0.20959511208499007,-0.30107861771923394,-0.1515698035543773,0.1750990502731143,-0.15385240025592292,0.042899114541098106,0.011441183530633227,-0.10532886117301596,-0.028185254799338724,0.025541614142299836,0.0117839521878527,0.09941417835519296,0.002013717439795045,0.04041227802050166,0.013146274255896364,-0.16501723031736404,0.03511221699619649,-0.09513161558773534,0.015148323789651988,0.0905347459149403,0.010916092219397145,-0.03216838362719909,-0.10163958297848891,-0.00027962566172017034,-0.053234228165493634,0.13102985239851792,-0.03405651144988169,-0.05377004634476018,0.0232913435235517,-0.16806986074559496,0.13805627202539275,-0.052857878659764476,0.028278976193927857,0.025810798559497018,-0.07390237950619025,-0.1319932136468794,0.005177717301084621,-0.03641599006515696,-0.010346033277582822,0.047196440384572116,0.02931253252721762,0.0714374250919433,0.14126632472410172,0.16670770447770933,-0.19391380821985177,0.18969959229163305,0.051951974232168505,0.037710544617145236,-0.05155222537782221,-0.12736392667539148,-0.22609167889931397
10.55935001373291,1.0083999633789062,-0.23073103620341467,0.08938244600674988,-0.10073204903558111,0.006881503491688057,0.25852024590965544,-0.050468278320203036,-0.16045248246160934,-0.032047104497759535,0.04696494403038381,-0.11707619291654309,0.2676303439260519,0.01097190823430979,0.05311168936721286,-0.3668616440404583,-0.0649899026743933,0.11692028508679339,-0.11262158822501228,0.06680268772171745,-0.025458189617181187,-0.07009749371696937,-0.1254494120883426,-0.041196303944432335,0.0010056271103615656,-0.11925883796766165,0.03197136326876576,0.09598845309387423,0.0704360918986453,-0.06704963070033064,0.0008492318751987431,0.00617855623233054,0.04450757004803519,-0.11581856357491054,0.04754479029036757,0.08496916783419395,-0.08127870816431632,-0.2310487171319357,0.41864391677042284,-0.00039945431272163335,-0.1882899059962838,-0.3734003700737749,0.17656691746414674,0.4419600607536506,0.19238336374128262,-0.11807117266771258,-0.41074593028137973,0.1567128207482849,-0.5166009237660921,0.23283318232970593,-0.11182189650475374,0.6585798103883423,-0.23682254683202347,-0.1738378368638085,-0.03019286982199462,0.04135085270836107,-0.12339138600721161,0.061880982741067445,-0.03520343612715207,0.003142088929511234,0.0212673354951127,-0.008800893155310923,-0.005717073685088411,0.15141819348191743,-0.05685917040808953,-0.043259789081357775,0.02153594581671957,0.09180641416212677,0.012337992420555608,-0.037840577906690764,0.035941176260601115,-0.09244754377556323,0.054807493181507336,-0.06954412979053891,0.07284249632018865,-0.060893561467428386,0.06640333453641661,-0.09412551755689316,0.04917711705311432,-0.08372723558761506,-0.04538300955338905,-0.03767351192093527,-0.01354860409111263,-0.005861215328656573,0.010682268641363945,-0.0870257078174015,-0.05706240914993248,-0.12769871509636452,0.1620729477394489,0.016116957429050414,0.17541113437779557,-0.029887622099752344,0.06946088302726351,-0.05399360251488391,0.16385026118021798,0.10036748842002698,-0.16450121170716803,-0.039462989955342635,0.053520888203402735,0.2589931504846591,0.03086167612130293,-0.011064156263259017
11.567749977111816,1.0392999649047852,-0.016249018105147506,-0.059450618014533635,-0.3604244728229309,-0.1277839072716897,0.06820957406349148,0.05438481712430557,-0.13550049000452435,0.05763528256672723,-0.19078340908142694,0.12920639792474742,-0.0990553376331059,-0.39916884718869733,0.017976662986617986,0.11092952251409346,0.11039474882636593,-0.049774254996256935,0.08677962925522972,0.08688661774662212,-0.22331768808839575,0.05407186508351115,0.12517578137094681,0.03505539435329032,0.03947587567712518,-0.26427275115551097,0.2147165085507254,0.229860629774357,-0.11595756353137314,0.06482096330667066,0.0002168903698392794,-0.0882101464941061,-0.031981729407577014,-0.11444250984343488,-0.2079533299060702,-0.23050283819137507,0.25221417901689636,-0.1031230148362613,-0.0866870205819058,0.20942999782207936,0.09600691590343782,0.07964335723482802,0.06944084970453086,0.2752518619206072,-0.2525688029988847,-0.2862398552484187,-0.1468253728887049,0.44878283335426117,-0.2820782221221374,-0.30935486548906765,-0.09871982791119081,0.4498611797960838,0.10122887297678979,-0.06640186216867508,0.243567840866654,-0.44091408528150494,-0.33760768649289347,-0.0032253236721330224,0.014767245361056008,0.043578036910603545,-0.10754466975357385,-0.02366417224883873,0.08342418243173143,0.008574967865360496,-0.03928284525062929,-0.12249041727423103,-0.013931377907031667,0.1287636309330828,0.024291078459243956,-0.006330546067238478,-0.11322847972801257,-0.011997473162572764,0.12931173138370997,0.0643585682355138,0.08061972609118713,0.29732694443395413,0.006495359907626088,-0.028319738377638126,-0.017488945767977652,-0.009393803894580626,-0.004861912903761538,0.03057610900733152,-0.13097864981557392,0.1080095746279834,-0.01811018755747968,0.04401431481789347,0.017375813735414955,0.011888069577252677,0.03584219500585107,-0.11010772387009478,0.0612570444487941,-0.05299864602505659,-0.02122672417415015,0.0774904186910686,-0.03003308258064416,-0.145988003418491,-0.013608912229273788,0.056176498741943054,0.012579866313326115,-0.26113410911912727,-0.22587673840838196,0.04338954600175089
12.607049942016602,1.0784997940063477,0.038208527562052695,0.35331830276911214,-0.018376312201118173,0.05298354525497014,-0.04755249736259473,-0.08683842528047626,-0.19520595182261954,0.10759229526429774,-0.007367696295928559,0.09753800747463583,-0.1787707125264455,0.0024927756770206783,0.14192184620459303,-0.07226725975259363,-0.2823710219612373,0.12288509752763017,-0.12879581691914477,0.28134247755152575,-0.003317365878898179,0.05722264519455748,-0.4261674461134984,0.5673516651537485,0.31841767083371897,0.09180750129286959,-0.22849987257030518,-0.0011452655106641285,0.33858623597907384,0.12379291063050375,0.262763086471812,0.259477232621638,-0.43225544900202906,0.24237637383566465,0.13531216465752377,-0.007105936485165319,0.09469292988880726,0.2420465641450335,0.20252926224589746,-0.02656189250394054,-0.5016153957349627,0.18344374374520175,0.09816383013624189,0.08330920961705365,0.005372866609219316,-0.29289047387546574,-0.18905044825676331,-0.41214006590012137,0.18192881492072666,-0.029553976851288896,-0.14042866685141242,0.010297426646557615,0.26345906978157013,-0.1255223488981319,-0.06334728431811923,-0.08600509060728101,-0.08804093409548143,-0.014187160438839818,0.057652959258646,-0.14632595289267858,-0.2914951375385549,0.05800039899286046,-0.00827192366713909,-0.005678921834020395,0.0793645476103055,0.05026317547736617,0.007958829081029767,0.02127492650058726,0.04935322066453471,0.11472495888756767,0.04202755979038385,0.007593586402912608,0.036601978197760524,0.008645152865606168,0.07598785638205151,0.05991971190907547,-0.028598866456974827,-0.09665934318324448,0.10696559817382811,0.018782580448311357,-0.05732635007090979,-0.14322021894501813,-0.03725251072640224,-0.05256012313872864,0.11651457933261616,-0.06814732780023347,0.03296914827582934,0.046573855012931195,-0.04885796178040229,-0.015627108768889064,0.06005752011254094,-0.048398721847984355,-0.001373820767761172,-0.0703458083467494,-0.057333574393178426,-0.12299871606927805,0.0019901432070086197,-0.05511930647808726,-0.060194338610723395,0.09648426647154248,0.8578625813322591,-0.10534530736130168
13.68554973602295,1.3388004302978516,-0.1275651674206293,-0.059568979440010446,0.23876884039175303,0.19610346429259454,-0.2191078300672754,-0.15801951026465177,0.13069649931615404,0.07608239459406779,-0.005356337245456798,0.17565585025429908,-0.09731037612825742,0.0608341282750456,-0.10378229680037959,0.16792222320897401,-0.1240281762813231,0.030356906198923905,-0.010058258200694744,0.0577786337795792,-0.10460209886181653,0.17182972939230148,-0.18069480614633168,0.14724209712629213,-0.002512905295616264,0.005614260893705644,-0.07250255881836849,0.01821154832990647,0.0117494620977125,-0.08678938323901308,-0.11907840850811562,0.13840704482664848,0.03515166748925022,-0.13196556186945926,0.052142229997426584,0.08399747386028404,-0.026702103015646243,-0.09873116725493403,-0.06068601105895885,-0.3454970950912815,-0.19910333609691863,0.14300070642169124,-0.061897919071157236,-0.014686846747331908,-0.01318783035943509,0.19691357281695504,0.22937252510044312,-0.07952474446777784,-0.16285217740896743,-0.34970951148902796,0.07665180134496673,-0.08251907406219866,0.11472933506067527,0.08219118689554887,-0.05056430448430753,0.06484510992749408,-0.008174319772977556,0.0017987248307008397,0.0059711452495567465,-0.0049012054465861835,-0.08496475116715277,-0.03914001712373698,-0.04282767213565083,0.05931048092797702,-0.04850459917850189,0.06994248781592748,-0.0014703438808505082,0.06616836026730209,-0.008754240404871421,0.06392719863110245,0.039675436868295125,-0.05233948191873075,-0.05307411019219623,0.09462190509735123,-0.06132551841644464,0.14098241369972106,0.044226231987722145,-0.09938145219868734,0.055370123777714275,0.07793229087338129,-0.11835283755638562,0.04134677847893577,-0.08597834911433375,-0.13815373397758077,-0.11164720778080539,0.01355040369658081,0.006257967090476436,-0.08417934630210788,-0.0688821672793784,-0.09175653198361847,-0.023563563460722997,0.10934965866785185,-0.04787773044138967,0.0046689552164230815,0.0784415507354291,0.03594282136905884,-0.027657974528002033,-0.03801089857107737,0.0406824075260071,0.007962427438254233,0.3384896124788508,-0.2036460135418965
18.19084930419922,1.0181999206542969,-0.03820054511335164,0.17782136400951137,-0.2747094154775844,0.139817852559499,0.19234228180545684,0.16698141711706793,0.019930881745888182,-0.03280371584495191,-0.1186851936773117,-0.07768755877428248,0.1473067147438033,0.40299785950545963,0.25079224530920574,0.20281731139129713,-0.25478171867975974,-0.03361787822639989,-0.09468005535269126,0.10220561707860529,0.08239665155015174,-0.16433509245100453,0.05762566577769208,0.08186300822395155,0.018415673584352782,-0.009838060996042954,-0.08988166021812762,-0.12674876168470078,0.046304275179732006,-0.05105381956765441,-0.033864819665264945,0.11507249223171938,0.07831175441497741,0.22028400634369844,-0.011201202111035577,0.09549456373308486,0.10030016184900066,-0.02772394587775301,-0.11673854560274873,-0.33924810436489033,-0.07206412042518107,0.11250993044355295,0.06554233262025586,0.19328857764978483,-0.539190684245444,-0.24491318059530431,0.3168782977355539,0.20350902655877387,-0.027980530357000176,-0.21466920433810616,-0.1958985933936792,0.2516921200198588,0.18059737883998914,0.4714712824043323,-0.0789127305085918,-0.26069080923735904,0.0390403697548096,0.46654977287081034,0.02164435720112988,0.007241018376344973,-0.0375158757415958,-0.06170895349873708,-0.0010729450672532826,0.0047720433323596625,-0.030770880030117655,0.023064110994249404,0.058348851942811905,0.07226708528937839,0.14714637472883332,-0.002952302870737016,0.07198383294877561,-0.049094716388988234,-0.10988114432424395,0.0975353029032509,-0.009755766705785967,-0.026015806858493012,0.0456564511315955,0.04504349702569127,-0.027306086321208112,0.09642218990600455,0.10725640215880186,0.008158511459016084,-0.10211717099742175,-0.09865024410742329,-0.021834268514753813,0.0026844294714465367,-0.11537814077824624,-0.021992366094744004,-0.03701851369805647,0.21796970370722143,0.1651496991853749,0.09666711144856054,-0.05803194505892592,0.016463200129254736,-0.05349025061321448,0.036175667086187975,0.07878890830160042,0.13660613851324271,0.30691903859465164,-0.03433111575348661,-0.02438266912576356,0.17242994284616414
19.209049224853516,1.0589008331298828,0.18036394560660907,0.09128175735735096,-0.037666730745706395,0.0119501886291272,-0.12866063095137678,-0.21265298395547189,-0.06117897193540872,0.008695381001897652,0.012244468961650379,-0.16013606080989093,-0.0028059530681349976,0.22219886786499582,-0.014074298042156777,-0.11145535104627584,-0.008229659929772593,0.053030412533632394,0.09761548026897085,-0.101412845360152,0.11615574453669703,-0.06912070890935096,-0.027801367984364295,0.06339372841976433,0.20603368802355035,0.0730514731384434,0.039844568992962216,0.0053353873653185285,0.05415197733307578,-0.12166307589807217,0.0005898705338060473,0.050574163698002224,0.06121229171595816,0.11553097521896853,0.13166577803937013,0.16688424858671866,0.3908738678412055,0.0015051357055951332,0.1743464643098153,0.00184501429097908,0.02214558022554004,-0.08385612100767373,0.11730968247459832,-0.37139981776510866,0.3059428830253773,0.11432088815926361,-0.2882391670863606,0.23675094542914288,0.3694762501068779,0.4040792026446291,0.10730472849969863,-0.09083560502186806,0.021905258064347496,-0.151371047797226,0.14366301856200664,-0.09440279693510072,0.47477194393004085,-0.17867125026878156,0.03122052981797924,0.09600158638003715,0.010244702120300184,-0.14784834128589797,0.06695437353905524,-0.0022120563367585525,-0.08241098763310024,0.0539783725877319,0.12642420564046714,-0.10555994675864591,0.07739937413548977,0.07780038938806748,-0.050517127208491136,0.005273040486042964,-0.031246185367674092,-0.053338368589789555,0.017467011629924103,0.021567762898422424,0.039610535750896875,-0.07696601770735527,-0.05079728905177437,-0.1503819288808158,-0.01146655108696107,0.05601587280144795,-0.035337566603384434,-0.08030437741418853,-0.10979480532010716,-0.20832852284520817,0.035181847688551156,-0.12521821138526124,-0.10564826969762281,-0.1416266384440959,0.05996371420828017,0.042980732622699074,-0.00422940014458561,0.07067885566338683,-0.03842183333077637,-0.058555497568118946,0.00837748816914513,0.14806820973917,0.22624181419222822,0.3117075641656979,0.3055762693023969,0.05475354287203771
20.2679500579834,1.0792007446289062,0.05637263839502743,0.38165494508009246,0.027445903979052222,0.40614259268747943,-0.07451948154301331,0.5386903415406228,0.11529740187980367,0.21647444813916958,0.2515609067048768,-0.15030682340806611,0.3163186758087749,0.15106068029244177,-0.20587032455043922,-0.10800767476503707,0.07001188905936141,-0.02547017569332928,-0.07112388691189003,-0.024330849839020306,0.005613720619877133,-0.04645317969116375,-0.1765458900543256,-0.14968907430890088,-0.1022320652352609,0.061569971053068634,0.06101599622715392,0.04899182519498217,-0.020152071312974747,-0.0632175655700632,-0.02998973790260935,-0.21952688475413978,-0.16808661443586942,-0.024449755944676597,-0.0037424750426518173,0.18784445527950813,0.20444877951143708,0.020893693872336583,0.23109142619272582,0.008894358722112737,0.2594477151057296,0.20281838301942712,0.24364730458883768,-0.06747138748036209,0.2437662400844844,0.1642814215024942,-0.12566903915115263,0.3785573167770768,-0.19550504829041368,-0.05795296270304018,0.08068551061370433,-0.10420640903619593,0.2765641543335593,-0.0900640108923383,-0.14315555353695056,0.4706214786728608,-0.04369400893156963,-0.02984712819092372,-0.07652367949035188,-0.17819070855862368,-0.0528875496863497,-0.018235293494263453,0.08822350286951189,0.01128795388946966,0.08314033020512683,-0.013118478618562501,-0.11099616067928499,-0.007999482687194267,0.012902593715848065,0.169157128717228,0.08956512746060373,-0.03597562570235578,-0.039695202896947335,0.016163403800805467,0.10893232331466435,0.053711513483903066,-0.09588627438022505,0.022383030185026312,-0.0849067072645537,-0.14086943140657338,0.04307346076939189,-0.019758180274368556,0.10850898957161584,0.04687891397792878,-0.007988283870547525,-0.03112054846910827,0.03527347954914642,-0.08166576547581154,-0.1261793968683771,-0.007844572278352197,-0.15201653046276042,-0.058028731168394285,0.014525385121293736,0.016695068732229548,0.09937958769534168,-0.1339004473434154,-0.1240720348663481,0.23921366584965037,-0.0118669246545323,-0.02210586371579548,0.11302337140310485,0.09959832187629428
25.632549285888672,1.0485000610351562,0.028012037373329135,-0.0913494670017092,-0.48329670968786725,-0.13846461302547006,-0.29385025058292147,-0.05914219144370764,0.019025650361678654,-0.013996134368251659,0.18668010227158105,-0.01991904639808416,-0.1690968582363245,0.25197935247292846,0.2819966904693667,-0.03843223060906606,0.14044764312436045,-0.10624190858524099,0.013708979419635642,-0.061301676182212446,0.03898846944030726,0.07707102178864716,-0.009233544396058474,-0.08837019936358598,-0.04343594024305478,-0.24376963249560094,-0.03368547290614127,-0.11149963189998253,0.06897080172385764,-0.045503459895005274,0.05827996381615442,-0.046560446803288524,-0.22624492537147822,-0.05148821523970251,0.09676337046685218,-0.16702322301987105,-0.1992678188562294,0.20088955606602177,-0.1823675303480454,-0.4236064177636813,0.26258401454615016,-0.652702267193058,0.2342172930576572,0.373784907484398,0.503715464466756,0.16416249856283593,0.28251464726613523,-0.053646267900121475,-0.1960221183259977,-0.41392454494717146,0.3214012350859305,0.5908382065613459,0.26608773071509606,-0.11392892915749936,-0.027234551878015545,0.05006387534662807,0.32671780473014095,0.013642048704151477,0.018042666367032806,0.03538937349188929,0.022649625059859922,0.006528443533971063,0.03065113950775056,-0.0963878735214955,-0.06135620810643152,-0.10875357947546155,-0.09698192855230373,0.04980875270198672,0.16900146707752325,-0.1615439387276295,0.06568406089376412,0.015052763981353752,-0.10597081693627107,-0.026505314840289434,0.02381977746648623,0.03395526232513485,0.0007561249285927309,-0.016331015653214497,0.10068962185794046,0.059591113105547155,0.2043934415440097,-0.11545515221198915,-0.20009091980936372,0.03953859682614137,-0.09569507439617095,-0.10946023671292489,-0.0044771231625863675,0.04362325007737384,-0.16591050966838858,-0.0831954414483609,0.0714039764964099,0.02548239176272185,0.12119275132885535,0.07006067220471858,-0.17466453477965654,0.14750072829558694,-0.03130931509654663,-0.2385907768587377,0.15514866027099092,0.6202415926102016,0.3373859454138209,-0.014126802397151361
26.681049346923828,1.0485000610351562,-0.03299505804963085,-0.3219264990088644,-0.08337192934316015,-0.13779781988884512,-0.20524132709053572,0.13467212156883857,-0.07600139429049484,-0.35871643155171484,-0.15295442901185827,0.2963297003111218,0.040267775236241574,-0.16255836996431194,-0.012194880139609763,-0.051321273994963404,-0.07345328482008774,-0.04361824786733491,0.13506193821942494,-0.28259352405585003,0.10245800647037631,0.3229694662555466,-0.09931610544629539,-0.14431811052148413,0.034678153279739894,0.061993224762437286,-0.03883122261557623,-0.10981011809075784,-0.0027144552522594956,-0.030149547215119282,-0.06839069149626008,-0.0300006125837367,0.005408412731672815,-0.07432994048605511,-0.03854521255471387,0.07686631835104311,0.12004610907107419,0.08998466223563437,-0.06698344206835986,0.11940072631033014,0.016615797845440174,-0.15515255736388267,-0.18518024243046338,-0.16384799771211392,0.0798326150923303,-0.7772058250903059,0.42433269969907017,0.5179880053479963,-0.011006893625468687,-1.089588261027216,-0.064299919081487,-0.48739342098153754,-1.0156841994644221,0.5164150218180616,0.45442046194508934,0.2732580196395913,0.6685133170612028,0.1960940721558796,0.14964373844025028,-0.04666085946536486,-0.15727237611661918,0.0946588632479333,-0.0029769686163368557,-0.011592838225645155,0.011926901501582607,0.08457853028143755,-0.07948003457936789,0.021156226903203033,0.004567211586707441,-0.04410901110682369,0.007313958489670227,0.007189737050096826,-0.07251421384487203,-0.05004855409550224,0.05793258511659733,0.03438563080512817,0.06485083896442678,0.0181222999237775,-0.002808307872508492,0.0314671558358382,-0.10531775789367832,-0.036741594927165645,0.11960770410226942,0.07933345723052447,0.005266420455410176,0.12605941053352718,0.0537045840624536,-0.053837712559838755,0.1320580892070184,0.15276165506710082,-0.07147901212146278,-0.02671524031819176,0.13799207905584157,-0.07201250790624394,-0.26898538389994214,-0.12122385112777755,0.039430853829078696,-0.04107874977431436,-0.08038246639983497,-0.05132046484446216,-0.06572568129511107,-0.33337296288195156
27.729549407958984,1.0587997436523438,-0.1834211268721,-0.20040525041192972,0.013695712094963727,-0.012965717089458845,-0.184122067098221,-0.138754122946956,0.005611717503592991,-0.3510626008543178,0.09560071661496995,-0.04738680022082493,0.06927973941016706,0.11297958653235965,-0.0038104744298373128,0.09863396507904255,-0.10867931483343028,0.09587952976094054,-0.10111067676166743,-0.24890288580582626,-0.15950541479848535,-0.06756793300668479,0.07210756161340362,0.26128859486028677,-0.08776265361576942,0.14380222975857462,0.057816962610879166,0.07149587929037365,0.01961755791064347,-0.042890648116205285,0.0010763776936704716,0.09144001473815698,0.11387170863097418,-0.08568450246908192,-0.10270425974602711,0.14894209619446006,0.05460071712651983,0.1521947339476742,0.07490453496797408,0.09201882009454171,0.1251262057806078,-0.05677113840115646,0.3710907075716003,0.3289219971287832,-0.1828036607779735,-0.0018258516893454781,-0.29518276288911105,0.36613689615011336,-0.59145031950299,-0.29142425729756893,-0.16937052887551104,-0.10508387815125703,-0.17978743770901606,-0.26327403574069635,0.1483942472119557,0.044504676809607985,-0.24167312972640834,0.034277891308251096,-0.08120380234452942,0.023204452526134553,-0.006830829317421275,-0.019612480518647057,0.019691586863858437,0.024248592204871616,-0.014492589902405907,-0.013238122709989952,0.05565206908154782,0.0063069514761509,0.09862139933472319,0.07998946787677216,0.08979466262753472,-0.10099642967616511,0.024260799045141307,0.08539317144428378,0.03258663666515659,-0.06043547820716912,0.1298580098180298,-0.020894331462092894,0.09486111040839854,-0.05651189334024669,-0.11887810542715962,0.08392326760036174,-0.15717794653432934,-0.07602667721420525,0.04822608762273376,-0.05298980850932194,0.22624572732105344,0.13807120970198974,0.0296728955603457,-0.06526728323864174,-0.04800234407306097,0.028014011271163933,0.010143689249792339,0.1144920558931828,-0.18405511565353688,0.14687291821846118,-0.06816435294212729,-0.062091769908749254,-0.1648313939180217,0.3619658368462849,0.044070176426248525,-0.007462943112727022
33.22394943237305,1.0485992431640625,0.08108175378640445,0.02275602784780348,0.005956666998054114,0.10535540153910389,0.03481219478546159,0.11310224260062679,-0.11078123381826123,0.0662821978250153,0.2507403657405765,0.19170859100446108,0.2908214546996625,0.21823679396737444,-0.2522329140780212,-0.1449908312340346,-0.059603360318566334,0.10489702437204038,0.034843327663308124,-0.1387258444857612,-0.16533182036783278,-0.01821425897121637,-0.11620667553571254,-0.00505818156103736,-0.047845847191205985,-0.0896351586970786,0.04492723764634286,-0.08141166391575233,-0.10883255378704357,0.019568050445750336,0.11439586248535746,-0.1254198597761982,-0.013406556805054745,-0.10113619539797687,0.1302302581486341,-0.045275487929064204,-0.05293956821629577,0.0310002316866643,0.24100740924301295,0.18554233104956336,0.06664288553964443,-0.19169739757482243,-0.19951684086555546,0.5056291795206551,0.7938216238782404,0.21029401029380135,-0.40898559661133943,0.4623841344130203,-0.46057673039236335,0.22803393526608076,-0.12121572354095791,0.09867770149029192,-0.24045503369516885,-0.11365487579489514,0.33990686302966455,0.0858926356575415,0.1167796843337213,0.13027408915082506,-0.09406533939170762,-0.015289783035645946,0.07505921351574632,0.042993608313637494,0.019076901469234263,-0.007331598742349875,-0.01717405912326775,-0.00807772171792473,-0.03248124709561724,0.11550996496218598,-0.04790194539945514,-0.021879254538735467,-0.12722989927552847,-0.08429309936452767,-0.20832884850942196,0.0068773069985701984,0.11493484956363839,-0.04984943998611821,-0.08994464690781007,0.10555743650607574,-0.04178586651010341,0.2192638415026001,0.09021475128607527,-0.07124457875228248,0.07841951332363584,-0.10949962220587846,-0.007993269700771747,0.1637212230497541,-0.02458935077351042,-0.07710844747306216,-0.04604081910495226,-0.010675886791739836,0.041691503917661826,-0.04856361107978093,0.18073180591499613,-0.055299631920923006,0.0847455655453097,0.012886374734933847,-0.14930902030464294,0.22562525143877885,0.04111452645855167,0.06350109122413287,-0.1259321198105711,-0.20843415071092108
34.27254867553711,1.0388031005859375,-0.3350825503273997,0.2032026244680876,-0.7104551366984577,-0.24637123430399174,-0.0847226216093609,-0.0822241033419209,-0.01670269339373341,-0.0671489681579861,-0.0782288297959173,-0.003978709424360228,-0.028820564116426115,0.13897225928454798,-0.3178195803736548,0.07635248547122972,-0.013717975325199435,-0.18074977912522122,-0.1986752097736075,0.04793249075141008,-0.16694390390230288,0.1842496799463601,-0.0529487195912641,-0.0440572673903462,-0.04691445416336333,0.039804701755780506,0.06244513492608483,0.008861078315561186,-0.02903121913528876,0.027862569704910425,0.052889510477513564,0.11030166529443783,0.12990084767891966,-0.19274717888312035,0.03406655722430281,0.051638120993076644,-0.04697574427812688,-0.22862235640210304,-0.11328678875157844,-0.2610929676627577,-0.1132471672093546,0.31638880677731357,-0.03142148117512885,0.17579351717455427,0.15690615267458058,-0.22242602286645152,0.11730203683355207,0.21820731433967255,-0.9926080775687918,0.21702077398016836,0.6412987044264001,0.3745973684790467,0.16866016164919473,0.616046467331223,0.30745799947823704,0.2764675473757302,0.0854541737504596,0.1673055227592667,0.025912374152126813,0.13318048437265542,0.01668705270205012,0.005923033952877341,0.051785509263908625,-0.06844003308374655,0.013262476640298863,0.037263431146677295,-0.09915515947617826,0.057703028810576346,0.017068104476228085,-0.007932415848010157,-0.13518488830389452,-0.05618067195078601,-0.03866778926323736,0.10103947043128811,0.05486408215908175,0.024409277960631946,0.12002306522602776,0.07850234344663656,0.0955723843307847,-0.12786061256028147,-0.09120637891847955,0.03685806951302255,-0.0661471415361745,-0.09951158605306028,-0.04641571601423462,-0.16106383378365016,-0.012400404603330618,-0.16868980142734802,0.04803059340870433,0.19106959412488853,0.013346439586654463,0.03826848647855615,-0.05992969516673144,-0.15690305474590807,0.025949614413508553,-0.06423288385606787,0.1826680505531329,-0.04329645578039977,0.0877193373395694,0.12138260171668361,-0.024460020042368528,0.27995247235835957
35.31135177612305,1.0586967468261719,0.2770618631447238,0.06187189900974521,-0.1526660597568225,0.5250774303331557,-0.16918181734614235,-0.014218178601401203,0.08298367257690079,0.004803494329499786,0.12410884638813802,-0.15994441687181898,0.07580174528932726,-0.18964058962029903,0.020023850938386305,0.16970833207077454,-0.27595646516063344,-0.003987443824239949,0.06551251399025312,-0.024025305707247008,0.014348927967126536,0.009649813673481259,0.20314517142130123,0.05533576841499954,0.010849123090049234,-0.05800573192825659,0.06642608545149772,0.07677538943006626,0.06532453316871854,0.020991452320526963,-0.13192456497741972,0.19179592484180916,0.04962695705237663,-0.2042255268258954,0.17838106612575225,-0.09806384520279769,-0.0034616437247499687,-0.1243588822698283,0.0030782988872875266,0.050161080855272544,-0.3081044438646612,0.04499658207851704,-0.08695836294000868,0.11874502698241372,0.34580559956369805,-0.7706068655817069,-0.4886055069427013,0.44319577024138884,-0.4745700998460276,-0.18400270971650615,-0.12137375211838385,-0.4986803537941044,-0.10434865178950664,0.49488523305761606,0.08174041576783081,-0.5324656558848131,0.0811998188647042,-0.01484157513340778,-0.04763010443670819,0.005241169771296522,-0.059923044271516374,-0.052925803897336476,0.09013728079905581,-0.10824188608778518,-0.017049271244884458,-0.05330482282524179,-0.002849185515526022,0.08797116327845365,0.037112615590052876,0.0852061298212972,0.16511513012948556,-0.04376702919972365,0.18929111423789602,-0.0069347335954045445,-0.1544321709862987,0.05366326411423308,-0.08542503100696733,0.017560256758555548,-0.18719666730084808,-0.0181572886874399,-0.03325241183825921,-0.10237808188027123,0.017198405758288154,-0.020154536323965876,0.05355143512120739,-0.03313607443448245,0.11112537312400919,0.03495085864588083,-0.15872325345538907,-0.028139931533797277,0.10015616337405121,-0.022553516598604786,-0.08933264214564687,-0.010251966250461916,-0.10464311038547507,-0.2343138237775613,0.2622539376459488,0.08446397657638655,-0.11210272108647752,0.021521162938091642,0.2156794226546454,0.09519766979503246
41.03485107421875,1.0387001037597656,0.09021862941322496,-0.0120767551697116,0.313513620517537,0.09455873937217633,-0.09322662862653894,-0.22146705201876754,0.01063832040323428,0.0039047420229311814,0.1075450642569525,0.1325948723550595,-0.21105421516731462,-0.35080638131692865,0.2374522203532618,0.04858261402350468,0.14532670407904763,-0.03732652452447678,0.329020403372335,0.3068158551822604,0.0053307655395839326,0.10766259993662007,-0.10379258833379365,0.12210287348776629,0.013650315799758696,0.002569066031806064,0.08390915563506175,0.012644768126716588,-0.16911242959144523,-0.08653624599238166,-0.06491652864046402,-0.25149164343502217,-0.2515888790263584,-0.05760673769042471,0.08561533687608588,-0.025626521674406152,-0.062447934419310624,0.1165331682505901,0.17379892506227365,0.37966425812154764,0.14215268408476384,-0.1676920001414821,-0.2486990072387573,-0.32043374267884644,-0.07522717557210473,0.5771280407365136,0.3969691352592454,0.36927061801623284,0.435810886779394,0.12414499041535976,0.004797984818033646,0.05968877575633269,0.028531461292549784,0.6135798907275845,0.35724481641438877,-0.16605378234498536,-0.21451109897783244,0.005527195003518944,-0.08518688296793153,0.02892294612801326,-0.06855042330966646,-0.0028915101878802803,0.05869851383690998,0.03939768339593078,-0.0152101721701416,-0.005698385118829854,0.03448795598504109,-0.034391174572471456,-0.10638453405195648,-0.03080209335643556,0.020245790275281315,0.008612003406664412,0.022066020317653274,-0.062058141560873636,0.017339319011977175,-0.07871185254511454,0.02467449557025878,-0.0522250288844676,-0.15024930061716707,0.14472221464661714,0.05563844625051388,0.012663492920393402,0.1602051863779897,0.11675147201716776,0.11063388453139629,-0.09169861649901973,0.010517601317835256,0.19777080571539968,0.152377356417562,0.10141771100303877,0.0430302618713047,-0.0469419780110398,0.27576370332370065,0.030440460196808794,-0.1944839747195001,-0.08841333543942516,0.001562184982572609,-0.11723212884285443,-0.08185661546114646,-0.023192543096603666,-0.13372588369666186,-0.1324632327227096
42.073551177978516,1.0389976501464844,-0.28606650679781437,-0.13054072138643788,0.7244570188833468,0.030263199970299526,0.2971391433389223,0.012150222766558291,-0.21150372930058275,0.04388716631582489,-0.03576939627029365,0.19339792315832546,-0.08637071623792732,0.06877701469441516,0.2362455532200351,-0.19516653474737447,-0.253427401754231,-0.14235455812031153,0.0948089874739214,-0.014690362647636762,0.07071627083713641,-0.10703112316209691,-0.03467565919955429,0.13769960763653574,0.015819877200935237,0.07553954209556576,0.08893205052509374,0.11822027642753875,-0.02164288833779629,0.06479146545259151,0.09815421595680413,-0.0845339002096266,-0.010896060579985854,0.025788538578619496,-0.07687320776818472,0.3545909009070834,-0.2277570762236438,0.09790466274685766,-0.05332067595165367,0.1805648523718742,-0.6602805991223507,0.2639309540969652,0.30118244827505053,-0.14124825371436023,0.02840904740164545,0.09575994805087593,0.0037788904430188547,0.3744067620423406,-0.06865913049895399,-0.3815959533906071,0.05461094601826531,-0.045424221208376414,0.43855353719751555,0.04051544009341942,-0.20827568072660246,-0.01881832355589153,-0.15815159181797125,-0.18779977325396435,0.20334798985127706,-0.01668402887063868,0.033157347804829096,-0.06774451906371799,-0.15106863470259302,0.06840369591988821,-0.005877140243136162,0.04883297367729084,-0.0669764355270548,-0.11369672615937773,0.012505603961333864,0.10821689775461996,-0.08829636091850435,0.07824804118549734,0.15025674090498686,-0.13035565455284587,-0.018076949271098597,0.028168471914795514,-0.032085057941928875,-0.06720167314289995,0.08100475283686362,0.11608709146992464,-0.026116167193034088,-0.022138138826812096,0.061005021016113596,-0.049163482260609924,-0.02164551545543894,0.04206978327439828,0.05297177736648104,-0.14146716360277078,-0.16806978952642576,-0.14011104321455206,0.09950485791921355,-0.09868606630491736,-0.013282590886179294,0.03462143752066821,0.17594247259769588,-0.039949446180651334,0.1515686984615146,-0.06057215156140179,0.15403457582339414,0.23977024899368268,0.11276308681170988,0.03626987025912885
43.112548828125,1.0689010620117188,0.18019660338086907,-0.2352771561214397,-0.35859750790761974,-0.04308817583479266,-0.17716076239369413,0.028318116125159394,-0.052784477917398265,-0.0999133221397262,0.09568552333686049,-0.1251724061734406,-0.3869958116877019,0.2065852137968517,0.202636237955205,-0.07400492647605335,-0.1258536251687692,0.24419853841796815,0.15351188258775786,-0.12170046049756378,0.1262847527268832,0.01631187793251026,-0.06385998136105779,0.10556347266489491,-0.034947020796643254,-0.016827663908000647,-0.17115241530727152,0.0038984935909953783,-0.2457466543453862,0.09492953159727828,-0.1578001772544145,0.033934793636899926,0.09572229053299575,-0.030183372774512808,-0.005729442755120814,-0.14665509775417826,0.2342986860134933,-0.07937422116386478,0.3552991826238593,0.08100931748176701,0.03178322218226909,0.4658900596082063,0.22833082717904124,-0.10433503505787914,0.31611553572841833,0.36006085776385266,0.4653581525336049,0.3738829083868289,-0.2739043679628958,0.3451128854001144,-0.32172978604198477,-0.3495275432767548,0.035292876082087477,-0.15592854803017087,0.3179579310644348,-0.3321664466504861,0.03218953263402803,-0.008060088686899008,-0.14901773060573809,-0.13829719247910557,-0.09436638636744371,0.014549927699242767,0.006669648466363091,-0.08513462821257219,0.13387309993729865,0.033572595104504485,-0.0184428132424447,-0.1984722560181254,-0.1532776400402214,0.007762428920273928,-0.08067886451064152,-0.11898920382945612,0.0736675012946249,-0.04925676376054029,-0.06327579994395063,-0.008401444107178796,0.04151194026685604,0.12368636977086543,-0.21184841053419579,0.017681867356807428,-0.04776408832815995,0.018131426308326704,-0.1280551390320476,-0.05519766464072264,0.12126976974525297,-0.08143259251137948,0.017928025582003116,0.027025994177594118,0.11006951803918695,0.09332455612452414,-0.17080606454209632,-0.015446391378708154,-0.05539197045570595,0.11185413563970543,0.36838999932912203,-0.18631321188387717,-0.07038876867112498,0.0816138442363344,-0.01937338961967532,-0.04993658616107402,-0.32319981967712363,0.006155573601841824
44.18144989013672,2.5769004821777344,-0.1311217954396034,-0.07122428988572987,-0.004685282889007984,-0.027850930530185933,0.24839408731510873,0.3018383894558707,-0.10868812313079891,-0.06120995091975416,-0.08410870060726554,0.17337147893489166,0.022224431649295964,-0.007828760906363433,-0.06382997708296058,-0.49587166277205347,0.2133977736324734,-0.057999095376346205,-0.2247596972168518,-0.03389083549558007,0.08217913893425328,-0.06513565828909855,0.07437527706245907,-0.006953801727742431,-0.0069460977795847145,-0.007692669742663277,0.1664273263186743,0.10538475946308506,-0.11574000851632804,-0.033302337120303914,-0.004750451081381751,0.05706264028359404,-0.07075839180345601,0.02207728013652193,0.13073949859903775,0.04121056620495835,0.028159001584826333,-0.18736298736520665,-0.10655820171038259,-0.039298953288479675,-0.039773873494288986,-0.17841155475096507,-0.28442243164542375,0.27680022729803994,0.16034950688576988,-0.09234489175025183,-0.09482427140279785,-0.04006077859723414,-0.18858129463341355,-0.29500899888045384,0.44152507148236847,0.128286785095986,-0.5165066406209008,0.09243323937354513,0.1831303799678313,0.010536153871389183,0.0526866440965047,0.009604061513421863,0.03831599045738537,-0.10160282101601101,0.03674076239003969,0.004316097249369481,-0.046200244244163996,-0.016882839456443654,-0.03553726841724808,-0.026303998739039824,0.01781491703678611,0.1622668608932205,-0.05489469911746094,-0.014633415788897954,-0.06262882948361911,-0.049840879880543254,-0.1342040513265216,-0.02914103675529106,0.12480522911261208,-0.039039879452528736,-0.0819367901051931,-0.07742486861653666,-0.04488394131798365,-0.06947836725742497,0.02515787776106788,-0.035791198943126275,0.07999528997649571,-0.006458816732831638,-0.07671651907336713,-0.06419256015193163,0.0662477789606166,-0.029189251235273512,0.05055052126084154,-0.15462853020992612,0.13986889018623502,0.03154813081948092,-0.12595532394742556,0.091395997692586,0.02249985648548357,0.05203510664676525,-0.14633125134316782,-0.06318733114806806,0.08836698619198166,0.2146036627268814,0.14587418031123586,-0.04491378886666299
48.84605026245117,1.03900146484375,-0.2756162841264354,0.16022556547166228,0.135112377949238,0.11973963922852071,-0.33154101679041004,-0.1823074212091103,-0.1814891528777128,-0.11519481874961113,-0.01168150958078068,-0.009146837130748979,0.1306742897750683,0.06542947305237928,0.05800986000375342,0.14039134376757814,-0.5756622396226941,0.04548910698639426,0.06454404114737392,-0.12149998161443865,0.03144256984993794,-0.1977831639632138,0.009837592460994454,-0.0982395823818366,0.06999718214316142,-0.05993442452375345,0.08989921347960186,0.03131976539787744,0.07484083150402024,0.01658708810193765,-0.03637750077211595,-0.014924926732486438,0.0017574256553748468,0.1302013722117008,0.036634546073388334,0.12856347217800407,0.31900132739128345,0.12678994606755484,-0.12281274826538847,0.1724713300483935,0.08701835066629232,-0.21525508202698032,0.10148533342224274,-0.5476761300297892,0.058515782751029255,-0.24575858504777504,-0.008969246224932137,0.20739437167578317,-0.10551484903765339,-0.1660938546227125,-0.06500047571154521,-0.4931046768751823,0.14054757015152466,0.13308115169788287,-0.32233462131928875,0.3946375316895099,0.2981568558216863,-0.06122497117934329,-0.028277482919988783,-0.06981058399113119,-0.02929300431729232,0.022936844038672435,0.012440318306737913,0.06230186986597882,0.19020786350530333,0.2389694493614891,-0.12839218972407143,-0.24208384662790083,0.12450918060792995,-0.08723194532103136,0.038761696345938595,-0.016280796640346745,-0.05277793706135205,0.019973428993270172,-0.08983497628392287,-0.044074762052595154,-0.007140675958601588,-0.09598378728337272,0.057292287946799636,0.03077657695860167,0.07731145164469075,-0.07433089024543274,-0.10883174111549923,0.061869029780403914,-0.03292438670045908,-0.1044772140682476,-0.02533729854369085,0.13977882747300807,-0.04083174767805472,-0.07647369897714659,-0.15126764073744078,-0.1843470281791638,-0.13000785590564445,-0.10680964183823483,-0.051017561712160236,-0.04507089841118166,0.09809896458453078,-0.07903142403429494,-0.18946207670665688,-0.1638390566639838,-0.041841530901079574,-0.36487621196245357
49.88505172729492,1.0385971069335938,-0.229507979020332,-0.30809102746152445,-0.02007504234310138,-0.2463711050584668,0.45453348281242945,0.09679305345033332,-0.14293866995039936,0.08864960688209095,-0.008140133615570488,-0.02051122003029924,-0.1279171826701799,-0.20501045245670554,0.24999352808969993,0.047340977744092905,-0.12287898997620467,0.0859878925363747,-0.017124168829042066,0.047908849942871104,-0.08334571545127387,-0.09737842686651905,0.13500657044690692,0.06578986931212122,-0.16900914203657408,-0.08602706416921338,0.008841058725040181,0.0552954801258184,0.08737452299687277,0.2899229667095038,0.03750105213350442,0.09508775812150129,-0.254365772447905,-0.09203533086743824,-0.052479386689964096,-0.00403078494130466,-0.34879582918027124,0.01509063853328059,0.2741922742410783,0.14699949296725182,-0.0646503156838269,0.3114617018201161,0.710434963572362,0.6270287482397768,-0.6465302770567731,0.5181937468241817,-0.29115631679777887,-0.514957258898368,-0.26254236450837903,0.4603187443866423,0.2593802454725755,-0.16893965962177188,-0.4197674570759166,0.026325554416982477,0.1433760056566047,-0.39864989341693613,-0.1463715248559958,-0.17887782553591908,-0.16099445532079718,-0.05984975536010718,0.011123646826984785,-0.021253152972329315,-0.025794929504831064,0.007976959961708021,0.045684753961940175,0.014877741603143832,0.06104186795306256,-0.10457925785568536,0.06701306445719578,-0.11010122139648544,-0.061770208055628245,-0.01584754059107437,0.06153856897460312,0.06400873257232045,0.10534582478999857,-0.003161717174582721,-0.054655727257740476,-0.0031612474018150793,0.04965389181610566,0.06541691833433665,0.0922076200991586,0.14595691553536413,-0.11080575735280228,0.035809958694110786,0.011822783707055787,-0.037648666264650216,0.2553880705839089,0.13167940374544926,-0.12563982573335183,-0.08521917442255118,0.043628021878162726,-0.0005975395777607501,-0.016429453027950486,0.049195636561449416,0.03927526159873276,-0.06370833527454055,0.09304430047072182,0.09733165070722975,-0.3213430949764414,-0.08827065598215318,-0.13477914067562144,-0.02672737859493104
50.923648834228516,1.0786018371582031,-0.026558489748723352,0.2880319911889135,0.3280456674217017,0.008819317712511071,-0.1644704883094327,0.02106481123611014,-0.14736649064872914,-0.07050447455504844,0.12485420418029576,-0.14823165153831086,-0.024723302289880393,-0.016745720802962095,-0.03402926086053157,0.1266471567667853,-0.045899002409879444,-0.04734154708665443,-0.1889475817175219,0.10387270209818544,0.12290731855767362,0.01269706045118179,0.1414971929799961,-0.15060178217523562,0.05676638898075734,0.04722999498395676,0.03682965219628204,-0.004883390442154953,-0.13395854926300238,0.09288141927478624,-0.10125015621178024,-0.2565774255741787,0.400414813690653,-0.14092966714925226,-0.05187198667489873,0.0936241571473833,0.1289267610046621,0.05902722264262303,0.2986515622439995,0.16091868866435902,-0.3280404797148758,-0.8042170798676666,-0.20914359882805328,0.05345678048328126,0.19447047114368637,-0.33135054555380594,0.6096245013152803,0.547070516597985,-0.4111109997241965,-0.20942071136026555,0.37659426501617793,-0.46726227075307386,-0.39798184441579887,0.3212547150532078,-0.04310521428541246,0.03289336024276586,0.18329904061791427,0.26141963889569153,0.05920624674258199,0.1645751881196979,0.023911008011431423,0.07342795128583085,-0.01921215796578686,-0.022996277633359735,-0.048628074188873126,-0.01992892730040998,0.0521192582048565,-0.081230670276456,0.09700257750285536,-0.03341734223275685,-0.025325188514056254,-0.017581023946663513,0.02588154707847681,-0.0427703612808405,-0.05208467165915287,0.059719630745366924,-0.11526502197357832,-0.10690553369656276,0.005236051908289813,0.1273654472283237,0.20905193732244634,-0.10520929409434363,-0.11287411689089688,0.1496099916153648,0.03614063241472511,-0.03214690443493118,0.11916289590196266,0.12681367818859005,0.011924667084369818,0.061171518099376855,0.23361501878596125,0.03013871013341654,-0.040595112389950776,-0.029977384167105957,-0.20717574491398077,-0.07107244418778795,-0.044179321841506955,-0.38486339487535576,0.17950294368012062,0.23133840061623417,0.11501311018775129,-0.20866690230841664
52.00225067138672,0.9086990356445312,-0.08830051533921379,-0.3169941137773079,0.22492311592327055,0.13728490990100378,0.2613970401704537,-0.060943639378460805,0.0014208813733161002,0.2649079042378434,0.02156609941707155,-0.09849791740819508,-0.09644612420942413,0.013286784578565405,-0.27338301173307256,0.2635168041711112,0.08271604637349257,0.05419940036247661,-0.10555838374411328,0.18771816190322899,0.17757401284114654,0.03281998683714686,0.11332975827859515,0.030204475443758375,0.009473274516102397,-0.020929202807531584,0.018071961794910697,-0.09977722641304164,0.0838829173354325,0.033976319245900305,0.09874387710299624,0.09179045595400191,-0.1655471252889716,-0.09256245608491206,-0.08420227363010348,0.06444766494255194,0.13960235749947938,0.14312314512219784,-0.15345768597525627,-0.14204910658040024,-0.08979671887894487,-0.35326107427468567,-0.024523237343307462,-0.02561660725407616,0.1707072437095921,0.06598790759479331,0.5131542352321802,-0.029563133832240254,0.2764399390915569,-0.08987993126215774,-0.019497325831869933,-0.12343762053750451,0.3110845788511338,0.3182465608577005,-0.13401428898152173,-0.11991079605096916,-0.009142725947062759,0.0005962269246499547,-0.07210186495165401,-0.02778641840688807,0.06708768570716238,0.011650068320800247,0.036873915373920374,-0.061163035861673425,0.17074346482555286,0.012720282169462761,0.03194125831204945,0.0648421012772725,-0.015132673415547256,0.04612314180515087,-0.03720384769892553,-0.01900580514727198,-0.06514996298683258,0.04669749200790266,-3.966829468271223e-05,-0.11375218333693793,-0.04302129013546594,-0.026869132343260355,-0.059912699586450485,-0.031032086190893305,0.022445349646781826,0.13556813350223718,0.008701456529882504,-0.14358382743699694,0.026393511909111454,-0.12195838760642597,-0.03837251141515972,-0.05934791455269951,-0.08298821014168632,0.19208820370484916,0.02253511037475711,-0.06319873361020366,-0.023720317357640037,-0.1269582808568832,0.04895682712357704,-0.02520205691913197,0.030572202499890337,-0.00304920870813422,-0.385509100896267,-0.1686461116043023,-0.31601128500377546,-0.07511440547375078
56.507450103759766,1.038299560546875,-0.40295318129309127,-0.05286160750114538,0.15214160030584914,0.08956004291814462,0.0585017402535023,-0.06268082309159152,-0.012617488930014773,0.16924444312590783,0.020693965440679966,-0.2606388452682821,0.19383690416353566,-0.1782882353128661,-0.11775809094046533,0.16030143531077484,0.07958723338486275,0.11388264299025816,0.09228483302039564,0.2518824696937741,-0.2115481772377737,-0.04775988934720296,0.15156023141863478,0.01822748427948973,0.054933474355237634,-0.11306964731841304,-0.08147037334334858,0.030125963191060767,-0.05455569241397283,-0.13798968552847524,0.23562574984557483,0.13544730767658034,0.03576815649372447,0.4132066986104394,-0.19310417645780886,0.03562265131036507,0.17582730178061134,-0.09194823152406964,0.1173407616847658,0.47726582280391316,0.3838152422349177,-0.3968773734165657,-0.07824012021159009,-0.3821258952723715,0.014874150339838701,0.4503002196177492,0.13156039283334597,0.6158272607672307,-0.047464435187930615,0.16083691957525278,-0.04693900356249695,-0.42119697117460675,0.01782103407143759,0.510861470466026,-0.11359113320473664,0.22225544207971523,-0.11137921180255402,0.09797446223139619,0.14194276270533296,-0.20528044515190996,-0.005903803880454948,0.03492426580037449,0.014453453435899457,-0.12149643542560806,-0.12829686219639783,-0.04814174460974752,-0.054788446960350415,-0.01918026554514064,0.006906749184625061,0.0017138676960096384,-0.21735227813469205,-0.1090556451024166,-0.02380793558451038,-0.03424142506509837,0.0462528346116962,0.007001067889764024,0.25548287405195513,0.006341600026119616,-0.16828240539510156,0.1308500934410699,-0.04314373529131032,-0.11418312826187677,0.030454856060005638,-0.004752907120773315,-0.07673330814815979,0.04929438751432036,0.11841819617811743,0.005543610689057177,-0.0013680082666982147,-0.09585996740869489,0.014481656532408335,0.07775030826264431,-0.030995032815580633,0.2301705599131691,0.0207235629916258,-0.0038103906519870966,0.004253362865117323,0.12379876282066668,-0.1609220930517541,0.00222524554106808,0.042149339208231974,0.17576261778147168
57.54574966430664,1.0493011474609375,0.0327833912571312,0.21263627439082672,-0.005116017604080508,-0.05711352764839888,-0.1558643407485697,0.676292616688879,0.14962159352383758,-0.018131999981114075,-0.002928809334212357,0.055563703796092795,0.018063443311210847,-0.056609916239913814,-0.17953001351944461,-0.020943028503414354,-0.09583528604720785,0.18490292668215647,0.10057722289436265,0.31085075375214616,0.0903079339008855,0.009454580914936606,0.0974471695677332,0.09853798232322114,0.07381665716590739,0.12008949136681202,0.20466527361251352,-0.05726156385515632,0.16301415885590936,-0.08693318451082253,0.011978181218836467,-0.009478951707125403,-0.0461546899562765,0.051320982629476194,0.2281098689079326,0.12008189109999265,-0.4154335838953122,0.34295831961710416,-0.10802443544823127,0.014865310435949748,0.27406911932182715,-0.202153085544275,0.5182192730589273,0.12468726482241368,0.0919924325646416,0.6454355127817453,0.26191781185752394,-0.21112005232178743,0.2455758944447879,0.6860008698517458,0.306218613859684,-0.08804705500934279,0.23327634462806734,-0.31037553913882265,0.06157341910246857,-0.020824200875754956,0.11754867331188859,0.296316348810985,-0.11716635223138575,0.10484190046650577,-0.03424014059647114,-0.01701851545559799,0.16163005932020352,-0.08850195357447037,0.12557227014306444,-0.07851376152542928,0.07232839140562475,0.09067798065145558,0.023702821096288934,-0.02717244596549919,-0.12098202373270074,0.08245491538121741,-0.04636606481516382,-0.04676185351460424,0.0346117256492271,0.06836075252387395,0.09318223518920037,-0.034428289758703566,0.18082414036108466,0.09138645948469927,-0.05828186585592062,0.01767547521150225,-0.05145241417160485,0.028987503176575828,0.16055008950714814,-0.06344644446165386,0.0616614974542795,0.12713074792688078,-0.24206491457880955,-0.10532372066774649,0.12335762398559869,0.02071102629902406,-0.038146360971838114,0.17776246226142225,-0.13419034111007724,0.20662049470197283,0.1017489917791047,0.28671211787798523,-0.14854448306148074,0.30882388372624736,0.1688927524905318,-0.037526168203414034
58.59505081176758,1.0785980224609375,-0.03152403189527245,0.08039109895220649,-0.12809502688658567,-0.05454976245591976,-0.0031808472768704125,-0.05944654418445067,-0.09960850833883692,-0.13743260783315012,-0.10388678130108144,0.318821848591005,0.201305969837007,-0.05933036580371457,-0.23336443664696316,-0.11055161548878338,0.18788771141013444,0.05434245378019124,0.06405577419126017,-0.05080431217970671,-0.1802651126314968,0.027352283045248747,0.0827658191444096,-0.17113692634626695,0.023889916954067704,-0.06604673756556803,-0.06640855562214908,-0.001578040085395734,-0.01398468330319105,0.09179565954453747,-0.010774035327610154,-0.22741169556685395,0.08176809277092774,-0.04469705759434195,0.3348972045130454,0.03862800836902733,-0.05668917761862323,0.04934350243285049,0.06439273855711927,0.42821053647663,-0.11318000685607807,0.379143819298365,0.09409655053452708,0.10231936198918465,0.22388361340849006,-0.036233134666764845,-0.230642911194904,0.1950805914114948,-0.15683249359084278,-0.0794597394498485,-0.39557360906913763,-0.2441101437106833,-0.22870891321201808,-0.08055349793309473,0.4819920883266975,-0.19263672091166073,-0.0650260103024249,-0.050789778263733584,0.11037235636642372,0.028527892745251655,-0.004838422427220194,-0.0053212952577218866,-0.1078735736317879,0.08616595867192572,0.08629716061216539,-0.03254593169892922,-0.043627491465494814,-0.03472687317989917,-0.08715699391508538,0.21805494562947791,0.03431394724376853,0.08607020728873752,-0.055509327928549956,0.06938599348606929,-0.03758739499543932,-0.17019849261871195,-0.028148957676494918,0.14994024973547318,0.08196603546484989,-0.08461601712525772,0.015907578278022565,-0.09103800554570741,-0.036971503726451777,0.1174083503399334,0.05999860297902531,0.17160327611319356,-0.21507470768154685,-0.08334682499578419,0.09411515715155164,0.03438630511723803,-0.12027323204963508,-0.06649829093608353,0.008834741390438782,0.36132472241033164,0.11350677505170015,-0.25529502299639073,-0.055854332564212635,-0.16236601730131603,0.15051961493128807,0.08005956284707184,-0.3788941160700909,0.15660643377788291
63.22975158691406,1.0186996459960938,-0.3154604877270364,-0.1973589554011129,0.23865363174433665,-0.5361166127820569,-0.10879900459606846,0.17007946180708194,-0.05778104143275885,0.08233680686833116,0.23641783019881377,0.6047114889370769,0.16282218510974658,0.08160192879807315,-0.03654275612951371,-0.15970668599882865,0.13825337110867283,0.2228259264221628,-0.32272540509601033,-0.19747747895188686,0.04351486526836515,0.19046221229106955,0.0260564966055004,0.35007029267182876,-0.08196509033462003,0.013136602321978299,0.07127142494536189,0.01967049161926139,-0.29165292553370764,0.1301136839463084,-0.07523648838166565,0.27414131402349506,-0.09391510285143954,-0.014322698929562984,0.16993054758224294,-0.33484907782681456,0.002401772076604969,0.16512110921075465,0.01704443605188264,-1.0776883763808784,0.4289188809765261,-0.32531350019749244,-0.01717817371738313,0.248733276476659,-0.07644248634971561,0.21061913217093822,-0.4257850819081015,-0.30064614924677086,-0.010892726964737406,-0.19126733270611404,0.43738402744367777,0.12293618460373225,0.05417881250361914,-0.23711303577530474,-0.5287983171097661,-0.03842375486971654,-0.40196863373296654,-0.00046125544921826744,0.12822226517657268,-0.003362396485145122,-0.028252622382287783,-0.017674227881658764,0.055992995789055595,-0.02109146492045414,0.10692680745658695,-0.11696041792448737,-0.059254555572806254,0.13403067515761136,0.0158790828649972,-0.12308530154893885,-0.10146170185344207,0.0005102276556341609,-0.13020706849238262,0.08767114885664276,0.08774550701784391,0.05026974729969718,0.0009909976235793244,-0.05466211245967046,-0.012923478456098064,0.07743313727888418,-0.008200453514662639,-0.10023361078462979,-0.31597480881215056,0.19249327931054816,0.00048192419182496846,-0.2240013809067702,-0.05069363734828349,-0.38652824209667264,0.18928069172886713,0.04648839002868857,0.2679365189080424,0.30892137045664225,0.15168866088963331,-0.29068401766531954,-0.3217211425460214,-0.09517762212678357,-0.03395298490474033,-0.14988899593406338,-0.010539783083358747,-0.21150116271040323,-0.09260223280444246,-0.03347145313945258
64.24845123291016,1.0387954711914062,0.10904141694428995,-0.1643904848520756,-0.3345851805684585,-0.16345200439147062,-0.19804051445193252,-0.055142798900595966,-0.12737653337954832,-0.14423847449103855,0.041423581631952755,-0.00016692146636680867,-0.049052256962534534,0.10323318450419498,-0.08950009345310259,0.23494483871547936,0.08001346899321644,-0.12862972225903996,0.005113042654535124,-0.32652963545659186,0.01176231650193609,-0.042160589671730406,-0.0557728599572114,0.12333048322532056,-0.06174541774678679,-0.07556766432458262,0.07865593295694377,0.006118288153402843,-0.018710874922794916,0.13435635557746742,0.38699752809205007,0.07583994163891683,0.03395540965340299,-0.02327316206059167,-0.2958930510982555,-0.004836923719173963,-0.16763586176793713,0.14397026262541684,0.13758688386668413,-0.2638176917817696,0.13135447340717119,0.14759176541668037,-0.007851354626894486,-0.1719433950712027,-0.4298571670575303,0.6557232781315753,0.3399462350064195,-0.6079618915370786,0.08940773030484564,0.06541256818644489,-0.15372899197421408,-0.2415319258292285,0.5200069563779204,0.44654531555234694,0.16228755745925527,0.10145183669043191,-0.13446286706234112,-0.25720872169503617,0.037955199789288664,0.11685960867594683,0.010666458375019873,0.046922470730252644,0.030740406857062044,0.03255549125974506,0.16723870471594976,-0.14810494977447497,0.08557762323461211,0.003902956377074068,-0.03264855703070084,0.0037757437010625737,0.23145381696289674,0.10383530877597613,-0.045901279264366185,0.07246470987473255,-0.05665582645359539,-0.009427823808827743,-0.009279650828609917,0.20150571875277404,0.0980222305700888,0.03196448595373804,0.08716521552912637,-0.1359595049276935,-0.16605733498503727,0.09611621775321504,0.06663987393448137,0.0934159763944373,-0.0170213622766921,-0.09659791800528028,-0.09189568204820485,-0.17544983238611261,0.13534103671505784,0.13450961457151206,-0.04779671085572564,-0.026960335868174246,0.031151142349573363,-0.21643194201766364,-0.09169923647291617,0.03580259109566429,0.014359017442311037,-0.2029444396185794,-0.16979311908423234,-0.21623254262570654
65.28724670410156,1.0391998291015625,-0.22021391112178043,0.25438869044053297,-0.030292424706905782,-0.043263669651529946,0.088699836761601,0.09013311969516909,-0.0062942295103931845,-0.05128017793632777,0.027874769938337308,-0.23225628614946692,0.061834979636761885,-0.1685855929015667,-0.15138643796131335,-0.030308536509644726,0.11285766612272187,-0.12297797071184896,0.1303763818549421,0.21909277522219506,-0.04436049686421154,0.0568752367301385,-0.09867504967343455,0.008914106401636715,0.09060030331775501,-0.04189676625362221,-0.011892457808432403,-0.0470257756126199,-0.002299849096723649,0.05547866164461203,-0.02006045130363306,0.04988777012017626,0.08534033989798509,-0.06249677405603602,-0.3105851168240621,0.06916948468676289,0.12891468326923208,-0.15435928685093792,-0.17052227145764048,-0.5467230202995799,-0.06290277295825156,0.35452180752951445,0.37639673165101867,-0.062189225151481564,0.5623291097206695,-0.3294580547315941,0.1149022765958685,-0.4187028219348941,-0.3088985391035423,-0.4125132729773436,0.7323347196902668,0.3705164149756364,0.05178325396784991,-0.5330169344141598,0.47449033007858354,0.1307467033306482,-0.26284308796243955,0.6576413655720111,-0.08875878501915166,0.04493257423708208,-0.09535878845694327,-0.03920085850298935,-0.016734248100053313,-0.03850408869552496,-0.04581434035853435,0.05570481886250407,-0.1428781059501192,-0.05340306931359492,-0.01932785845865808,-0.024413981646617053,0.08265461903389038,-0.05779231594648408,-0.034797757909664745,0.05751689502888739,0.060983360956911106,-0.03175374514464766,0.03354449763424719,0.03328696675986226,-0.2543791595386858,0.01582622776222771,0.1388231743273583,-0.029792345879394576,-0.054515475595648996,-0.1169695259151677,-0.01862403241449575,0.057890339597022424,-0.14949648658296033,0.1653627648356242,0.07893841841924384,-0.007499490231729515,0.016296876107683992,-0.12127527879822345,-0.008507452012759275,0.028298800262359584,0.0025156029559091153,0.08814313523442187,-0.13820097766646122,0.010853733755192954,0.02325609090427476,0.1559492653975838,0.10409073278627703,0.028852340798572226
66.32644653320312,1.0481033325195312,-0.1204836099502827,0.12710163374197414,0.1817517794592096,-0.029680471412281792,0.03967197335483999,-0.010431012102106701,-0.10022786360915976,0.021222387421439663,-0.04182413568885093,-0.12493637580106319,0.07532575914686326,0.022646543772594334,0.4012815286162825,0.0800581313755207,-0.004121991742495284,-0.07759977562294693,-0.006256345648635843,0.1835464893459782,-0.12095009923513345,0.04327124623453952,-0.1342965724027487,-0.2821889782788056,-0.28794799135597593,0.078304938576856,-0.1786911307396605,-0.1744398147654895,-0.028423156671539652,-0.05236398136290793,-0.227724731791981,0.027098566147076075,0.20935771993813407,-0.20806970376337233,-0.02490529651236746,0.22228844924334998,0.14208725909498968,0.07086874417959188,0.29461180149075933,0.03248843146462796,-0.0552597612567122,0.011143897972872935,0.020583581617718977,-0.10707980129016116,0.05805525389634117,0.1676132983230575,-0.19281716486384365,-0.18776715371986774,-0.3677300536327385,-0.009206187179227887,-0.0968869926523171,-0.07080598516792948,0.45049224847809166,-0.13066273329772177,-0.32356563242945274,0.3968403477638498,-0.04652777959573633,-0.14121597015622434,0.04790281911109926,-0.051835338943532774,-0.05817078369368109,0.0182454680623137,-0.05459895580636885,0.0682330009827835,-0.07882994543196274,0.03907444250339154,-0.018028295301822737,-0.0513650127668071,-0.04977676782509846,-0.052477162791515305,0.008431573808932741,-0.03162352340575092,-0.10665652953763757,0.05204833039885296,0.11589887045589208,0.12928542986239677,-0.010246343296329667,0.04617654187512835,0.06307812971855621,0.018728984172746335,0.02686074900486513,0.05515643566073626,-0.039862798286973165,-0.15268511597100576,-0.02940383521322901,-0.06971138836177607,0.028329458980109395,-0.09118181025771646,0.02931205811056007,-0.11215936068145435,0.006718896422137472,0.014129573969089633,-0.06602833635322664,0.11315405241596037,0.03037876808298584,-0.17941945412938815,-0.0628735621935431,0.1339331929320598,0.07431784174802841,0.029395869551409742,0.03713857084236459,-0.1552565055591809
67.37454986572266,1.3490982055664062,-0.30044299314145334,0.22478238783993518,-0.0387056383790797,0.09754158896849563,-0.24071288891392992,-0.24912815195708327,-0.1618280018016171,-0.22992780676902919,-0.06936379781374638,-0.014456784886268656,-0.02374158897773998,0.2691520120899287,-0.012015495128732503,-0.08690083896900215,-0.2953321200355305,-0.2007679278453748,0.06777835484084518,0.11916883831666254,-0.048750810033007935,-0.1461017461039025,-0.0953486180146946,0.06671913123834876,-0.20535581728300967,0.007313094589598501,-0.07923919697585777,-0.009429572088994429,-0.11142330068289723,-0.08174004585283025,-0.014632690273489807,0.06559896927096986,0.11508430784258454,-0.015824630947440483,-0.004122150203424451,-0.1713930863725313,-0.047086453551494475,-0.029712227811110582,0.002586484290811583,-0.07318636619548893,-0.22219627764969707,-0.11088452226988274,0.2177187936598861,-0.009644317403371261,-0.1336458087504558,-0.24821855896785583,0.288596283539269,-0.011349052705871152,0.2265202293522405,0.141743233958245,0.6119957175310244,0.30072883450511295,-0.17342220378801662,0.21898717517906063,-0.1063737159900221,-0.23929041690026487,-0.21903986657579458,-0.03819034677951474,0.03142982438564798,0.08884266595767455,-0.00022251267918953904,-0.012232072374753766,-0.1134139246073619,-0.1032361724951143,0.027006852029787247,0.02130730203335674,-0.011593132132803156,0.004304437549421487,-0.10674536510128901,-0.023882776749807128,0.06135895676757043,-0.26296879363428005,0.09290277137270109,0.0992222858181608,0.0790318779367606,0.017534367772724803,0.026714221797643274,0.03183564686852132,0.15605937351707017,0.06559502457882868,-0.043695485668098555,0.16720072658313181,0.02943515254247365,-0.0405299724736563,0.17887669483697785,0.06885031968513299,-0.00983892227578452,0.018068128589479225,-0.053671654253005414,0.0008640299286006179,0.024402836389849095,-0.028458553915117108,-0.04916461663815492,0.01576881038761184,0.1181909757179613,0.12907545316446348,0.05868548328848894,-0.1222768733779749,0.030536464091442853,-0.13447948820550543,0.04470240958314081,-0.03384058303545613
70.91085052490234,1.0289993286132812,-0.02571869422149492,0.03996438990988145,-0.15518897274317964,0.0224436202795098,-0.39356040984573987,-0.3699113134077938,0.2904729739475706,0.062297413637682854,0.05703810487747204,0.0021147218410915167,0.1530944863270359,0.13690424419005354,0.051851343758799996,-0.09361889535683389,-0.23785181734709146,-0.37136238525675763,-0.22275582423620172,0.09817017745663897,0.10974290207776904,0.07468302859148529,0.19281758839906193,0.03279994326172587,-0.08045076261746816,-0.2904654034349519,0.11736386432286844,0.16442126029813126,-0.15760405244269962,-0.004645675588957607,-0.1477340520244207,-0.22450846409897512,-0.18395187750156472,-0.46504335739550373,-0.30033587555129115,0.12124207779508234,0.15461246353607602,0.5991661169384839,0.12189477543255327,0.31540736869852143,0.027724226601948926,-0.27749204603119115,-0.33641914371652787,-0.24939296785100767,-0.40268228765087577,-1.2819367845499223,-0.21640310499038526,-0.05356247046412011,-0.009552954371086829,0.18666165363308923,0.06822170453872684,0.044713983718619454,0.23025768597652618,-0.33675916833796515,-0.14611596490071374,-0.2870291051643895,-0.023978390325247137,-0.18231089908037101,-0.05544401023833473,-0.09154823603393533,-0.10922684430619004,-0.03715454554492115,-0.11851248676265991,0.18381382515030426,-0.038794546596012607,-0.13736614714325193,0.053356272277954295,-0.16705841370495897,0.08479414311137426,-0.06445123915106651,-0.060678003950791,-0.018955319636870853,0.01344235384721016,0.05467659892572053,-0.06020442061789748,0.13913251512683936,0.030020361341291456,0.025524081066722243,0.04050432782086412,0.06432581481018165,0.24670844660492725,0.017221029633715253,0.055952017111281234,0.023938936964730373,-0.04496086208021556,0.20961183535662484,0.05826573609699924,0.0803354977773044,0.052604136764627205,0.01652752935182611,-0.12220155343751812,-0.13481116796489942,-0.05304251706408417,-0.10787219044016905,-0.14742567905550572,0.012945410176659497,0.12700008779284333,-0.04555167216574368,-0.19173779863872079,-0.24055952227995683,0.039937635207243416,-0.07919373234823662
71.93984985351562,1.02850341796875,-0.2219754115289017,-0.1312983323131337,0.06997492371228381,0.32628152489583595,-0.06188722815644131,0.02351560188028715,-0.019586296244385775,-0.029349277355514295,0.06324934659083724,-0.07990700627496856,0.15933191169818522,0.005462329130155431,-0.15919525502194173,0.10026452191007343,0.01779432682701302,0.09850247981124063,-0.03462493016386051,-0.083648990468977,-0.03186570685785872,0.10453320199354964,0.028401957143929412,-0.09558516014428187,-0.026721702704864164,0.018575260904339898,0.1546703578389048,-0.0028269302072064482,-0.014089419154287073,0.08229681467247435,-0.02991973403789247,-0.07338276826248138,-0.09454711539226004,0.13076198006543074,0.030412895820131517,0.03590779826420027,0.07321207654538091,0.5546654433550998,0.042796242328741615,0.1313876160251437,0.3298628251393395,0.15785656837228995,0.2119020112559618,0.12820280514297427,0.049748661603787256,0.9371448756934498,-0.6273942181278758,-0.02800884329822599,0.1282106022023742,0.539960676944991,-0.003088782293360001,-0.2132428378070793,-0.5632557605121892,0.12665069433441123,0.0598227439152606,0.21550712646178738,-0.25391550523744677,-0.017785226149271,0.009006670305848757,-0.16065210514591935,0.026014274186008435,0.0384797209708707,-0.022335273673344036,0.015344454277805597,0.02124867228819886,-0.009345303673272076,0.02557707569329197,-0.08755454597121246,-0.013030734372606692,-0.07246874463232827,-0.03364538884923007,0.09461470971579206,-0.0590431178438235,-0.1525920576242335,0.02604232630405383,-0.031370958837042995,0.006619284361326144,0.09325425901085356,0.07868280907825065,0.07589526050529045,0.07766589981446857,-0.2071144272890324,0.1762393039710639,0.1727116467997845,-0.08083729663083752,-0.025510377349687727,-0.06748967820497864,0.12654212126219197,0.11101892955446546,-0.18195624607948926,-0.006880829763142555,-0.06070990696156221,-0.06265118918370959,-0.013268793904259614,-0.16178326962564435,-0.12149326615902198,0.12854537244189684,0.012982426494747148,-0.0728817611596028,-0.02157256101109246,0.011084989039402415,0.052954325636642846
72.96835327148438,1.0291976928710938,0.039014981055228534,0.318252006416042,0.05530691225571422,0.2783044575205937,0.17311463273079186,0.1204347863424386,0.0834723866436889,0.016097084310833117,0.020262496822281185,-0.009664994809609397,0.044873241069271805,0.34940472306042974,-0.03398277784904858,0.061540362101154863,-0.03731360185456391,-0.03047801050259831,0.1365330501117583,-0.047505426890173466,-0.030687143322473784,-0.057133001257212525,-0.05243842639306565,-0.05671558228524855,0.08992800906352988,0.11813837938021195,-0.05566625920240124,-0.0874817142976713,-0.03688055036265765,-0.08559734736447075,-0.10738903230548875,-0.24979616722076406,-0.08296179162786595,-0.004116115413743404,-0.024296080481370184,0.03132752853489279,-0.09318131201056148,0.01340619655892921,0.017548162460755065,0.10767791355090896,0.11693796236736385,0.0451553657401239,-0.31546889058731625,-0.037442616695784595,0.3883587956774507,-0.16738737483712035,-0.11339476384708742,-0.42944138913498314,-0.14301990950874396,-0.0020023200138023596,0.17234572024914674,-0.18105951149754998,0.18417098978745786,-0.1309853870529314,-0.469804224969224,-0.014737039832268428,0.041645490926831785,-0.38939444156474157,-0.14895156074440316,-0.0013729088185737565,-0.03646870146670909,-0.020351358294244754,-0.022117937994655598,0.013617169639614622,-0.009921490589879397,-0.05550586979717272,-0.09392485637601042,-0.06023827527830227,-0.0341547091896945,0.03910917568215895,-0.04163264742032938,-0.16781661284113647,0.004378795226419915,0.022691842859385983,0.19466074313826895,0.20640823310397857,0.023235514948216927,0.15849327984372877,-0.0828829302884618,-0.09491947237566056,0.14475023546354257,-0.046331066100089476,0.17464766223780026,0.0077838310488150195,0.08392630579135264,0.0874758063444028,0.12036084995506928,0.03305867471779317,0.020385539571413848,-0.045932026476133536,0.07206086671075175,0.1334862355331091,-0.06391057687694102,-0.1015395911524915,-0.17475226174764677,-0.05166111420029007,0.024541457131761684,-0.09972037537752891,-0.15612542236809773,-0.013518473577025542,-0.09041836714909939,0.5758070455838691
73.99755096435547,1.048797607421875,0.3126428157409294,0.040293234296409526,0.0661763894051611,-0.045474505141526206,-0.11350965608908169,0.015445640092291199,-0.04709034576012631,-0.27218480880079987,-0.20645574747166973,0.04754971450690866,0.14406237724679247,0.04567235221695817,-0.3119901149032241,-0.05856956734186151,0.14477997911859825,-0.08127898507668442,0.054287913541560616,-0.06461624169096486,-0.09558857149612943,0.07516409808626685,-0.055882181701115044,-0.057468927921974486,0.05469849334866547,0.059290833893938806,0.04924420709047212,-0.13023956373354736,-0.03731869388377121,-0.14515061340387914,-0.5301522805869893,0.0375537376893261,0.0068287827687184555,-0.022409817520663986,0.358132898524907,0.3252414975922403,0.21415091094184474,0.05205327415766834,-0.15419021184417794,0.522804480695752,0.28552477645894975,0.009815365141602028,0.15139074893061094,-0.06720361845122935,-0.39267697780631405,0.09387592415669527,0.06940764618231127,0.3208250446787701,0.7411125483759187,0.41356606937553275,-0.3746831640463708,-0.02572774071019899,0.3148014478084349,-0.15851739510945986,0.05377214243787158,0.3915520328663923,0.170541131881411,-0.15874016625704224,0.10057067689337813,-0.18179097814832332,-0.024816239231080804,0.0038270171248248183,0.005579422255818797,0.028434992731146736,-0.06365938197307684,-0.1431911729596336,-0.025006484228715833,0.04976459441775848,-0.040514979214487205,-0.060149684085530994,0.09337110373437013,0.09729312427508933,0.08886457193507523,0.09575178349673195,-0.027427233901766476,-0.010338265379686948,-0.014632569256709447,0.19480323853309994,0.07378822164919356,-0.017490106862047765,-0.24803100150749233,0.08493371560954845,-0.0987562277352925,0.16881837423592114,-0.08011981002258727,-0.027388765295892764,0.1406829018803967,-0.016508699580107783,-0.07930984444171978,-0.1369067578488548,0.06559446799112688,0.10576206455619545,0.005714643143408934,0.11562356741657989,0.05630125862218692,0.14313646180416104,0.10954471989527975,-0.0889826139425568,0.058018849534990743,-0.15897429676622726,0.33351016468457145,-0.06362073717526248
75.04634857177734,1.3882980346679688,-0.06985243396696535,-0.01964373500599838,-0.0771682957672312,-0.06067486247310375,-0.09946212372731328,0.2485322895502488,0.05823607583912145,-0.062430047556199936,0.08401843246987582,-0.04503739964075196,-0.025211816123729455,-0.04027895420681884,-0.029795330080993575,-0.06094173591543098,-0.03370295052815565,0.045051533915711636,0.024319564348898405,-0.16874687031007435,-0.011510337439973858,0.044653355370468065,0.07545875824988543,-0.14586242274730443,0.09663362844229857,0.09169945345731598,0.04864602101681617,-0.026923976692145454,0.17163369116205934,0.004247948730616421,0.009537268692357631,0.0005342867385648127,0.07275787595512603,-0.07031437150457687,0.05009875945856862,-0.18962698110609727,0.04408060577085738,0.37594054095205304,-0.0385477231170737,-0.08183064936302327,-0.10354310481480437,-0.031582691859285514,-0.15861898157250767,-0.3199511726363346,-0.07183784821224715,0.2667659149079008,0.17217037253487874,0.05635372150673712,0.12310583466073073,0.22481048873918363,0.4822735468342025,-0.2835888112761522,-0.04979078865412406,0.14916370727636172,-0.08810553536013063,0.1092640385440348,0.4255144129992581,0.017158503604942196,-0.08178448638325075,-0.05264940580794356,0.035812560978972466,-0.03851282588104747,0.018239933861363043,0.11322528591272316,-0.0387137711024383,0.07441088140283222,0.06801382427703248,-0.011222400765743957,0.11419054649570769,-0.0034585208829235655,0.14488007790470667,-0.06072015050069592,-0.09558599575379906,0.006227869921146006,0.08080490818081178,0.0891622114948121,-0.09100734427969946,-0.044861152960951445,-0.002381154332216108,-0.006097422117024772,0.05329160412293803,-0.07818615050360483,-0.03709040409862542,-0.0703146147001846,0.23082876092115195,-0.020920705904302703,-0.14271236630701334,0.03918738940104467,0.18430008378790777,0.02900142737499356,-0.0451115814916237,-0.002949375494583989,0.02508334144388888,-0.06528310316142408,-0.2406058733457103,-0.20090368428898317,-0.06053352377542441,-0.09377105622062162,-0.04449476305333935,-0.2541670448247372,-0.2190955471353333,-0.283220883251656
78.64234924316406,1.0188980102539062,-0.07435272125400438,-0.31057128688038793,0.3296292592821704,0.3873150336653183,-0.24432850138347517,0.635095111065415,0.1304309989726628,-0.020437802348394124,0.1237719927992394,-0.10365764508325868,-0.23861231160807184,-0.11047276801216677,0.014141707855494073,-0.043247912484069825,-0.07096096597470976,-0.08810671659579478,0.07613477184073653,-0.01625759292133303,-0.018578055230599494,0.0077583731813996686,-0.03589596785832773,0.09136688617021946,-0.020526568734850384,0.21138094804400873,0.12702823716822456,0.07207604737868661,0.010709994456308228,0.007891718630104343,-0.016872170790610222,0.10404734071105098,-0.025395717502336348,-0.28050828702060704,-0.02537127974533722,-0.11148161765384243,0.0026143162089637567,-0.16924767783281403,-0.17443576644266273,-0.2733260629939404,-0.002313957713770208,0.18805364657202245,-0.02672995254585386,-0.3698562280526522,-0.06934378962479462,-0.12321965963491649,-0.5907301880189949,-0.8021014918635712,0.49475301238660735,-0.33237788275635527,-0.361721570622975,0.42537379889459975,-0.11095236268352232,0.2015870046137432,0.054612105687424445,-0.29386000413896424,-0.24131577854087724,0.18778505033120774,0.10506186003748537,-0.03282459488439898,-0.0012911289563483598,0.04332314488440855,-0.04794963535937812,-0.014923545110759934,0.0010514126927187268,0.03894599129009422,-0.24085197532759095,-0.0663784432644688,0.15540632651687222,0.13514359083956168,-0.22784196916346697,-0.2996035606925366,-0.05135053057346929,-0.015362255451333896,0.006791429999283786,0.11541704637484228,-0.17400550153809866,0.057036126176818545,-0.010256393469123324,-0.15204029111217388,0.23266786068968512,0.0847018251184673,0.14743073373583898,-0.08478442970650871,-0.040703486222806035,0.12045114339084342,-0.05411395193467633,0.0018157482405547851,-0.16131429646519668,-0.29763867360449847,0.004955819550498283,-0.06177614609914976,0.005553473612880472,-0.0357629218207166,-0.037371528200238195,-0.22200690306131904,-0.054738011754807844,0.2124715736573502,0.015790784540028847,-0.02135018612595012,0.03139574885781618,0.08891023356996852
79.66124725341797,1.0287017822265625,0.23430778845696337,-0.12275471263172145,0.18373680281262025,0.12455747208126206,-0.14537132947088183,0.1609012066389199,0.017717263189198224,0.0188220070177699,-0.10751748511960761,-0.09794875704754193,0.23339535131491715,-0.03200899938956532,-0.2093428011617221,0.13511834310818463,-0.14249963864628656,-0.09779680590388519,-0.04796901235508063,-0.08364299678953584,0.17359812479117465,-0.050714281698925015,-0.07891623075263987,-0.0964088742074832,-0.02050753564276788,-0.019811403421523384,-0.1401347405462606,0.057986173761122056,0.21234289458883546,-0.04222383479169903,-0.03405382394165749,0.09323099597924575,0.00614212587002387,-0.006660800298361091,-0.05542447449335049,0.06234776608755048,-0.031155850324795877,0.03264442534749957,0.08553485252527253,0.051334124195207116,0.19634733327648002,0.6796599823996253,0.5554602470252082,0.23634998601908142,-0.3639624210856073,0.11625715905382339,0.4245308201690524,-0.21297170654549705,-0.0443794012263625,0.08667061793825614,0.5799470624916429,-0.1859652504699688,-0.23043861546856742,-0.0005547818745656047,0.39221233093246044,-0.027411733056180942,-0.12623571926728702,-0.06189438455247343,0.12392208817477672,0.042628390313715764,0.11355093930765439,0.014889666240612033,0.10254724873816388,0.021572515902705054,0.041687414283952624,-0.0956981899787845,-0.05400245493953261,0.03660172433772659,-0.10930217666373172,0.19713369186328786,0.08907406567831465,0.21049707537291582,-0.032408288240357276,-0.07600442777838846,0.11840943444039972,-0.1195543049290704,0.040703365474734805,0.0180506762886542,0.03142340500412201,-0.08804007805562376,0.06340062906804816,0.08327784741157196,0.011472906921587325,-0.026616714301560318,-0.02277689787132365,0.19962691111943884,0.04874677285581718,-0.1806891593885078,-0.02889374474756349,-0.12085147690697842,0.11520461238413912,0.05692240193765638,-0.060825345658365136,-0.16301811500017735,0.2755893071178579,0.08435350093343917,-0.17702035628802032,-0.02553049577629105,-0.13616480649530643,-0.10963979170269532,-0.1372029834284241,0.4215006442508614
80.68994903564453,1.0089035034179688,0.29097379349177643,0.30270579762768407,-0.2799152645144634,0.10908528343056292,0.0765911655947256,-0.08221328209388942,-0.05061834642811955,-0.004410826255146284,-0.015854445851074442,-0.2651704977765783,-0.17164864556184442,-0.10770209638068626,-0.18867588672355323,-0.140914399516842,0.14441362648891032,-0.009607547999855241,-0.019167556320885994,0.09804493448331807,-0.038587279622641676,-0.0213590017028719,0.020450078913903266,-0.03253557770950995,0.14355254026836647,-0.09094693038705018,0.016193756955846354,0.0053248648382823085,-0.1010508288715158,0.09106118128298119,-0.12085820712687807,-0.43971428511935473,-0.2168199588909254,-0.2520757932692701,-0.24207835445155995,-0.26543014461751674,0.012208294637708528,0.3226448493145706,0.09582487968114495,0.1709637510577368,-0.044051945978249046,0.06317948273311591,0.05508646855920211,0.2728116481209959,0.3648917430321248,0.5328407056118496,0.10575096902076622,-0.11519878622200959,0.4425295192307151,-0.1426975395704563,0.06639793124117288,-0.11465985564047566,-0.05480016297842251,-0.4713954779936281,0.2815263788352931,-0.1307657036028826,-0.2025131889380796,-0.06864823371455657,0.039679653714083135,0.18612395076991745,0.04673907065862585,-0.008503449946404363,-0.0018222531105122688,-0.10618295468604441,-0.013363726073686355,0.05338745423064674,-0.00430082772436389,-0.09908545104780378,0.013474454970692393,0.10125537074770845,0.14898615722071853,-0.021467481355773407,0.039734829606968856,0.1045577811917798,0.04830125849489417,0.07185981366511637,-0.03135483413446794,-0.013677208498254026,0.13336399367828858,-0.08311586909779746,-0.029303705192009918,0.0018876263940932059,0.07879272321703638,0.09915992914468243,0.031663413626937614,-0.004698388230262399,0.08903462119823535,0.02212111980224757,-0.04192764631483536,0.06351963411992957,-0.046289940327423694,0.07655644151021798,0.016457195247004393,-0.2843807203676482,0.14175326846700956,-0.1528219131864503,0.1746602324409332,0.06091843317058264,-0.06604877272120292,-0.20938941946872006,-0.10131851518228271,0.09968961432905404
81.6988525390625,1.0185012817382812,0.24821827853867165,0.1011605372422455,0.018943144630751002,-0.27589288443299864,-0.14312820173624882,0.06914501214569255,-0.07205279718990208,0.043092529452557,-0.05488634196470908,0.02772828940260129,0.04218344371407946,-0.009378358012745988,0.11604855931457646,-0.05132289531608169,-0.018353719358085885,-0.07087031985445,0.09242646176132666,-0.05511028969671022,-0.009441879158678257,0.19716518150876822,0.3312784963481569,-0.020907126412907234,-0.1003811342930458,-0.24664541429604311,0.03212427232470389,-0.3696560485797696,0.05418166861387464,0.35894703360370134,-0.029173584589028943,0.006145197975527785,-0.10159518128528668,0.31136561790190825,0.46053042498599567,-0.055847863980058414,0.23311901644826782,0.05056997951973477,0.11308361734939737,-0.10422708485586343,-0.2218542856399666,0.25205060933255724,-0.1449187183005639,-0.32352272427845563,-0.3534180852863613,0.1402492912611816,-0.31023289482647687,0.0728929765873051,0.18063903338958848,-0.006991471578428927,0.20658524192812155,0.10463635138963194,0.34141697387417186,-0.23286709162549404,0.22646459551046208,-0.2489058711305316,0.15787684256431397,-0.20858936834794928,0.04693055990382557,-0.09467017024829058,-0.04988932721179703,0.01696554238254733,0.02285927996068413,0.023497015138068983,-0.06619000661576149,0.025819766904311137,0.044665403982641405,0.12184007223131338,0.0042425624528819456,-0.025633899056034942,0.020207489972226614,-0.04788428399305965,-0.014349900177677594,-0.08931305609577414,-0.16480300272179935,-0.061849513585260224,-0.03848018857803221,0.03972044762491301,-0.06990071576708437,0.10300546220269699,-0.1215852364430923,0.007747227252215671,0.13533943159693942,0.02703330850697451,-0.1110580208719073,1.3912118625206919e-06,0.03334343479108681,-0.01687941387240059,-0.16679191409389146,0.17607143457924973,-0.00842376299448663,-0.12416191426688163,-0.21284968380146269,0.189522667136379,0.03593094183142052,0.07119101130425246,-0.16450243888268612,-0.07285853378008747,0.19098245614596424,0.10936110208407926,0.05775224658918311,-0.0863382416331083
86.39344787597656,1.018798828125,-0.05662873205542679,-0.2164222645968498,0.16159519338708436,0.022073206824153622,0.10998115991702972,-0.3886775839423487,-0.16302920638986526,-0.053245045407077196,-0.034764265024000034,-0.0382268495237851,-0.02701279870779492,0.0915338646885112,-0.0405551622051644,-0.013928164630373278,-0.06287253347410608,-0.0931847172177879,-0.06941338204053271,-0.007815548849992826,-0.002153632717448193,-0.10868683252402374,-0.047715257965594116,-0.11191748319591849,-0.12401551794272095,0.006539627512154995,-0.02631739332458359,0.08075547657397585,0.06837901902596011,-0.09362652259553012,0.06879022906365441,0.007695101421160019,-0.141243651520091,0.1333586000418285,-0.04996474737496583,-0.14664704105602921,-0.18655431315373103,-0.016849598802697995,-0.2775007755620576,-0.07500946703097063,-0.18990115451180056,-0.23780604613635242,-0.3914887122830173,-0.21325195670100835,0.06518549436266585,0.17123018002610213,-0.3704540503982151,-0.10484838561480313,0.0960795911832793,0.5294913156203485,-0.36001849913241035,0.5022457393639379,-0.2057445989211796,0.1373391337092551,-0.16460313172947416,0.2955323973607361,-0.02236681343267395,-0.13193554674290814,-0.09475809992404902,-0.013315266643756377,-0.02580999780649509,-0.060809479387997856,-0.014362565324188054,0.0646900694236383,0.0024545557879862186,0.010112975698975695,0.055910168984891206,0.11283797732871852,0.04884111106036112,0.06461731226215121,0.08651461113784194,-0.1436096673589446,-0.010796210076800691,0.1367198423426853,0.05336184088225229,-0.1310060092868669,-0.09683279307793184,0.04809171527994323,-0.009205070571349505,-0.04517099288809025,0.003006136062107822,-0.01610755199791811,0.0544037224641725,0.10161520661038217,-0.05031104606030399,0.004948118598717813,0.050579812857197384,0.105959665995843,-0.055567671173604366,0.0016614542864489754,0.03526500270668095,-0.20514995415800527,0.14451839428491195,0.07815770435704185,-0.16735713049215792,0.2167082079128855,0.012169208419970328,0.11552540732492873,0.02982703931988684,-0.35026216963436707,0.13953798411544432,0.043001434614260425
87.41224670410156,1.0391006469726562,-0.09604252413710353,0.14289242566510943,-0.18258565772794721,-0.08857291148526161,-0.10623284951245861,-0.17089545585064375,0.11650905097964374,-0.04987364107887192,-0.14227110302599708,-0.09755313416928445,-0.2540673339756281,0.1471661314364777,0.4836310640441316,-0.11907591389005565,-0.3115617138807065,-0.004763570490412606,0.021235408084594936,0.014338187925257267,-0.043541613823944406,0.16133775256046656,0.05216312855925299,-0.05413441470659994,0.12221389742975361,-0.09955115946325888,0.003422331865460154,0.001226040076887562,0.060245511257572416,0.04385479544936116,-0.06516292947962848,-0.01918538146737168,-0.028995966260266567,-0.025074169040985406,0.04497143312186977,0.0706951795682109,-0.023936469981867478,0.030384495469172625,0.23157811355679064,0.04392145902131803,-0.034554886248044966,-0.1104785837546569,-0.050343331125668175,-0.1171551352398121,0.26723601397159913,0.4918429525854776,0.9622498223586728,-0.5305872443174551,0.15118234820246107,-0.5512871238978235,-0.11521896687295138,-0.11481183029792999,0.17133523590343064,0.14625031764853397,-0.042669303415616644,-0.08142488099994497,-0.18877349986224787,-0.055862486238721115,0.13313210507956816,0.09410937388414464,0.026979788257002865,0.01636979600895888,-0.04128649603630686,0.03076943644330419,0.08211306535968554,0.09957970152996067,0.10778132985755548,0.09805243430470911,0.01476424940335963,-0.0582905401559455,0.020733988091143397,-0.030329205767423192,0.04539312918236638,0.01915290832461617,0.083604668482008,0.0221136340236845,-0.03309446220211456,0.02645417145640844,-0.06016981813274983,0.11467977482692801,-0.023598027910283214,0.031410641603752565,0.11349536476752378,-0.09527777542398759,0.03941956711610253,-0.017881491970751368,0.0638865848120299,0.06397587438066084,0.01319478951709882,-0.11139436317652048,0.047645410965504294,-0.03884002606910031,0.02564793130365069,-0.06764597061045159,0.24840559546271565,0.26826011071392,-0.14751199172573015,-0.18043941508571698,0.08046437098292623,-0.018625834585255345,-0.2543008919832474,0.1162760593802925
88.45134735107422,1.0084991455078125,0.12751346795253987,-0.043988962060061684,-0.5675410233938769,0.26117152289057305,0.11847460523326231,-0.07056342800980583,-0.10387312688586453,-0.06324096900464596,0.008771557028998407,-0.11702005953139565,0.12987676616079366,-0.018879013587987315,0.02888135597450812,0.19982625239816246,-0.08298536315838986,-0.1612549306941023,0.0048994491032467585,-0.1971702130742864,-0.12956171279055773,0.07974778462366829,0.12727179949502426,-0.022341523224133002,-0.09062991835796023,0.08810020452757861,0.04512504225619077,0.056436439421424706,0.0401479708276679,0.037736596808321074,-0.017780477300241973,-0.0442915231619048,0.21628670125845342,0.13288095462149582,0.18168739325749422,-0.2926760910243818,-0.041661564539469835,-0.1257364849906214,0.20798263754906873,0.2197102735344567,-0.19897372540216585,0.07894251937779839,0.87802270516283,0.196062917977036,0.11331946566959102,-0.022750909661233693,-0.22249422532865484,-0.447440177022198,-0.44826631962590585,0.17842428159453871,0.10376108273497082,-0.9131147827269211,-0.4847110305784852,0.04223810257448528,0.1027828519964962,-0.44626357489047697,0.01246519105404956,-0.16868263324887037,-0.0966535919391801,0.11395315474658081,0.05053267242407691,-0.00332351667155388,0.04209631713306522,-0.02597758787896221,0.04356111444416757,0.09607109226612967,-0.10763094562388917,0.0038520414964112386,-0.09944921093290711,-0.095593503566645,0.008255861785977415,0.0032391181216752107,-0.10512982277123567,0.0837771402898916,-0.03701915349624625,-0.041250670111345956,-0.0466228508256143,0.06359302805524632,0.07888772953171097,-0.01955251492835075,-0.1670585968797506,0.07719016891953706,0.12927791490620216,-0.038024904389751736,-0.09294197471965808,-0.03781211209337585,0.07707057129996989,0.040381569659952134,0.02926057026899848,0.05152115567653213,-0.03361949667466428,0.004569286590598791,0.03871593039988473,0.08035977772439391,0.13360794832319978,-0.22817941028265276,0.2408152417191336,-0.02751435115963193,-0.2806647672708391,-0.1678290120766128,0.14246312511832793,-0.06311734319971882
89.45984649658203,1.0088043212890625,0.07671177565893078,-0.012532343658476759,-0.22285422840559543,-0.24967905554316216,-0.04239344240178757,0.061311293277990515,-0.024444576363705024,-0.1583061200130224,0.018746131675394767,-0.13631745953982013,0.03475144168054412,-0.15474371279211516,-0.10239092813242065,0.24263494114845194,-0.07248802595184056,-0.2215372378136301,-0.10980998381831457,-0.38973497274700564,0.07367482908764693,0.09804523872667241,-0.009927869774503129,0.03778898338124332,-0.08599695977441912,0.03700876384555363,-0.10199701514213864,-0.005483672730776055,0.15559850235029182,0.0004078255316911847,-0.0602487492090085,-0.03445111189790761,0.008353779540676402,-0.1586173428757948,0.26812433552985193,-0.0273519509318309,0.12880463545179952,-0.14482104330200676,-0.07477309836590221,0.09362492251244595,-0.15005524510728654,0.013062606655561776,0.2302658717271106,0.22915151839260428,-0.20927260865516933,-0.2987533300408457,-0.11928810452229913,-0.09940292381253242,0.04209116025035389,0.3697949938223164,0.6816086695333063,0.24996819909606932,-0.11748108901756826,0.17008032462256528,-0.10394892341147266,0.15297908767001409,-0.31426180881823185,-0.4392232967441822,0.06790694404295722,0.0014753195195711627,-0.05886156098506109,0.08551023440948834,0.020219230031458677,-0.011743543439581379,0.02455380486803569,0.08129956473872671,-0.17896493940066593,-0.05380006385809826,-0.06534321306305232,-0.06823910219292847,0.08144125557067727,0.09204306445390877,0.07274909760946702,0.02531989889287642,-0.0362525123062961,-0.007659177720389929,-0.06136274680364675,-0.10778974685098933,0.003921150846033391,-0.0014778123633909786,0.009364971969675118,-0.054860908792667876,0.096358566672734,-0.04795740842385339,0.10578306394356293,0.00039562030161519344,-0.02427663081153121,0.023245224054007873,0.09474644288455805,0.04926184443340216,0.08228769398860286,0.1919579874992817,-0.1425291463120873,-0.0635055869242067,-0.163895950481547,-0.10745457515663707,-0.007661013921478381,-0.0972916380908488,-0.2499169944766524,0.05291923521121515,0.3626275806876079,0.14522207908679632
90.4686508178711,1.169097900390625,0.11995542992469438,0.43324967686941734,-0.06042910066592304,0.12347958799858011,-0.0015397707244810999,-0.1350498137963851,-0.17713890333336102,-0.08586868787961222,-0.11880708648188068,-0.011087039681744737,0.11452011579142274,-0.17342751941024193,-0.049312587813453046,-0.05451148398779887,0.06480168006634955,0.08906342218924686,-0.08179932415706954,-0.09641911372880728,-0.005411452955733614,0.11342010878166216,0.059080009893069343,0.02603890032581008,-0.05348122203139953,-0.011494953601571128,0.06096067818987766,0.00496065288333046,0.023694537360831658,0.05084771064644608,0.09318074445579139,-0.15260887043532895,0.07513970225510816,0.10282607245181884,-0.010908321341358565,0.03118066403387284,-0.06218878299642584,-0.04380791708486359,-0.21418539197681216,-0.30870655734483116,-0.25011245861006703,0.07285011640046399,0.08422188557764745,0.09659682012178653,-0.21159922701714817,0.13182811797363453,-0.05480238635472443,-0.2450617827611149,0.07062631385046328,0.11492140265495795,0.04639830012437346,-0.23065690734917207,-0.35253029041610406,0.2527816093406254,0.040649885878120434,0.021260088284330576,-0.002397352961220227,0.061895052665338755,0.0008237008829249501,-0.11183435354741772,-0.03706471713089923,0.004244964716433906,0.06364552006518949,-0.08854489674041811,0.13536541648100672,-0.24950203160695106,0.025853839571440718,-0.019080955992591186,-0.04575741293744724,0.07522325516459703,-0.0743464102631673,-0.003576049033055112,0.1590384176532075,-0.009098412405792414,0.11127998831899574,0.028809313676748136,0.028893495158821288,0.08180048160621793,-0.015723080843126062,-0.0011164828270491369,0.28629532089702714,-0.023419694686750765,0.11692085967938938,0.1561491238762548,0.019065637734606636,0.01775479464330115,0.032076276514874234,0.08507141772902165,-0.02414760099133906,0.05333969351020671,0.04374393314244614,0.1300481780393732,-0.041629611361165365,0.0763712433157863,-0.015389347551537216,-0.011970091033597731,0.048262898122659215,0.014557248487778035,-0.08700745056725684,-0.06887491662920839,-0.049766142919967574,-0.24721809259254462
93.88465118408203,1.0493011474609375,0.023060021128950586,0.07467767217508303,0.030419040956485666,0.07979227033038448,-0.18909474848136057,-0.2856028244086742,0.07157817058117028,0.048191505382258935,0.1171961312861198,0.10202362383483085,0.05795001819577591,-0.5680939147122064,-0.24771841240293166,-0.19035185432691076,-0.39276184817761595,-0.3333289739871668,0.25720400065544435,-0.22015908791157007,0.17746425061940954,-0.030723755213509816,0.15507881006827973,-0.09321316825121027,-0.2285050849845809,-0.05711174221225762,0.10859215132842778,0.11299430844600057,-0.03522805872312103,-0.13522722135407536,-0.018792848168515838,-0.049865947682671954,0.054073015494424066,-0.0746687305090259,0.08042926597320155,0.0692640487412802,-0.051629434442230046,-0.24653377168584298,0.04649638385196072,-0.05312220914251074,0.23348410349540047,0.4065371390733813,-0.5996510130595039,-0.361404536448858,0.17005702097624753,-1.4713996530261102,-0.1367894765973999,-0.26113987743914696,0.40320957602784263,-0.27579113850601567,0.060580094093783426,0.047832813230798105,-0.24777474295564833,0.19281227188567815,0.33816017113840563,-0.1704801686113659,0.47171920254336,0.23639103272768783,-0.09725663486201198,-0.037486443776630324,-0.018282307645457005,0.055712550689224524,0.021660690790538485,-0.0059437027030420225,-0.10412970957765648,0.13913716409901294,-0.05021840836362792,0.019522433604624124,-0.07068972535648296,-0.020992546395596307,0.1364060292980461,-0.011101043745334889,-0.20036568421542383,0.0772297079909284,0.01134798472531261,-0.14862718134318628,-0.012012077624660191,-0.12184892161365453,0.1695301300393689,0.07273618999346221,-0.10641313767637703,0.06378058491996628,0.03932425348864908,0.18231586327003269,0.048268071800280934,-0.022381516986754193,0.04280082913428036,0.12030863511078972,0.09969171100586727,-0.0052341618723165334,0.07646492557219468,-0.009161353446211315,-0.12930674679792994,0.0035063576081305337,-0.08663686479927332,0.08402502442789553,0.1742620528252008,0.012609937081299798,-0.04325561674100009,0.11039499368023285,-0.3381536724019554,0.017622158314590894
94.93395233154297,1.048797607421875,0.015091224701327177,0.3735054183614143,0.35363639585788953,-0.18627583066179196,-0.0996621008840918,-0.147848046612368,-0.011378160434895479,-0.06587157618290765,-0.013460978733020743,0.043911490366156256,0.10088101168368843,0.105302730497211,0.17269076030436994,-0.15274585584636716,0.11846099024628562,0.03400347586611656,0.06766023340463331,0.061221366682261906,-0.2000419991984534,-0.25139786234963446,0.02377245905854646,0.11002031715344661,-0.028864777515922688,0.13302895972725884,0.039188300953048275,-0.20762564491394958,0.0009518847715973278,0.10601164713021743,-0.275105347071333,-0.10281637038404409,-0.053036122085054246,-0.046977255827337125,0.21167349743579955,-0.30044874812428196,-0.19655055250671846,0.06420611423567155,-0.027705743186804667,-0.07044554036800756,0.3012842828626906,-0.3071097417411241,-0.024551366515201928,-0.5090598509595688,-0.4934640056583986,0.5610266796971892,-0.04689538447318008,-0.26795983581373395,-0.17532222485384263,-0.21153919477053706,-0.5029499470528656,-0.3539219721756149,-0.03146069771663279,-0.1289596390590732,-0.42377957496531493,0.09264713241819451,-0.17343205023340258,-0.022536398798716828,0.039568322753079546,-0.031186087999204137,-0.09199893758631666,0.011977444367981637,0.009615625721246215,-0.038694112224583674,-0.05944572473499979,-0.2673032315771965,0.029395484324105818,-0.014213726198750921,0.10354431695472574,-0.08964994830759296,0.011680047937205215,-0.004077081600249437,-0.026589419461426178,-0.0855075683731165,0.019639037657276103,0.11339890477896901,-0.05977380157169012,-0.11031085370443017,0.0814750012841536,0.04925450422146399,-0.01916151678484596,-0.16981916138964648,-0.03141731018138107,0.035598846775680086,-0.16346793836449597,0.003450339949784919,-0.18020530336125293,-0.057112351318317094,0.06494724073884539,0.0022757703478129146,-0.07353169008807375,0.02650478734717032,-0.13488185507927983,-0.006733548430026855,-0.13918786247262369,0.24536413298730417,0.17382686008308487,-0.12177602943067722,0.03437091541633357,-0.3623904521230268,0.20238272659902154,-0.037734325804193995
95.98274993896484,1.0385971069335938,-0.17767702803159388,-0.11029517908635747,0.12353793963883487,0.2554327768234797,0.3906821042020156,-0.10333501634941678,-0.14701392758576814,0.05945687591024749,-0.04371881170120702,-0.08784156373786856,0.3581749648170879,0.04001684176685125,-0.4922786636188385,0.03103295286171836,0.24490044002533584,-0.02941717048553523,0.009553132897962478,-0.2071954183042603,-0.22001541952076126,0.03498405998143469,-0.02501573459100097,0.210769626322268,-0.21066223991763672,0.23675692981556334,-0.1702923095663046,0.06736050668436923,0.2629120581575493,-0.0645055688945829,-0.0047583040094185325,0.040021757399302325,0.028536252005055163,-0.16297453291297997,0.15436452007381635,-0.06559416555728766,-0.2029327599278369,0.47056037260422784,0.10568703271000646,0.2202948784851757,-0.03629067874202284,0.13327861373768823,-0.1403292486087111,-0.3870466360857562,0.00033967396859198654,0.5146226902055538,0.885001333664762,-0.025699879138718844,-0.2608639503515157,0.4330772395756945,0.17076469233819463,-0.280547388803183,0.07189773334892062,0.05791157325887224,-0.23044385737854534,-0.2408892530304406,-0.12192137650422241,-0.34262650251701515,-0.03605122896626855,-0.020354323579404976,-0.045976672471016104,0.018272744145963797,-0.07796562640202487,-0.08287151724485928,0.030689122655093118,0.041620811984695534,-0.09238428870162411,0.01489534830166292,0.14711578427572491,0.008711143641660212,0.014752601349129393,0.007387822503887541,-0.03649543744103653,0.02757338449198425,0.09349006261736573,-0.005964876666725493,-0.11019823439425225,-0.12167729605686917,0.19474379154459343,0.1471070408058762,-0.05943238047425555,-0.05929852976715003,-0.09489003887974712,-0.25604009220860563,0.056575835886232904,0.04746174800994668,-0.00941193941995892,0.06611376617535579,-0.09360867048238608,-0.0011116487744724432,0.0006806401308358978,-0.007965864405851128,0.19808241691150957,0.10245834555224509,-0.038077831113322275,-0.1037559656609101,0.19915801718092027,-0.06386248842781897,-0.2810817461365428,0.18074020069259947,0.061438900697031104,0.033422521054734824
97.02134704589844,1.0489044189453125,0.01891149800861526,0.3784722472185002,0.04349353083754113,-0.21128253598486674,-0.03054099101094834,-0.15423543858630678,-0.04276428040724543,-0.011938982230980714,0.015130314772927382,0.23540648900594746,-0.06706201457970647,0.297973248387869,0.0786484710838055,-0.11396990208543988,-0.045391725424939744,-0.028112498866587593,0.12686484884905486,0.04546450996595468,0.0033160940048678517,0.07557302302963284,0.2377398667734741,-0.010986481690858432,0.09479505132514514,0.03461932151194881,0.23128592096025163,0.20078274913226687,0.00596090261328025,-0.016079995713187113,0.11901846370126389,0.04471300814066244,-0.2537408581532014,-0.016345073392121545,-0.3449083493839101,0.07992283375091302,0.07534883466212008,0.11505897338796953,0.21160077652824216,-0.1124240391341374,0.5172233715679719,0.020466746276079074,0.2455353411330167,0.3028809546776862,0.32694511114120806,0.4952092403152739,0.1301068202470775,0.08478109451247225,-0.32352700126440276,-0.16537307734104695,0.21568284830306944,0.01704441880091373,0.03276377488905882,0.21538142326172677,0.0010311482264683258,-0.5945498172051162,-0.22282315796360946,-0.018608284142385467,-0.055099673385697,0.031972869655712055,0.10867755982334114,0.033102064496094846,0.03059542298541374,-0.049262497009977035,0.053253989854300715,-0.060936334407613084,-0.013836678255977133,-0.05383193584295699,-0.002671089412749219,-0.2053161989803025,0.08001284321086514,-0.08766246430680963,-0.02465165413863208,-0.09795226218498486,-0.0013036450118156504,-0.05213902016990384,0.24495241397857254,-0.10286266881201371,-0.07089177720994375,0.10653867083044789,0.03768668160715943,0.03191565608303503,-0.062193337044211844,0.02627272752631916,0.004612056155902464,-0.030705415913262837,0.0249346018206706,0.008240305732524244,0.02417593268081502,-0.15149749695587264,0.11465648590170266,-0.0005919798459555067,-0.026774371122679178,-0.010511579353518362,-0.03404345114796739,0.16538255818018915,-0.08357416942913605,-0.04563223082351207,-0.06635028339928446,-0.07348159312220555,0.5389638952795756,0.17164861306404847
98.07025146484375,1.3584976196289062,0.1665352729505883,0.014467485743821017,-0.14996298115612564,-0.2209325778906081,0.351131793225604,0.009972848928638728,0.20675866069504464,-0.07737484058157677,-0.14413218875520822,0.38225606197255685,0.019077332142138893,0.018557380507267573,-0.09590953879224988,0.07879915510173877,-0.16329034511377405,-0.029785656607821426,-0.2269999501365406,0.28956067099640775,0.014065407594877625,0.15520054015275533,-0.04689219135768509,-0.07243326119189376,-0.0675642603574395,0.025955478818127067,0.031985955389572246,0.04063480005291969,-0.11458415270052867,0.1281326697443244,0.004383290883314003,0.002989076431748062,-0.009023113301879743,-0.12942320555891243,-0.016130659372853677,-0.22029977358471836,-0.005539546537792536,-0.04718689870894469,0.18939845958864485,0.08669958744397298,-0.43306732984745683,0.11786090208775961,0.10059987646122315,0.17660621597939244,-0.127305798521774,-0.027191671334095897,0.15707133295009573,0.13228330816231454,0.13933381085972746,-0.08892398282537693,0.2426466209719892,-0.18534780735497686,-0.020486650825701502,0.06321348798144236,-0.004727376219925715,-0.06940900036949513,0.032641279039410234,0.1769538687238575,0.09690872035674374,-0.02872267279696572,-0.013115308821963687,-0.033975204446607066,0.09609586094161661,0.056752224840808475,-0.038204795649533885,0.09078607651937481,-0.012584615427936907,0.04504935196240477,0.0017046757999176904,0.09566863829720197,0.01984222611050093,-0.003297070224650916,-0.02771846650829436,-0.05014520075694889,-0.014706995158599467,-0.12865844205161753,-0.21941413530301876,0.10534888673802159,0.044975903173745155,-0.09472834110006396,-0.014792965660896462,0.10729835465354619,-0.06667982951191258,0.0004577986340659479,-0.016817586841219194,0.008117790502940371,0.06732529094653865,-0.0078544587266597,-0.08044627391511465,0.10839083329671764,-0.08299777180809204,0.08934935099272436,0.06630453113932108,0.037547423800695964,-0.15220958941808435,-0.19721328152425613,-0.1470544945935568,-0.04005981362515104,0.02868290335292013,0.062441431706263074,0.13158214301637278,-0.1909747558145401
101.6762466430664,1.0488052368164062,0.2130896715620933,-0.19529023525406802,-0.09553182282875768,0.3641442081666856,-0.06603560750086254,0.16032875316125958,-0.3199428327002629,-0.09283771242020328,-0.034626160901738395,-0.06638319128814882,0.020206934514947223,0.253389475845758,0.29345517521191605,-0.09645452432489017,0.32414294840762925,-0.0888604284904922,-0.038782637578065854,0.03146543960399999,0.03247646288091616,0.08039154766430387,-0.11552914820028129,0.14687852003946175,0.019887240181755972,-0.06322193488851563,0.06328732819974517,-0.024215744724892206,-0.0194889384078292,0.09768798439903349,0.03590623666042429,0.04064140849141529,-0.07874544737837862,0.1424789741019849,0.08668348788686508,-0.2584832357484825,-0.1753786147655689,-0.12459616699796552,-0.2486040618479841,0.2837719678786974,0.007296549803145258,0.00741702963010441,-0.11056436279912324,0.3950961279288697,-0.48668943009103266,-0.3030320677288568,-0.22939102496915914,-0.235374925471915,-0.2299470423809459,-0.22706526606895172,-0.06996662703335937,0.00684963219015762,0.061062939100977064,0.10095433588883218,0.3384621514403545,-0.08603486636608754,0.10291567762281506,-0.04906222332694717,-0.06342730815381556,-0.0017986789429717477,-0.050277053736182485,0.036161560546345756,0.017721923701562933,-0.051546241458645135,0.3232541890817803,0.08113684761027011,-0.0012674946245394168,0.08020147054765642,-0.016081396951063802,-0.04442200175647846,-0.07313578437153229,-0.09978433043650797,0.04986594806381351,0.028064026362149427,0.013639074239107034,-0.016295920321064736,0.07032003704952489,0.07172757413819905,0.03552723992693271,0.11424387668022135,0.03069322081336959,0.02693027138789056,-0.036010703816312294,-0.13628748364550114,-0.022987036108667563,-0.06991821216747626,-0.026624646393008003,-0.09961415519073744,-0.021300630688325013,0.1386693868343016,-0.05078541257727563,-0.16490068448437778,0.09688571122998704,-0.012370785333692874,-0.13295457201629898,0.08430716039675697,-0.039187933521057,-0.12451535065037321,-0.3750025251935014,0.15678698859381124,-0.12939393742708757,-0.6493734629855538
102.72505187988281,1.0288009643554688,-0.5118545863717807,0.24263443298474802,-0.059744023866655054,0.26288118677093314,0.3921129838108768,-0.12258621904684534,-0.04205555829658757,-0.07407958723412617,0.036926650873618766,0.032853716973216436,0.09361637559528956,0.02296688412009849,0.07201765412264823,-0.2141632787922763,-0.19905800959700248,-0.2203024350638034,-0.15238426457516355,-0.18750792188475066,0.11010390158690425,-0.24159945009314895,-0.038867857108357454,0.12984046872358385,0.18924890583379725,-0.11543713537627781,-0.026905165278252124,0.052161384697056855,-0.19700467281195364,-0.12488308047491399,-0.035859887345419346,0.05738361708466396,0.1282889110753652,-0.07192516524653937,0.4481389054367333,-0.14451243609340997,0.27425353682935916,-0.010647892076132925,-0.14385770873623793,-0.22536077299478507,0.06728037347078024,-0.22456350662375918,0.16231916205030206,-0.12898304061712554,-0.3024946033453946,0.017002856012666316,-0.06465361550975389,0.14080254387296434,-0.2627062781564805,0.17743971041491824,0.1017759482638747,-0.20568711374853269,0.43183118587179115,0.44299254190232,-0.13948589218162905,0.09527137104290503,0.2876059512368968,-0.08740631836991021,0.21385263962110732,0.1755574961098939,-0.007372210041497229,-0.058259553310493935,0.02265429288685003,-0.008060163761510399,-0.015146717484069554,0.14831704877362767,-0.2145408702862534,0.057134840148394365,0.11070905423866548,0.046426365549743547,0.06497211792981247,0.0016301838838173183,-0.15368978855469892,0.0330659214449227,-0.055352042740744345,0.025598884429072866,-0.15564394788289154,0.09662165443823635,0.0881565076154037,0.0843816836947007,-0.08558824540576622,0.07707931691297348,-0.02776299781152983,0.0062379515397662354,0.05424929093162817,-0.1802675994296345,-0.07825728989820406,0.0008281303838929693,0.2742856473499646,-0.03829566776114532,-0.12437480576748794,-0.182551715834551,0.013151198990908667,0.012609460503750869,0.02054293223533063,0.07648539865316734,0.014588113411131566,-0.13004427160298304,-0.03520176998350824,0.0014150777865978986,-0.21358032465349946,0.016410465059322532
103.75385284423828,1.0188980102539062,0.14649493364090002,-0.2733085407415698,0.3248350580230972,-0.10887599011934004,0.015498031910341036,-0.18072291619954367,-0.01643980100126493,-0.08223629197104917,0.036427392178645795,-0.08931529473234473,0.024551413306646015,0.37635355516643476,-0.0035535593226162596,-0.07077356868704643,0.2447105641531088,0.052327318259254005,0.0005967665579899653,-0.026276250696910735,-0.10165913502769265,0.17414565741922017,-0.09930576979887307,-0.20517068203484895,-0.021996951848562915,-0.08867308226552743,-0.018172849729202228,-0.09605980034216417,-0.008246269058527902,0.0875768504534384,0.018131941157399384,-0.1266024697878458,0.22025680750902205,-0.027481574076786863,0.03430754950975723,0.17462573538064466,0.219630248276997,-0.16456926409851333,-0.05145049839289707,0.13270097122972535,-0.14450601682948525,-0.3750115262011017,-0.11621784690817583,-0.100880430910784,0.09574122099427138,-0.6259234417966908,-0.10629171944844071,0.5447222084015477,-0.04330251107711499,-0.1975970856865984,0.2256271485486582,0.3089917010342941,0.20614991855116793,0.30051753361878425,-0.048397116565382564,-0.27997492361485354,0.13675099682737188,-0.12337960138927198,-0.46104900857982234,0.05524340000533249,0.12031132985872277,-0.07903793099568593,-0.04495536741901311,-0.003326038844332968,-0.005860348593835604,0.01553804030519592,-0.04400273986850297,-0.1547395215982842,-0.04417435229117561,0.008458085901221185,0.08364452836482045,0.056879018059160985,0.009221364188436387,-0.003428578901905921,-0.02532235896565458,-0.05836445499869998,0.04051016740922256,0.010454906116289197,-0.13439498397710414,-0.004292952220547895,-0.008627236730508704,-0.022889870726010994,-0.10935729142851104,0.06818573665391148,0.003350271282036993,-0.023563379488267183,0.02366078105999338,0.10856743232185,-0.055984380323477724,0.027120406630171488,0.008237343178511266,-0.1695448647364549,-0.10880019900753954,0.1179896562084293,-0.07582566135970646,0.17804434777022116,0.041943597834077355,-0.15725231767905043,0.08323863846928745,-0.11914183192738825,-0.0436645368232304,-0.3157327068153153
104.77275085449219,1.058502197265625,-0.18492579213538612,-0.16552569515604115,-0.03040339705802678,-0.061010338166282964,0.06604783646609948,0.051280452006207344,0.09883617931168041,0.0013758080833796288,0.007943886803097044,-0.00034486258714722107,-0.03983455431861215,-0.05999190807652942,-0.014887745070867708,-0.23942482812480156,-0.06222398675012629,0.20154801360053828,0.04765924108502929,0.08505190089724847,0.09045647680329481,0.07037209685636632,0.07856247176651479,8.549331997893171e-05,-0.1942869062387522,0.0583754673697911,-0.07887981547527016,0.16839640297881087,0.07095747834254779,-0.002799240364704452,0.054190716980996465,0.4143401136205125,0.09280865168631197,-0.012180800442834257,-0.05989279640173651,-0.012585717415911593,-0.05979167098453653,0.014367145975494815,0.14101256439528234,0.36614661710674273,0.3848796629348119,0.04383658472315182,-0.21662054739156233,0.43794815256538755,0.2550349727805303,-0.09819040598410395,0.024426471708924438,0.41694066119122564,0.08834336605043785,0.04863999371545165,0.26149761403390914,-0.7051074046170641,-0.08906187645008773,0.06473734186537694,-0.1003024382958014,-0.28679082075870754,0.033730156503852284,-0.16090253171585034,0.21366355826857336,-0.04510229002297145,-0.028644185242663607,-0.08610974288070977,-0.07960371577789269,0.16630120562907136,0.34334987129382083,-0.08726055059195068,-0.07085644244162484,0.1605898770753341,-0.038857607102621414,-0.04847683113084298,-0.019667591833677812,-0.013428830526096024,0.09821445355432684,0.09110048138593223,-0.08054328792768727,0.05611888136622786,-0.03489605167431259,-0.03595675930424046,-0.011746449126316158,-0.03464359432553794,-0.01814324855592257,0.006293069157260149,-0.12422905953402312,0.04809210750139935,0.17110040177952268,-0.021049859985314195,-0.06011412920560577,0.06288873181610519,0.02191422715720094,-0.03610452683237093,0.01355508481155404,-0.061505355554696835,0.027650120492851912,0.03574142943177322,0.08404061218452863,0.10682235055977791,-0.21220617539260223,0.03153029961991314,0.12851172923166432,0.025591396412548886,-0.15734793179337891,0.030218728293453956
105.83125305175781,1.2285003662109375,-0.12369359335635888,0.11115587274764381,0.2161837929986487,0.39844345625600397,0.07554972668337388,-0.050719870851216084,0.06738971639078789,-0.12591595238287834,0.25901085721008077,0.13857786615982337,0.0060330000354953785,-0.16435601283883733,0.2523137448281053,0.33240854311022633,0.04027019953520789,-0.011779550363432017,-0.12432788140006912,-0.12889452595497897,0.12414431416570552,-0.05017455324953756,-0.12966656786381836,0.03824542986309715,0.04769061697376557,-0.17562692452610676,0.10911293625202625,-0.052989684971019975,0.14851937835496293,0.006835089760968612,-0.006314039974317565,-0.015957026699861952,-0.1058811154855966,0.3430436698127113,-0.28137697154688274,-0.5687713592157311,0.021697026259117527,-0.003022620155394631,0.06580702188248583,-0.08439331330049486,-0.06643689698814266,-0.36576085355037535,0.3498195863772555,0.18421565335303705,-0.30885008290761357,-0.33621683666782753,0.2047386274397315,-0.00205746973963882,0.06664266834871083,-0.264687926494111,-0.06373574320463037,0.016069336671889513,-0.0025506481265272496,0.026640064366157984,-0.2157132994878189,0.14356807990752965,-0.05210495689644962,0.18762275867970724,-0.064396849086261,-0.024354618639866515,0.10126095106476474,0.04318436447490066,0.018608145494040898,0.06865295163988619,0.014634061044931063,0.14012280066752653,0.01366147962251536,-0.06580835103299654,-0.04672009418200843,-0.040626327287481265,-0.03570264911541417,-0.015316192918669227,0.06220573605493025,-0.08019253890097186,-0.1163120280869408,-0.14660558690932493,0.04485987985157381,0.17800565335876212,0.021784647950190944,0.010472176305940365,0.19028270671825714,-0.025998459771151422,0.0019292043856042333,-0.030638260693586244,-0.031104985242613906,-0.211389260997949,0.1377515023018735,-0.086871060891453,-0.08496008195793048,-0.025102833637831938,-0.088009021460565,-0.037512490296047446,0.02994586921867499,-0.1167270964344969,0.1882835363312753,-0.05493679288077039,0.5356254000811933,-0.035750161152800844,0.1138787942371789,0.15589442974300058,0.4114838882822374,-0.005908033625291825
109.42735290527344,1.0388946533203125,0.04747543004423375,0.04530419957707492,0.07202005775924772,-0.464957440412921,0.0730675380714893,0.06307219003326212,0.17391399725228834,-0.04505591851230803,-0.04252338360140699,-0.021036566240415822,-0.049123222778990214,-0.10983167980969082,0.018560911608868514,0.2609161325137314,0.04644986741273177,-0.03703142507591054,-0.07008109010036664,0.11113064387201332,0.2528285457270276,-0.23059026998160762,-0.07941374931524771,0.08806775358750457,-0.040423362896086446,0.06338242779699288,0.05575058772749669,-0.010040255461133423,-0.0007703792249284403,0.013293543533190032,0.056616183687994606,0.05437062739883772,0.1310673025165291,0.08423358294634076,0.1283500573278165,0.09377271482270907,0.1920399143122269,0.052995388514553037,0.07137830236976592,0.2632034231562407,-0.052424868242248755,-0.44736602620839644,-0.05207957579278019,-0.6090972217887866,-0.2573785657946653,-0.3542273721002376,-0.002478887303099808,0.08948956321559254,0.3172952254332746,0.1284507281909488,-0.05891478640054054,-0.526726525990301,0.15908235946071322,-0.03333880804491325,0.039320393236134545,0.016698779602710143,0.03126283911055476,-0.04842074874360014,-0.030603217025372224,-0.023962029225059044,0.128975696224603,0.0048204877782368144,-0.07571811511960588,0.04390166820607122,0.028302565293313965,-0.1462444603120786,0.07062677388216324,0.12291730925039536,0.16045386427462166,-0.0010809305521460738,0.13281658402290727,-0.21237951149614795,-0.27988167003085634,0.12843278465060654,0.06336931677289509,0.0674272102579386,0.0671336428068611,-0.06394128467598503,0.07260012601972045,-0.004296067688891394,-0.14366967621157598,-0.05432290128966889,0.05101133030621516,-0.036326972696718106,0.18235258063319937,-0.0375094811015554,0.08339687908058258,0.15875378467072315,0.1764397335429661,-0.221019172015691,-0.07377385324500622,0.006224744935254392,0.19324564677803457,-0.01724411684664163,-0.13771521441274756,0.03355602576748325,0.0922543641148925,-0.05941493563081211,-0.32329220393108943,0.018756341756126116,-0.10344120310591241,0.14771059016092206
110.46624755859375,1.0288009643554688,0.2975215095264391,0.3185794057404515,-0.06490731489911031,0.6112695092957116,0.13866269889334684,-0.015393920414854916,0.11732637911587801,-0.0001898862865917911,0.058264431654636295,0.002104510862843623,-0.03955566348980081,-0.06706470193098588,-0.10978262611257064,0.2309664097110669,-0.06427882663122013,-0.14698406095747102,-0.036418587576738895,0.08017495461115963,-0.1347005672888225,-0.04147560020021057,0.011996169169957244,0.11737548333928434,-0.09096410939253789,0.027224238750622142,0.02914570911724912,-0.09142548219798051,-0.06945865552000871,0.006256515188396081,-0.07472930767143764,-0.033207579525267435,-0.07670237057027458,-0.009742437528226615,0.18364683793368736,-0.0737773934314678,-0.5321348461831197,-0.2261199901493339,0.18912151376393763,0.15523781570343656,-0.15143275353041868,-0.08000480085696435,0.057251188844056645,0.17288330620957645,0.5779502964354646,-0.7107294020083783,-1.003044851364733,0.18401372108644548,-0.03762193297583272,-1.0502631804612663,0.019000381238567857,-0.13099908829471688,0.09028961561810221,0.16177463676977205,0.14651714294693471,-0.24336279202120964,0.3267193903902698,0.3564913382591665,0.02054720816686978,-0.0017915094857809278,0.004643413075046053,0.02302924111393917,0.07472809750468909,0.015595684155723462,-0.02111484067569694,-0.03385948913903895,0.01344098579009696,-0.036822558982243764,0.041698193382139814,-0.16846916030917988,0.05468197595978372,0.05624628351731949,-0.07515435416023844,0.04554483345809292,0.057932226900144775,-0.008348978801856421,-0.02833577761747311,0.04676312497437959,0.038338284835809464,-0.0024275409672175063,0.018178368377376523,-0.09270621693731713,-0.00510313301171718,0.07720544113435968,0.05322108717221321,-0.16525019690174922,-0.04665939423631291,0.04769479519736671,-0.10400364186266711,-0.05431015113913148,-0.08621592756013931,0.05114497604523937,-0.07558972557068779,-0.21521579989671435,-0.004974183601240736,0.1477152610527269,0.15176591646669016,-0.12586208443759384,-0.2311321542243605,0.30307374344698174,0.37606245943549177,-0.09567300822722868
111.49504852294922,1.0185012817382812,-0.09496660127213305,0.0184998543076004,-0.23172089669911908,-0.17660879778590594,-0.02870134510629572,-0.2612827475949793,0.014964690193598716,-0.032894050366599266,0.04652002263033793,-0.0410412507083453,0.246789922844412,-0.07541183649520303,0.10072444605150187,0.24429582784078643,-0.12049845415549901,0.009513693761387545,-0.12781772562702182,0.05234220241243794,-0.06570852221381489,-0.043447899784021686,-0.13778793096289804,0.31996200525111607,-0.008754763387004968,-0.1971790193413931,0.00040160117883583386,-0.006239647671998194,0.2736267364749484,0.017229697335104373,0.17321825546314992,0.2374089664002848,0.8114296549392691,0.0824953918347982,-0.1357582251228501,-0.18975086814798653,0.13902022955420498,0.21758900150041482,-0.033784816737906585,-0.1841360977636098,-0.18466020763225516,-0.3524454765207878,0.24605823790781434,-0.3050143468748514,-0.10951842188859777,0.19634017869072776,0.323120034779434,-0.4234660707761616,-0.5921018321524911,-0.038195367623786364,0.2233097745409543,0.334927682050282,-0.07335521176466356,0.10298892875085479,-0.6005612307813833,0.296262351091435,-0.16869354883352264,0.11088710665148954,0.0981615946521153,-0.0002528953471476606,-0.05137652464653118,0.0038848489713258485,-0.022445426128387277,-0.03257418702167619,0.09954496009178451,-0.1257776911884607,-0.0940950805516752,0.05232246313566394,-0.055788595275479365,0.024550560466530272,-0.02220403069587413,-0.006481981447679938,0.023600724505054904,0.03707925039702338,0.07936213663539453,0.04331065170371705,-0.09059059983886406,0.06058574195823826,0.039737064772212935,0.0030628164116983285,-0.10385549574958479,0.12041635867409421,-0.04765896536927731,0.0493316100351701,0.009679740410028146,-0.07876246891861603,0.10048187196298143,0.07381264952059405,0.00779896197118007,0.09377854339062179,-0.027725753313987165,0.14261668470569586,-0.029458669230722115,0.17979069435812184,0.13494178227832204,0.04935673846204479,0.20408044687631982,0.12791562665847325,-0.0365302496730896,0.0297957823202228,-0.10291621623056908,0.0550249241264985
