start,duration,0,1,2,3,4,5,6,7,8,9,10,11,12,13,14,15,16,17,18,19,20,21,22,23,24,25,26,27,28,29,30,31,32,33,34,35,36,37,38,39,40,41,42,43,44,45,46,47,48,49,50,51,52,53,54,55,56,57,58,59,60,61,62,63,64,65,66,67,68,69,70,71,72,73,74,75,76,77,78,79,80,81,82,83,84,85,86,87,88,89,90,91,92,93,94,95,96,97,98,99
22.96204948425293,0.9186000823974609,0.03740938842176265,-0.01698413464918231,-0.19138030224981092,-0.007780923634863232,-0.030478102290841733,0.011446268256892801,-0.07044334623232662,-0.049795380652870036,0.07121377285152519,0.11316091327817873,0.014241716016573628,-0.009062031315635837,0.06391099166296925,-0.11584034273355401,-0.2365238117827335,-0.11243340232698562,-0.10022464280388872,-0.03777865531863979,0.005003363264540876,0.01984978823433118,0.0641521420738578,0.22606658647775338,0.1534016966353834,-0.06814534803417564,0.09779339325501143,-0.21491239395365508,-0.01375084695228979,0.11074393371231775,-0.2933895053291712,0.20136101126299433,-0.11624920336480563,0.025555753052251773,0.07813013993018861,0.2764752469755302,0.35099718206899433,-0.04842835084278308,-0.5133523957349576,0.12596713800578033,0.2582005105507467,1.0466433171025553,-2.724123160668461,1.3185616625693686,-0.6277784075654675,-1.0525154335087172,0.6201217728612137,1.0582903648340265,1.3806576090483413,-1.707638456528556,-0.09386216232048704,-0.1242217462774866,0.7532000076382946,0.6604289374190097,-0.4104613435340739,0.0017945198376863834,0.08693544844676546,-0.03610701899275154,0.01651060341825822,-0.03606670228906984,0.029109204461392334,0.03355990475283689,0.06469843555304033,-0.12976004941827984,-0.16111477587336206,0.05965126516967768,0.027967843455386984,-0.07159825686912266,-0.0790919722970675,-0.00037431173780821166,0.032643617269024386,-0.06402505192170464,-0.04263604104365098,0.11142857059017013,-0.09012415971420609,0.024886858739468304,-0.04482657299437866,0.076088133653578,0.012268811876342062,-0.0064622429013716925,0.04538832417155768,0.03505419380244254,0.012730133367432823,0.19295041675176494,-0.03831042901792097,0.02684887158735202,0.040492643186773994,-0.11035691845960718,0.06621273887259159,0.13718154003565242,0.07821897300707595,0.05201910529669328,-0.14411109885421608,0.07238871031740385,-0.01909005282783413,0.04946011366151132,0.01226702949081547,-0.014231617835180704,0.05707019187356621,0.044771865460325445,0.12245381036067658,-0.13689545015610444
23.88064956665039,0.8990001678466797,0.004010224809830379,-0.04246974012090221,-0.04397884932208876,-0.00914817252321327,-0.034070208442471384,-0.1272502948902327,-0.06493653445534596,-0.004325139566115975,0.09430285094119312,-0.13927071619967918,-0.08297533849102084,0.0518890742033871,0.12479898986620466,0.037748646684022405,0.06563141177695511,-0.08208857601028313,0.055683510884308215,-0.05752654631735833,0.2693560713349904,0.31398612542517584,-0.03336655824400548,0.22704016884368386,0.11905637131565452,0.005847135009888401,0.15363356592136612,0.10910803144815562,0.02642458507038245,0.3090707648689864,0.15591632517324955,-0.18046959855235248,0.3319822284621188,0.013490280316574225,0.3282163817844925,0.40339116398845176,-0.13643355104758514,-0.131818285101568,0.13560139025013354,-0.23469066954705203,-0.14957149716988796,-0.13681213495863015,0.11583277064187747,-0.0275994550739537,1.1673505933174133,-0.9695997230082755,1.9902012574135861,0.0912048737350997,0.82602479652235,0.14802030804604568,1.4164196539944427,0.5509445918195592,-0.8187707043825416,0.19350811647572672,-0.020271955127833575,-0.16217626115977568,0.033875894796028976,-0.04784046039514691,-0.048810006098464115,0.041473601326998746,0.0012913428048875535,-0.009948701805886195,0.022336384630970083,-0.09817986133367435,-0.014699337535125995,0.043288350676283,0.0023950665656833486,0.2571403090640277,-0.17828817155289173,0.05816543370877513,-0.022772134694845333,-0.017094064408759484,-0.1077830995180722,0.09090748072451019,-0.005763548403535419,0.07568097290251474,0.08894262094464313,0.06045147906664169,-0.02054967455237963,0.03619933672327916,-0.026611925422074297,-0.0033154925851742673,0.046016050160982785,0.07483906626072012,-0.05967961905548881,-0.16432567956579325,0.010317489818765258,-0.045370217346735825,0.11365047610053813,0.038228367129935825,0.0022732197413672718,-0.056146264599348635,0.008738146394601756,0.09383143458780414,-0.10960207797837164,0.0763631689200795,-0.030897857958306674,0.05309059913571696,-0.01962495598404706,0.01566365853818746,0.017753773067959763,0.058079909180475085
24.77964973449707,0.9491004943847656,0.05537329496540296,0.04866369993619907,0.025322137569316394,0.054565870985626486,0.0186697698451964,-0.11383767497334311,-0.12058516901649399,-0.023436698282864373,0.03682352357575257,-0.05557090702683094,-0.0018665919226213813,-0.0463650906800024,0.02486183746366405,0.14876559371290382,0.07536483721453335,0.021807580126182252,0.2841930721407657,-0.14190976774405262,-0.10900288577520607,-0.21115934917879176,0.01114099202140712,0.0753439712735157,0.10081400874460286,0.03277043027690991,0.07677736215155702,-0.08183589326265396,0.0007973349984594126,0.07423570194414303,0.07321644114191199,0.07292651293273676,0.0935335423961618,-0.20346491019739213,-0.18213695256061885,0.23091913766686828,0.1098525024887026,0.3234967759858572,0.04393241624890401,-0.31443031379581554,0.8346767576989129,2.3175224457490486,0.24687457526459317,-0.013272376208646075,-1.2627584901157805,-0.19133209346375654,2.021108834567031,1.1793064329792775,-2.401457961823257,-0.4668782275056754,0.7657162236000321,-0.0764415640811855,0.11815018206417743,0.07665507343169436,0.019390026552693534,-0.04420761239053798,0.008620364624495964,-0.006087484904348323,0.06209728471027467,0.05498129537182572,0.05521465418566253,-0.10863466509532244,0.09166085339039967,-0.08235472455993681,-0.1382538270411896,0.05324037972807139,-0.05473039393773596,0.03636344419993771,0.005816262726634457,-0.10828592033790987,0.07192294567792581,0.11149639415658827,-0.04337384996998007,-0.10942238502744583,0.038485129547065934,-0.09269592811411206,-0.0213925130794032,0.026169075295677344,0.018446771490428518,-0.02755382207175351,-0.08550094429562012,0.1044320171530832,0.055737718402705166,0.023952798514106928,-0.0010014901560026351,-0.06111248745116594,-0.010019692764670723,0.03963051483229085,-0.10837517497884909,0.006970835469419245,0.11324671904566871,0.01902913486790067,-0.01406280414770344,0.10581860176341117,0.08207168525254081,0.025802073342878266,0.019069527662232313,0.19715639205902183,-0.22316169377649656,0.36927181062634507,-0.12243147082694025,-0.08001350520371056
25.728750228881836,2.257699966430664,0.05745669793541365,0.13820381219316116,-0.12754606771215612,-0.02610519276962308,-0.04488253380391543,-0.09223626565325332,-0.05381932547260812,-0.007721322571604623,0.09398342103340138,-0.05341792254246032,-0.0703269433536959,-0.004217412803865398,0.12219775926582443,0.445152145630252,-0.0911826394066733,-0.017085044439517236,-0.07439566169624579,0.011008039609373828,-0.0012066398016542454,-0.33808510297429634,-0.30913872241840934,-0.013911766818544884,-0.028855924886574846,-0.013044076076579952,0.08674500672429201,-0.010750979827486185,0.023936978152161146,0.03389123770992845,-0.0864145836106895,-0.013496000386818155,-0.03368193965322729,-0.15859876522705985,-0.01212769378022045,0.009336281792172177,-0.09758609099784307,-0.2939665140271869,0.0434921877846743,0.04312094556132211,-0.0018769120178207671,0.5560578919948588,0.4429146295502675,1.3686786989550912,0.5397413932467334,0.24360216540057378,0.4657199251968202,-1.8911187942736214,0.06021317525598448,1.06221895674605,0.02013536428224085,0.09544269813495412,-0.11268230492051873,0.018139604158309203,8.145103970180127e-05,0.1629707124951707,0.018291147885707508,0.0001250170559154943,-0.0375996916696811,0.008367280931167025,0.0003516535553936511,0.00876263137997563,0.01916612104746696,-0.07069165723173973,-0.04749554603559429,-0.179591777535189,0.029584158720990333,0.050125362410114165,-0.25298920611752546,-0.03291912829227959,0.002739013363556836,0.041590922582579654,0.06824360997971972,-0.006820410164564526,-0.07498492836555792,0.18758829650054637,0.050443473600963504,-0.0013628673819345233,0.00782623394212955,0.05896601649426967,-0.00025619108072363894,-0.02049684393618413,0.017696569729020183,-0.014528310945418316,-0.1103036783487373,0.041419569350340885,0.013703595358809925,0.055752201780065194,0.06989049569035848,0.14065833826379115,-0.002411806692654353,0.08772169946080181,0.06883464965026656,0.04029789078895653,-0.012124452553693857,-0.0496274860478303,0.008641345289028983,0.03911717249273112,0.020160400102883256,-0.10302624005970984,0.07897874412256312,-0.11083133333684132
29.933950424194336,0.9391002655029297,-0.08258366780862879,-0.03485786676635581,0.09237588411104625,-0.010340945260109131,0.08448314563195075,0.07221854025786298,-0.22083118614661948,-0.020071246510222934,0.010516510135084102,0.01818882952901401,-0.07594270600669097,-0.11205702784701546,-0.12578222399801775,-0.3692804422004069,-0.058879589059131536,0.01236890418392834,0.054185219384356276,0.04655625985227409,0.05205355356164806,0.21952494427607183,0.25357163930325194,-0.16398955913729846,0.07979283488862696,-0.02946174525315829,-0.12651193976650232,0.15100882949277164,-0.19355157443745535,-0.034568569873790804,-0.013976501387507785,0.03817227791338187,-0.008886543725989633,-0.02083463899004697,-0.13080483052032166,-0.10209424539071629,0.13887112350918845,-0.10642900699610948,-0.005359337161994923,-0.23391121205712034,-0.4467050877283934,0.8801057706197624,-0.704192616862663,-0.5929349385154864,-0.1371422459179144,1.0634273073033995,2.3674173629501607,-1.40544310152928,0.12287754219014492,-0.5607589293483355,0.8712127221970021,0.2319485998781705,-0.8158974548601146,0.4147246314454142,0.2818723342013399,-0.07532827836125229,0.02147570091521293,0.04533523531124764,0.017315233287605345,-0.01666341536625513,0.03743039678916505,0.05095929087562166,0.02925167282442476,-0.07739503486195977,-0.024934640962609604,0.09279753516638882,0.16354946306736462,-0.0010353732695501429,0.06420053165343803,-0.034427708566139456,0.02962433163415381,0.004729201536847687,0.10556527623329019,-0.08331923750858067,-0.03546495301760781,-0.031954945925343176,-0.12680007647682695,0.09860410502740033,-0.06669689174939238,-0.03002557133511949,-0.060144052734464916,-0.03332420204940034,-0.07270516220138519,-0.05993521594161632,0.11947763916151381,-0.05644689528398365,-0.029324625935950338,-0.03589535565472105,0.17696166431273358,-0.0343689897206335,-0.011397208476926352,-0.14473911865886746,0.08872428925130377,0.07822804986411105,0.0556905313706365,-0.005140634243231884,-0.011152473168064388,-0.024514976849258976,0.06906516691675936,-0.0014554305630201,0.0712861885980567,0.13106070531381486
30.873050689697266,0.9386997222900391,0.10535515632614058,0.1848641334064327,0.03631655269644769,0.13083557868474133,-0.1203669498090893,0.07757376185310805,0.024433472185181902,0.034167969029125715,0.07104615943588419,0.030481724898363483,-0.010624666162328756,-0.032882012173191075,-0.2707359973194961,0.06848884619434653,0.023401865691161657,-0.06409715271917428,0.08071707615068228,-0.12738807412233982,0.11591562796536813,-0.22397595289208294,-0.17574778408955896,-0.07448528203279255,0.014096409183380426,-0.08525675827040659,0.00648088354045917,-0.043079774737931786,-0.03537514073015529,-0.03908634646398566,-0.01200977444453305,-0.0993594192306412,-0.05231762481985292,-0.09226255036419574,-0.049996367569455455,0.26695154707096597,0.08299717472243157,-0.1839815251569954,0.2386252482909081,0.01785054302004481,-0.9598827554790568,-0.02831054001879052,0.10676774484858158,-0.27294346207948045,1.0754278065198437,0.6742345560437606,2.1295057496353405,-0.30667821202202883,-2.613090449927427,0.07214960977134321,-0.8596623476226919,0.3573491355115492,1.1488640509362342,-0.34662664238653973,0.2736777595959803,-0.2290491167971325,0.04693560879651385,0.00984651924569425,-0.04791698693698811,-0.005639192183029049,0.01079594388201019,-0.03270345175012805,-0.03433549756180461,0.0314170087395577,0.02617061309871363,0.05771393118542182,-0.16923273327922073,-0.027492123022520756,0.019197509779538595,-0.028973814908381218,0.025882524995665474,-0.05008840257514098,-0.06446563215238345,0.024866889389013283,-0.08627693927048131,-0.0049454278434963,0.08151555149075994,-0.05614638613225239,0.06034165023959078,-0.0028537617286508604,0.07490104645664622,-0.13436794025191065,-0.006748563490752483,0.021398884952136613,-0.07284840699589963,0.02992755493395459,0.09855812722525499,0.09548827347234447,-0.10354966819830709,-0.04548555805541183,0.05304769313338105,-0.08551758084837364,0.005064682856248141,-0.10347691996421811,-0.007964739357940379,-0.09042007312411968,0.22260350677469687,0.07160538038266027,0.01872721662193918,0.008577153923372228,-0.05595737291784049,-0.07961183611728202
31.811750411987305,0.9491977691650391,0.02552375096903878,0.0015684054808469197,0.014153302805238376,0.12497972349576032,0.06567430694028258,0.12211106050044829,0.043634234442150664,-0.0246880744486527,0.12457755662935976,-0.12820569120855962,-0.07643797699145805,-0.05787035601967602,-0.055988722410842545,-0.08935100537650376,-0.15163544476088048,0.17395064078025332,-0.028510779131964356,-0.1453834462436796,0.06885757481966259,-0.06122534728154848,-0.1676439783259574,0.04380365296022633,-0.10918950322763889,0.07045605971260344,0.02761894216507671,0.0014569051849073443,-0.08575265510695455,-0.12367127764445034,-0.08275215393523801,-0.037649136372249134,0.03709682385782073,0.08525661245891597,0.3317238583896861,0.30329380292138125,-0.1106763592716273,0.038621293074544455,-0.07828491396899062,-1.1196373667882618,-0.01643512887822634,0.3914408921221782,-0.44480385435242714,1.2792616603702633,-0.13942675814667554,1.7455381796346194,-0.9210415824286157,-0.9320187386768669,0.1719270295174682,-0.7444049286891089,-0.35896173540305765,1.5673917079064192,-1.033483481006175,-0.21257340677557324,-0.0871676126102386,0.02125684095426203,0.02544473844135141,-0.006647572165431187,0.06640645337893422,0.012117656815737196,-2.0411577339517873e-05,0.024294273356157168,-0.08132946872118492,0.14353609594350522,-0.06721997667741295,-0.0024759750743098136,0.0845588434342051,-0.013653582615588645,-0.11506610940893802,0.02980826991153259,-0.10101820653841258,-0.13212406465076557,0.11064334098659592,0.04944953587986298,-0.058481750131976956,-0.026560457472260515,-0.02276649997678006,0.05877151050337363,-0.015583614663528374,-0.020299996077132357,-0.03225232312647939,0.0037965178321963393,-0.01265650902338023,0.11631585385079088,-0.02873165345140688,0.04791745939071458,-0.0019115180465663518,-0.08390254671151487,-0.17014928716269237,0.042509956124237414,0.006807424738995267,0.07194801323400907,-0.10001272479358404,0.06694168319336039,0.10587320654835738,-0.07346730968256078,-0.06293798984854714,-0.02742756894734627,0.05347515188881819,0.03547743001951243,-0.11550890916195068,-0.18993812005903013
32.760948181152344,2.1872024536132812,-0.2066636306599545,-0.04417871811259924,0.05262815501704873,-0.041318663337479855,-0.01397130851543077,0.1256436712295974,0.02119370062994487,-0.07680103145046738,0.06380776360753843,-0.04200513930586364,-0.11011045384266649,0.07531440160870602,-0.06980494599453196,-0.4561429248840157,-0.2905224795305214,0.11211429491160527,-0.6807489831366941,-0.38929688518021105,0.005671564063786133,-0.16639274182023212,-0.08962057619956693,0.03513959141819157,0.05358089193779081,0.1160964983920655,0.03950480375937617,-0.21249842367088725,0.05287465334764149,0.16672362917801184,-0.13689559362950876,0.06648198633256962,0.000599026241496403,-0.012047234742834548,-0.1181726090535078,0.062406497394927644,0.323055996900099,0.039273336091550246,-0.1885535533115274,0.31704866613287236,-0.16066433242106942,0.30266468351612164,-0.18439224203085267,0.15528427876688589,-0.13623637095584898,-0.36657521483687194,1.153398005663195,0.6389950828445925,-0.2190001391806366,0.3624579040305884,-1.0830082785445958,-0.08694389443220855,-0.03297772201349977,0.022203185874783343,0.0028727467597947655,-0.06234073562949079,0.058472226980112584,0.03873631070897747,-0.06864008642477476,-0.03402575511098784,0.020788383665076553,-0.1001050985150076,0.01760473725679817,-0.0048591842303763785,-0.09160177699575586,0.00044154157042960014,0.0654874210760781,0.008338565255658556,-0.01522884835338806,-0.03803263601878561,-0.004596667234309074,-0.053964114363004634,0.16236796649180427,-0.08501687378560036,0.1041794005684427,-0.1006836760311045,-0.17026112353725564,-0.03674130595953599,-0.0973950299275276,-0.12071308878114052,-0.04537617416035196,-0.018155332753043877,0.03308325515831817,0.0025446692634255724,0.0009161788323591817,-0.019047521858429763,-0.04783054280573059,-0.08247926872832254,-0.08664468873510321,0.022371561833674173,0.09670188983240988,0.039158779753103355,0.10453966265500272,-0.05730240767139242,-0.07280526756028999,0.01903262137123647,-0.008456078041147964,-0.021981743492952243,-0.06639785061256646,-0.17942464660365207,-0.13444806100225004,0.05126168459865233
36.846248626708984,0.9088020324707031,-0.1164251179195877,0.010682884296660752,0.27399386059810105,-0.006817317366391101,-0.17944077327627247,0.061770284764054446,0.04742161737206016,-0.0026601165474215995,0.10707522536620827,0.0007134784444141895,-0.07511143831852486,0.038194741263516595,0.076706796456324,-0.04991810015109129,-0.21090943987497726,-0.18212511742125662,0.025549448050949636,-0.09255213125055883,-0.12083122042978611,0.054255225913625055,-0.3015414129421209,-0.05039398173905308,0.04829983009536162,0.2676039659583073,-0.012414829848167417,-0.037614623772213356,-0.011423967643540145,-0.01626616196149714,-0.04530825038827268,0.04618939722032634,0.03422758193133671,0.007354208951165676,-0.17219019556237025,-0.4509424486159914,0.1624491029373577,0.1273857326977683,-0.13495751217368276,-0.26699954425347167,-0.7691055652117917,-0.10085679174127979,0.4521411422950252,0.5077427928440944,0.42434809604809065,2.059239513449221,-1.712643232074458,-0.027742577305048782,2.6311158814171445,-0.42010450141141714,-0.8008785093548203,-0.7979901755819319,0.2586274639007993,0.09317704490695314,0.04125343928554334,-0.1423014870386793,0.07182316816499122,-0.08545171512191864,-0.09886230677253684,0.08377231087216949,0.025594836927761863,0.05461414338935649,-0.02463843181084331,-0.008206088876127934,-0.16793709158418502,0.13211005337197107,0.09303171225495813,0.007284935852154324,-0.0376648024290079,0.2032621726561421,-0.21434430090437698,0.06474674801216382,0.07174841213455849,-0.04216383017982482,0.021356040445597822,-0.04700485191588086,-0.032601951371082266,0.06296678749916633,0.0018681042969789187,-0.03937024995886909,0.01194096080809691,-0.0010949971868774878,0.024963703632937845,-0.0282751059884186,-0.10302639558811624,0.13964486090325542,0.0549908494742509,-0.09731868774511516,0.04355858262096888,0.012753066734383645,-0.06901510745158991,-0.02572225824076977,-0.013398229394999545,0.031120348394210625,-0.07291456360608103,0.007690996804688627,-0.08735485825392428,0.045842535645570524,0.02405825529794827,0.015586882080768532,0.03169421459359638,-0.07545403846295819
37.75505065917969,0.9292984008789062,0.06383221480006314,0.038946235076204726,0.040549561006939294,-0.1745909557729295,0.05900302845855567,-0.07206197360082346,-0.0014603391338522437,-0.0036006607748808287,0.03473531070029179,0.19273159805382611,0.08774895333447746,-0.06004809695468538,0.020852782464987063,0.3624260500252366,-0.4130116970400528,-0.02122329809884846,-0.11558934820803388,0.027743459517854525,-0.19094580878191975,-0.4809534873371024,-0.056469617523189485,0.11027884386454953,-0.18176130309105953,0.020078160214782433,0.10923033664816811,0.03182898537745057,0.07056052739499255,0.04902610910978686,0.08348380719799886,-0.08126349653871161,0.05720620930373205,0.04690570891798645,0.006305619617644989,0.041465760001129844,0.22723296465785742,0.38661847939072536,0.017315213932037943,0.08126760261667665,0.270924415211897,0.7355944480877817,1.2246441356731306,0.39231090483991693,-0.7603925247816951,0.14922124733887138,1.2646579823234532,0.4676789025482187,-2.0707990519758646,0.017504088764860884,0.5037291593549491,-0.8631827402051906,-0.028918993661551165,-0.4968924643538708,-0.16825533072648619,-0.21148846474876126,0.13620085712798677,0.034775814315648766,0.06145998737794113,0.0450876613764145,-0.051365434623541435,0.05210341381591947,-0.07227354172060407,-0.06861954271261085,0.15096212157538824,-0.15245004328915593,0.014235662118656832,-0.08583778914273135,-0.12552964229712005,0.13365864856101,-0.06871743893350847,-0.1220063912393298,0.029066689177933463,0.12261637355677406,0.24654635091126692,0.10003298066615253,0.022694788560744517,-0.0023783840231919925,0.01505229950168015,-0.0389676150505884,0.03170352213003997,-0.008668326485541306,0.02403704029613774,0.10305205224206518,-0.11247250301981944,0.058118728046749515,0.0242753839095791,-0.03527719537381405,-0.05393654728078265,-0.07814476385636379,0.007420997234323175,-0.02498671263275365,0.050500433014778454,0.16948171839377218,0.041178091453886345,-0.06572571969295403,-0.007202920380023896,0.010526858987104815,0.024573210383643174,-0.03194839112036028,-0.13580576929518254,0.2104318711631179
38.684349060058594,0.95880126953125,0.06351890118604023,0.06251652275817421,-0.1991615609060854,0.058286852403883024,0.12081483836534877,0.0964728842439553,-0.03521190917968283,-0.04794862498519791,-0.08190454561256973,-0.10027250931594513,0.0821492312714466,-0.09381727049766997,-0.01661369986017895,-0.06267866110338903,0.0018143480646510158,-0.15794423681968073,0.00869104347885831,-0.011535029928803335,0.036750792813862454,-0.08930471186507755,0.10534422343877808,0.16725809120991625,-0.1294432566368456,-0.04369957908720731,0.06737574674514189,-0.07159908005433123,-0.18307624969419142,-0.02130451028795575,0.17062182451520405,0.01325630093269368,0.046716065510187144,0.20536197951689072,-0.09273639597219069,-0.14066577834888222,-0.19511984164447374,0.2646855756023467,0.23457908042291395,0.40211122283596756,-0.9772147281124471,0.9153701945051912,-0.15975810033350396,0.46471540682298185,2.22666657772892,0.3178094583778765,-1.2407265815316453,0.3372077957639092,-1.0408266114558675,1.1267563106084513,-1.1262772861090338,0.26426934369098837,-0.5324191031784044,0.03901764093969756,0.12310891776584434,-0.007539494963865795,0.01007041706113167,0.0384458116839255,-0.031249841135191712,0.05345097031859604,0.015723557653633796,0.012645642732357713,-0.08694273861543986,0.11694018337537393,-0.027289394274518798,0.1447227066789721,-0.04558226497805478,-0.10839286814283842,-0.0056636753571532444,0.071762867573661,-0.05025474289702399,-0.03793020587801582,-0.13862932594729419,-0.06578716245207464,0.17333683276039746,0.0013069163893830562,0.0416340167671299,0.1334544508146388,-0.01302608453392894,-0.04376038387450469,-0.06336464009007307,0.11976387329995045,0.014390880930198843,0.05342388801334455,-0.02863570782533839,-0.06682483177176496,0.0391903912778491,-0.10143717672725885,0.008147342275348662,0.02145938518272549,-0.012750563470227494,0.07678637856268379,-0.004167646919304893,0.03053307999201305,-0.062450854372325296,0.027048389567119982,0.008331780919325975,-0.05088310279462187,-0.07841306481599579,0.0622690557263019,-0.04847780597716945,-0.1305385954590085
39.643150329589844,2.097301483154297,-0.005499245187152186,-0.06569100103268323,-0.09487609249474835,-0.03824719617505138,-0.14262009822378713,0.023552455141450178,-0.05898952319782924,-0.1700013965553403,-0.08976000568582874,0.19178782553839646,0.17128495450766493,0.00530588039972877,-0.1000113960522179,0.13155269215339274,0.09368839807349269,-0.0008372854696084824,0.6290968667290583,0.16542217383290564,0.5343423795905147,-0.28266104807827075,-0.14343840266354055,-0.04726649997844534,0.04944886316786343,0.1757997496019578,0.07409367082314533,0.06838590550254078,0.0231890256757174,0.018147109748312604,0.2538306409497159,-0.05677762717417823,-0.06664663787265235,0.09163061176104416,0.4272098093559825,-0.12049446009952719,-0.0710249791461286,0.14903920113538502,0.06725820493358485,-0.18848217003670387,-0.22963149326691945,-0.08839590439234049,-0.20580843272350002,0.20500437528396748,0.9347073202873724,0.6566250443221024,0.5119705729418838,0.256904620307268,-0.46632848125451914,1.8935497085393282,-0.17311431920413317,0.06673847276421538,0.5570309792901158,-0.09257572523440015,-0.002301780427659236,-0.04370917313736004,0.014486050536078996,0.016282005967653362,-0.08194148506853303,-0.044303930310458185,0.004886280102625274,0.00933214799451569,0.010445905559512041,0.03132777709138114,0.030295171047851968,-0.09535019241957676,0.015773904431979742,0.1013038024445633,0.07361778027134525,0.18923796823521205,-0.11941662544494369,-0.07912177570896553,0.07268305876262598,0.015318222394783608,0.07906205516227013,0.03509655439101265,0.050297988348591456,0.06012098000494686,-0.01818324401595602,-0.05773084903001414,-0.04628413503912278,-0.1251744231688515,0.061861159669407036,0.04564621208855535,0.14294301335461432,-0.08511947596378501,-0.005627879490180385,-0.059609506175296166,0.11531539514605711,0.11406196352209305,-0.031949659961975366,0.004101484881527499,0.02505823295810993,0.011424793535048109,-0.040624614822114186,-0.07165210628011329,-0.01921651198078748,0.04427760395074494,-0.0007620447257734933,-0.06486499981779886,0.09955015707034594,0.04421397562112653
43.618751525878906,0.8989982604980469,0.06204512224372408,0.058092739029493884,0.019123603758733246,-0.01392412219803385,-0.04638469637750498,0.015437648405959232,0.10926646039780963,-0.09498692775949616,0.1313365834311507,-0.010395593273926449,-0.06428413221882608,0.06227777192913925,-0.06572066025250811,-0.15198583393892784,-0.19176940185813296,-0.04516858798918957,-0.0919463646120087,-0.0140863457976747,0.04456972625606882,0.1789533143979792,0.06129742441526646,-0.009439077235464464,-0.19054558271336075,0.09011683662592486,0.02791831880567521,-0.2886718340840336,0.06824780702586757,0.010886230794168388,0.11384053234357436,0.1268166674941576,-0.08057011584893478,0.22781530209549153,0.18107394258227077,-0.006127017733098508,-0.33749159265125006,0.029772078758399767,0.03085599247271475,-0.7661943271020342,0.9519371333154387,0.8406340261039582,-0.2506025201924698,1.2690510362780842,-2.130162567671042,-1.409157471260732,0.890298921211941,-1.2059084560409679,1.6844075373372505,0.7076114994275753,-1.2283035825531148,0.1944901111833252,-0.06992012053175095,-0.005834484813494746,0.2834886334329746,0.15567084593305602,-0.08053342944985994,0.05647952124703462,-0.1099039578469788,0.042457578264615145,-0.05522460259452844,0.03356394511785327,-0.06469169008875775,0.01733982629206847,0.02748736903567095,-0.039772185845746384,-0.14774048572169476,0.02876278022876287,-0.10729392645081873,-0.02161870501723529,0.11852860251731642,0.017158706840863687,-0.03160648336404341,-0.20655337622390157,-0.10826729640769908,0.0056966166467747,-0.08336700593481641,-0.015326621114202342,0.15169413965941017,-0.030362994052716905,-0.059750425951191996,0.0016982781415013914,0.01853059752474786,0.11204752403803912,0.006120797485559576,-0.08924951215070069,-0.07307324566314696,0.0021371552994011948,0.024269011468725902,-0.005824153240531323,-0.12311499476602439,0.009229134306158876,0.013810797210837271,0.03815084729329056,0.06363056507879511,0.043833782598404064,-0.03973170687652938,-0.07981211400907702,0.0835973165438193,-0.04059446780820756,0.012692249726234235,0.06674962839602949
44.51774978637695,0.9388999938964844,0.05832234164472523,-0.1446902880743335,-0.006397408507589707,0.10382759381614211,-0.041884440337746305,0.02012358437834277,0.18309110589937114,0.05958140523205325,-0.08128331713596879,0.05995983493648248,-0.05734396961086234,0.11488306124227207,-0.18106945796392526,0.014555604239432897,0.04553292631131757,0.002963541954111466,-0.03790004455556427,0.18133964714131062,-0.25825293211673583,0.15604728459096764,-0.08312053280953216,-0.14623737715734544,-0.14745268707921613,-0.003909055415698358,-0.08189348972212847,0.10472443009725034,0.06820305876859056,-0.05740821401073092,0.051981155411646975,0.0007132375509797586,-0.04075050628031758,-0.036549647884599384,-0.20761201400093887,-0.022152347575341798,-0.7149712398344973,-0.7202804384554257,0.06558230056916303,0.15205420357249574,0.2740167996082178,1.2004661133800278,0.002554503155842592,0.07855548918650779,0.3539685970333184,1.6047882455624591,-1.2540369218010288,-0.9595624231165948,2.558870376990426,-0.06852981290666166,-0.8835484985118985,0.6375999686654895,-0.6217518356911442,-0.019050047838042924,0.11743287035161162,0.008703229863285384,-0.03498229788492457,-0.014511675546688006,0.015800483021349065,-0.0065264516004362215,0.002478345718030614,0.002098096294535029,-0.022798750960096557,-0.0969343739529373,-0.08617110993805464,0.13846753971998044,0.034947444603278074,-0.08245946073909258,-0.01696589804093395,0.079212316041049,-0.07486499430522507,-0.0662459539172329,0.01418761490092362,0.007780704889661789,0.13637984368657813,-0.06300221882408927,-0.11908222818697158,-0.11936116888428067,0.06062652902497899,-0.010092804314243465,-0.02194768686954912,-0.0993491792935213,0.03414268187015241,-0.10796803746146424,0.04571091741974103,0.017050744896056416,-0.037409187028448684,-0.058902021217197884,0.010179576162907586,-0.07419628241188361,-0.10993595444930401,0.007134836820070835,-0.08921129830854242,0.08653079358348005,-0.02137491371737657,-0.003943896840052643,-0.15103724781077527,0.2982563925273616,0.0007813576486703638,0.004465174927631308,-0.07534758730033045,0.043583247118858026
45.45664978027344,0.97869873046875,0.032609220144043466,0.2578719316210552,0.19137965024956624,0.04798254398233934,-0.08585020133523562,-0.017151228261381254,0.04955962253905503,-0.16751348984371847,0.08318812443422788,0.05354184647397807,0.008645749927007541,0.021064050882682768,-0.03794020320267413,0.005851367978177827,0.2718592345088675,0.09219436139300476,-0.07219909233967595,-0.16940828339901365,-0.0036920530815749038,0.2663131356288238,0.08351319997934072,-0.09243117993751847,0.10982115049343133,-0.1626483637203115,0.007120562390510152,0.05655664430938189,-0.056176729307730655,0.09529599401898232,-0.1946951893031041,0.0072067045870196356,-0.13933586542068144,0.03132805053697798,0.3322391843739293,0.37012118193815885,0.12775540182261255,-0.2927400682667723,0.3498915456253117,-0.11811394497073396,-0.7198780758382057,-0.4822876644535632,0.998500106380204,-0.13051966645268484,-1.0926596710113254,2.790870143230797,-0.5991762986357485,0.7009109193809835,-0.5876999082941798,0.537022386961529,0.23544485054498465,0.08783540072636936,0.39990331960724307,-0.3027020550614821,0.3855469818634495,-0.056554759882320546,0.024479433697624835,-0.03195895106522513,0.04064487412176446,-0.06967538744205773,0.010225786373785265,0.014784321401512177,-0.09326385734504575,-0.008681109906112157,0.030400353369730987,-0.02826091027982642,0.08352599230044241,-0.005267224015955933,0.02314972154929532,-0.009968908847243076,-0.0893054484010384,0.08098600029479136,-0.12249409237870172,-0.17516329833837002,-0.03717716352414973,-0.048082757822287825,-0.03311140067225444,0.029387990549013678,-0.022521789453650798,0.0008560331453953719,0.11828736195070959,-0.040799661646251636,0.04149801085390718,0.05655589467119006,-0.05459678541163934,-0.02208922757760316,0.025102767453789955,0.02055323407145207,0.08458357400198316,-0.11215574032504534,0.03597463218892615,0.02924801136666205,-0.03525437817680744,0.04340824174464794,0.08482088211589604,0.05542397482414019,-0.05933583833641129,-0.13362479424928173,-0.11743344820518589,0.007719903412091422,0.04689138869582464,0.021356735131594293
46.43534851074219,2.2375030517578125,0.009120369890190128,0.06864549390318046,0.19914634973736495,0.030929158215032466,0.07849465517573774,-0.037554044280120234,0.07716394161102917,-0.30251961113510867,0.02172434566653624,0.18128490825470264,0.09144715797695602,0.05215028349851767,0.13159468429014912,0.20119869674553464,-0.13934715592419514,-0.0664396815916368,0.28929224406687215,0.07985456793176572,0.07406242680832273,0.22900338721900654,0.1098360814176304,0.28392365507545114,0.1395337277221499,0.14041806416567218,-0.19999634615324907,-0.036789950796866255,-0.1538575289411489,-0.3585796023031814,-0.02631214836224722,-0.0797729207667915,0.004683995109827728,0.1454147562948628,-0.007252345770922278,0.004108348499119223,0.2000554779816436,0.1367671749402447,-0.03481397914150333,0.05321544513429369,0.04852922471821003,-0.14453941632749093,-0.0012354625773912907,0.4654290009994412,-0.568260725253606,0.3561981898399482,-1.3054766218164864,-0.04709672597674225,-0.8984999665315303,-0.45769588775430686,-0.02486476791319206,-0.08695061736761095,-0.10548474686144584,-0.08947531984917771,0.04408481032222997,0.09177591348622878,0.11074746089281469,-0.02479503819834806,0.02995590655430808,-0.012115029744362175,0.08124393284925356,0.011318943209783636,-0.010953303499773413,-0.07607816420356452,-0.041194466327143256,-0.014498914520190032,0.07116109136798611,-0.03141662180006453,0.007480539911419198,-0.03811984842710152,-0.06372126515102361,-0.0925370817075417,0.19093136258416157,-0.09020096824026833,-0.10348798000889955,0.05627334105871867,0.0750543016793072,-0.019935394968375625,-0.06584780573508582,-0.06003161672364607,0.05983188470224702,-0.075061077001881,0.06436742823933458,-0.06928112455425313,0.005405168375614547,-0.0052444159296087724,0.016178888297703527,0.017297458837104287,0.08613924079022517,-0.012597123951333236,0.05236838412163655,-0.05149009202831543,0.008154318225317482,-0.03502053082775194,0.016149965006307544,0.07346400150105478,-0.00031867961425854907,-0.009044221224295004,0.10607446567349804,-0.06266430247237306,0.0003271115423217584,0.14230157757418455
50.59095001220703,0.9590988159179688,-0.16427257109852356,-0.04623764489194472,0.14591703948260948,-0.06215753275561568,-0.139553128666646,0.15095350997186718,0.12659949192409442,0.09653117463719317,0.0716206211369502,0.08222269304903163,-0.007743489016148235,0.13739698366007239,-0.029794602677444285,0.13320483102834946,0.33589575452053816,-0.07200477044139973,0.04084500553400752,0.38204264207010646,-0.09252019997418917,0.13751862501381548,-0.01653531978378575,0.0733908691393201,0.01574373459666159,0.07728080193487895,-0.11268174900039318,0.193680080871115,-0.18807342979333153,-0.14193083230676695,-0.014143977010481238,0.06327605803205667,0.006102758038189739,0.2553833778642,0.471097021073331,0.08545651676846379,0.151069437888996,0.23712617402618996,-0.6298364870461012,0.27318029535215876,-1.0308503203302688,0.5046321108051871,-0.4100627719699581,0.552366114054417,1.975612081554873,0.34146049366017184,-0.6799156572772953,-0.5440483310820753,-0.9552682694515764,0.16671997240374187,1.1888250524076684,-0.28861938275447696,-1.0616748045024433,1.2267451795662896,-0.310597764275304,0.2488655763690077,-0.15065937041052022,-0.0570873592530072,-0.06020958122864085,0.04888323697227886,-0.00040822056729362217,0.002913017764488164,0.03790276693015963,-0.0849358490835126,-0.06454050713982416,0.13936979636965943,-0.04686163290179256,0.002173691349477683,0.049597277959691134,-0.036388196617228405,-0.020349974046424434,0.148507454720564,-0.1181659612257364,-0.02705226145514332,0.02674551273401177,0.08105726247563623,0.081058918389792,-0.019352837567932192,0.019469353898166772,-0.06595038556295402,-0.10295465883531002,0.021478190289919354,-0.09093953075316831,0.12128542102004161,-0.08462107936915134,0.0557971150165945,0.19791797571418143,-0.0872768069968298,0.07471108771028198,0.03862654730739561,-0.03504198234071755,0.0039005732911772256,-0.06386698001903324,0.11080847194933119,-0.01988383403501872,-0.03288424873137305,-0.03179072947303217,0.07149072103568613,0.15198509686578643,-0.057570782289249764,0.012636135069949572,-0.16511049935104904
51.550048828125,0.9687995910644531,-0.05692070207887579,-0.10508893107279924,0.34404098674121747,0.08475886753916247,-0.08437918050574279,0.19805283221284925,0.10314017250240481,0.027571046492177693,0.14405451137021305,-0.026245490241209965,0.08250428611789569,-0.040055339398305946,0.23720672880931976,0.0522322664327694,-0.28598468818411316,0.017499941789450926,-0.09720159880060847,0.07632099100770477,0.05824514297255924,-0.1046514603176696,0.32052229121295306,-0.125620701052072,-0.06309427223696217,0.13788350996814014,-0.04550666528296969,0.05335226000526402,0.06392594104389693,0.1482247716641895,0.06652173367025054,0.01869451716673699,-0.10410241729052878,-0.0019563527488206806,-0.014781055507227388,0.040441589081284694,0.29674621767547504,-0.515335962411132,-0.6173020060266834,0.2562279601002789,-0.2843729612607026,0.0745899565052423,0.3910622068749169,0.8039375426190117,0.6550214460294892,-0.3966866750350423,0.3002722289302746,0.09639103097549066,0.08403705282840106,-0.2004345967188938,0.7105101441160936,0.20896318167302413,0.5336049539324328,0.3929645807217885,-0.5775782425072671,0.6699491095207329,-0.5441317611592287,0.08081606748676892,0.008198041250818192,0.009845981164668149,0.016157092866323466,0.07471004367476611,-0.0012780681182164638,-0.37849321235503247,-0.06688361106609896,0.01884761439324225,0.0074797762576675345,-0.06555263120679916,-0.053021012906494164,-0.12633980040800502,-0.07341482189637845,0.10395061404928362,0.014632331306138464,-0.1747483340397082,-0.017247729680024367,-0.04440922159704869,-0.010908149349739717,0.1548533530587077,0.08549443727059564,0.11657919539985816,0.021988432562688127,0.03739415533700267,-0.09482834491306442,0.009463539181713497,0.07597225181870144,-0.06835472008157392,0.06756421515370775,-0.09272323016853745,-0.024703299530450622,0.00411805075209215,0.0671179593627218,-0.08718564361306165,0.08256330815525,-0.05362234857552459,-0.03452594599210651,0.052467975957632015,0.03387340713883635,0.0026878125875956643,0.0025383125876370866,0.031437307878350904,0.06889745779193085,-0.06859915393574825
52.51884841918945,0.9985008239746094,-0.07802030793601465,0.041919141610531396,0.20079135731828154,-0.019952741415575077,0.06445598655894737,-0.08010746443270483,0.09969568639116899,0.10280236313791521,-0.3639181439233242,-0.08148977116773616,-0.1537972446467677,-0.13061285024873104,0.04986424673572993,-0.05822287053048481,-0.4063892218211309,-0.49783309739969295,-0.11399614943720833,-0.5687274251458279,-0.0181290921353906,0.5097644939481754,-0.03227912455781567,-0.01541068755567851,-0.10089331589571865,-0.10397657984300365,0.009897699220898169,0.07300074920009328,-0.37961171084617273,0.06692942452416542,-0.1437659007462402,-0.038534713575317264,-0.05966858785018479,0.005392499142697139,-0.001073008700652277,0.10384993963539799,-0.030815051203651366,0.0967778826019112,-0.464164046107976,0.1739600871082494,0.48449192147492814,-0.11443272599944773,-0.36799410760401224,-0.19525688774518526,0.5501831864675724,0.218300880493836,0.69351254005323,0.4508830349331251,-0.29654887077090863,-0.6716087030258361,-1.2283457690285662,0.5256619521821433,1.053528036410395,-1.0126950899441551,-0.1058050890898286,-0.11276160264472837,0.02308954633149014,0.011682676495118095,-0.017209781428683412,-0.0354835048968289,0.027907304025910594,-0.04209159880965316,0.041824713662246,0.132054170847492,0.01712529809872324,0.17719809127992558,-0.05591311740323487,-0.10100087023069133,0.02487347338657746,-0.05138317739744698,0.08862860876972585,0.015884855096618168,0.05462834609742605,-0.07917097787423034,0.051191582979245,0.09405668360914789,-0.023256106239432257,0.051649915294713564,-0.11095445573331986,-0.05525653897892305,0.09715020662426452,0.009102612296336642,0.01639254697498417,-0.02384409011748373,-0.028509114791048243,-0.055652875586691956,0.06509902944908977,-0.07936048077948185,-0.007861978156931487,-0.08305559587820595,0.0383735672135775,-0.05077397741554257,-0.006765644478610583,-0.04891141603637374,0.11857636935392807,0.007562787731496379,-0.08466544946601878,-0.04868155265152037,-0.008515928878042586,0.11821750725930234,-0.10432522566560903,0.08118144608383676
53.51734924316406,2.31719970703125,0.20500913197036058,-0.02545833037423387,0.04825871232563146,0.04005349935190153,-0.008640066146548789,0.13401114144805326,0.039204338132240266,-0.07303339399240093,0.04199548289319285,0.06346895815094818,0.1682567608961137,0.11644098516081844,0.03876925271111072,0.009682498963639926,0.13093657615642695,0.20724649872142292,0.010944687762573933,0.3988136754510478,-0.05429106895872786,-0.0959147551078689,0.45683130215261525,0.09857081084340806,0.025168159079747704,0.0720642766224854,-0.02638839887697661,0.000938453478733281,0.021253506848451287,-0.07653442414226111,-0.015589478918815753,0.03644285197180328,0.08967501136728419,-0.10696242201734796,0.054849934398791,-0.02010851156101487,0.08540878678680171,0.0489564081756067,0.4300926020854433,-0.12749988454122496,-0.08169162399467256,-0.10704377359414333,-0.5251268075014558,-0.09138428934847856,0.4434957547080069,-0.5367736702358507,0.24110126099529797,-0.3411222745600619,0.4291416168129295,0.693771949150193,-1.2664472694138789,0.5006306553615654,-0.3604920980528504,-0.13897688171476943,0.05719055662719169,-0.012590038019226469,-0.00785042465930326,-0.032915359668765735,-0.03345302733696553,-0.042870074588413576,0.05435722699446551,-0.05447186866095509,-0.03307302712388388,0.03480510680908655,0.039977036698411295,-0.036239666911274705,-0.009578762282751022,0.02123646941403355,-0.05570465377402382,0.06732496781749187,-0.12379924473521797,-0.07338003097944543,0.010214402713633192,-0.2410657103305865,-0.13654183633111597,0.0025773156303928596,0.10409343485747746,-0.14284136558076957,0.09656442356901752,0.10372637948405831,0.03792754534692452,-0.07936316108627092,0.042809535198798064,0.01903063839371461,0.05157019032154377,-0.08347989953062242,-0.041852993708197284,0.02676622872044407,0.014565617467402786,0.011303162256210739,-0.09354035467227594,-0.03217842130977186,0.08044149062876386,0.029184214847238012,-0.013158221500538303,-0.04153494993200407,0.008534906981912949,-0.05172341153763643,-0.042196081191870856,0.07380290548794384,0.18118233708996634,-0.05274728140938041
57.79225158691406,0.9693984985351562,0.0664166001085024,-0.052358725303425474,0.008724789131595986,0.023173256576450252,-0.009706610989334785,-0.059073228563778,0.04031083105197769,0.011497321152552628,0.09003652132671824,-0.044472820911287264,-0.07243444960832839,0.07399755389935969,0.0037244838675958326,0.005364471230190487,-0.18647568749794816,-0.26861284089025905,-0.055206528881155945,0.1087701887022066,-0.17567295066816516,-0.30252487801368677,-0.22855153986655996,-0.09388231771149808,0.10930571222313276,0.04915580583502173,-0.09723748482052513,0.0003532518772905724,-0.12316258587024727,-0.04801037838105247,0.0008559630293708398,0.0036411516961748183,-0.028651940737952804,-0.0023596031349731456,0.13725181024964564,0.039263369220814276,0.1238503602075069,0.0540884052083995,0.18578276453459056,0.6000900935235706,-0.2817777903415229,-0.20782728701194927,-1.6514415613536058,-1.1425944622410822,0.9001987686787702,0.9114101379703254,-1.185788963932357,-0.1406438206036577,-1.6107219023575943,-0.9998674429369099,-0.9544122375372566,0.8605345642992059,0.21992969897045334,-0.20439850795341083,0.12615037923874514,-0.060033090085101125,-0.032418596134331124,0.043633085542323036,-0.011607579335206529,-0.03838060028881188,0.03265502718951893,-0.023580112441291486,-0.028087177619388805,-0.028582132038929082,0.07256966442656755,-0.24398465231592917,0.015595084560892244,0.023743379001408688,0.0026654635710224237,0.10304867421986963,0.07016568984454519,0.06487716340489877,0.09766186202726157,0.09669916474766431,-0.024274866684269526,0.01423590866284952,-0.04844925718975659,0.0026038068331227246,0.07174635033902771,-0.018369832842758088,0.03894480351624094,0.05769595932237368,-0.06841485710462185,0.019288038566232988,-0.09805332688229848,-0.039338492386432215,0.04086553219457584,0.09783427443861097,-0.002909530571916545,-0.040708337056859896,0.07731035440577386,-0.07930923766460053,-0.06335127498410853,-0.007966330871394046,-0.01358783583889255,0.005000752678462436,0.05217588893792288,-0.015872941914780947,-0.11060349125572337,0.06607639339852805,0.027943027201105725,-0.07451404463801589
58.76165008544922,0.9388999938964844,0.03983145134982598,0.035748282417004375,0.1423776519780941,-0.052939846824865446,0.07514349398164319,-0.11932610392724673,-0.1027233350420655,0.09145515662459956,0.10757002218955816,-0.10274895308023008,-0.04942144659434822,-0.09660435266940928,0.04815264106158834,0.007371117992844789,0.07002330136881975,0.01964611506615002,-0.010316453018161281,0.1062310891837358,-0.09806197979155781,-0.08535640422900581,0.24755097703237694,0.07693964587416086,-0.0032429250204069676,-0.1053791052355531,0.012230676930350862,-0.03465868511311029,0.008407026660784437,0.06202636672049993,0.11498009052601806,-0.10830548240223353,-0.05515327574853647,0.16761010614372535,-0.259669557106814,0.06180052048270982,-0.01712310153892652,-0.07935863508896465,-0.04987061727248426,0.0022861694100063945,-0.178429626087079,-1.53509775682668,-0.09663882095385143,0.07889078699295271,1.5835927419847695,-1.0960137875912557,-0.1935789314785907,0.5294420828711193,3.0721445101062375,-1.170237853060133,0.677540065757452,0.07546559742650852,0.14538504485420875,0.03272011587063911,0.046005871130771085,-0.2628906214875424,0.014764064426646642,-0.025878179664549774,0.08657629751228949,-0.013350533707292575,-0.043651156856183045,0.025567544970663932,-0.016141192151737614,-0.07551566093097845,-0.0491874092604699,-0.07055863517453854,0.09799040147447995,0.001712991973321665,0.013329794889433005,0.05191257687347277,0.0720250857269002,-0.014149694224906924,-0.02423501269600343,-0.05676542066811878,-0.03378912196692338,0.07956903541455683,0.02162195237827893,-0.06537802506502702,0.07294821343453727,0.09035742337333953,-0.0860439217043509,-0.014790499988067224,0.005957133763662734,0.0960392036725327,-0.07814896723458081,-0.023824076772899244,0.0024960521835486857,0.06982422397442498,0.11131889837513087,0.0225932468621846,0.03847796044380048,-0.07781732873049028,0.05144572501970538,-0.041279313771313365,-0.05769553934079792,-0.05248488677268073,-0.020818894011153118,-0.03159753751600425,-0.10165510000423122,-0.011572077003149734,0.00016845716559870869,0.18010119663128732
59.7005500793457,0.9586982727050781,0.1698567641332412,0.03412796365858388,0.12938072902764253,0.1281151664127057,-0.002861470849240577,0.07075868499134252,-0.03258684458826603,0.09993796493680847,0.008381634112358947,0.042664996357737364,-0.06798683456846494,-0.2802392520582797,-0.03590173684645082,-0.20294606873487966,-0.05895699534464373,-0.3811737454405649,0.11568643784375443,0.25258263165098277,-0.09270419381684687,0.01952199146089462,0.1586055498384302,0.04417318370796359,-0.10518378404372764,0.1033361498766855,0.02927262444462883,-0.047920782385110154,0.002274462273748279,-0.05188520551728114,0.058013055333806886,-0.11974783371574031,-0.12235910336290404,0.0864963231526038,-6.8983237766651745e-06,0.05192558508018877,-0.12306627730120964,-0.14981948244196158,0.09950848130657473,0.05956368665615408,-0.3782479961081311,-0.24793898760581606,0.13989205155913106,0.9805032246713324,-2.503668162979549,0.8718879276805652,-0.5677051025969464,0.013766927254319716,1.8312402155654706,-1.2450577410700925,2.2964242287972123,-1.947585207285086,0.7630645093477059,1.1167446584944503,-0.9858002632690485,0.16406253629536566,-0.03550603477720772,0.15641424501967352,-0.043390752542202926,0.012754730284514347,0.003183650344051471,0.10107117594472785,0.05560964694217861,-0.03581885033844181,-0.06906562179007403,-0.03974037405952556,-0.03477210360597187,-0.08383938944231409,-0.09740002471828287,0.20391881555192548,-0.0505265349158805,0.023572450144196726,-0.14881329167103718,0.16370880991485504,-0.10052532595846873,0.0659901750997388,-0.15760682053357503,-0.17318881845478204,0.0689889480682447,-0.04656876116950938,-0.014128882464590462,0.02384970503887733,0.025201708599536642,0.12960761894299092,-0.013178375320440219,0.003749944591649757,-0.1531498842397482,0.08131336409127855,-0.022539257123873637,0.011481994829979244,0.0236909785660614,-0.062272622555189255,0.005875788341278863,0.031356936969871116,0.002559031771355219,-0.13794097617036213,-0.02201137041729153,-0.0007561067333551417,-0.020777933444308422,-0.12022841808149552,0.018491505971533383,0.1546710466492276
60.65924835205078,2.3578033447265625,-0.00569818844901946,0.20119005359896067,-0.022232555573216187,-0.2460941320610061,0.08550545768635898,0.04263500227939295,-0.05844963250743398,-0.2156198776245645,-0.039688100829059235,-0.07783909254848122,0.10145097199768792,0.2898736349504776,-0.024504914217703334,0.45698569958850177,0.018727944000294025,0.1493836610900694,-0.0002795004698430831,-0.2767810795257561,-0.28760670665007787,0.2902400201920468,-0.39435270546013174,-0.11740504882957005,0.08362180936819867,-0.13824711986645932,0.015777668940394302,0.07780184134012183,-0.018449937962564975,-0.04467362622096413,0.11225616338433035,0.034090523150629076,-0.10786854335324288,0.022380210023272867,0.23855987131822698,-0.08715194713338631,0.032215206654563,-0.20326054295669557,-0.5799941347039236,0.2585758029879782,-0.3871700004207067,1.122604598180164,-0.42204983393085616,-0.5897342085645318,0.5917878116809377,-0.568333665647341,-1.4419064095883747,0.018730038687868322,1.1031546107716346,-0.09482543001096103,0.8634127812779873,0.45132689524264646,0.011787420367012452,0.10973986883652864,-0.03527214876349443,0.018063469319994287,0.0348053089333611,0.03675840102124531,-0.03784987726222391,-0.0020406407884417353,-0.00028483018288580694,0.008906815552106444,-0.029951252249760366,-0.0503447409287914,-0.07536276946222094,0.0837751671253072,0.01401914043320954,0.1291270574774139,-0.05295936151935787,0.0899763963686763,0.07242293610137115,0.034093522402273924,0.11488404476025398,0.0628709309852307,-0.08686705467291748,-0.08811325513894964,-0.004693693701254893,0.044781693535334066,-0.012122193839559404,-0.008331868465971809,-0.06837339141138937,0.005742161641465182,0.0901926169895379,0.0588831630557023,0.02536357200690979,0.03537839834478643,0.041957558692264946,-0.07026609838337006,-0.08888831424132483,0.06978785037919952,0.09135940555457896,0.016887816828938473,0.0489446456759966,-0.016153604954541545,-0.030218281650787566,0.06572429546732088,0.06872335931364122,-0.11334801130049305,-0.014575976867920004,-0.04773478366374994,-0.1400179218975335,-0.1654709664865807
64.95475006103516,0.8790969848632812,-0.055382451733468646,0.053833150028290505,-0.007843023296342278,0.09629880725198497,0.008492870216040341,0.056475417325731594,0.07266752970459583,-0.2521847472439333,0.017549475625090214,0.059927391469915145,-0.05023582323613293,-0.040845991709891505,-0.025453674339619186,-0.10637879028494765,-0.2628786379928239,0.051905501228465684,-0.27366048250048897,0.1137504076767446,-0.16920053067521454,0.12209607686657993,0.04340882756289843,-0.05830485962204027,-0.09801925630381461,0.008413396856718235,-0.09825541437103182,-0.016058640968535726,0.09288436312437755,-0.25065589760449003,0.06040596657142948,0.20644611419823333,-0.2395897355121095,0.03313351548524118,0.23291782036229544,-0.06641670552673767,0.22902590751324775,0.3193075557594503,0.14035187437906482,0.36681067024333935,0.22913249738766575,0.04164157771279555,0.2886743072879934,0.5531736750509408,-1.924219403038951,-0.956028463894914,0.6904016065595957,0.4883978191275561,-1.5894873925771815,2.9967398911862473,1.2415059621957145,-0.8824204430126297,0.05385869208469938,0.7219234046810951,-0.6169553154897476,0.07592874675759452,-0.01811571833963316,0.0853653351982161,-0.013218240423033947,0.0157326338570034,-0.0693720677693466,-0.01470303502182321,-0.05676191264836716,0.1211716988376555,-0.02161222350038182,-0.014841087121220162,-0.05626133496342528,0.16146177839182002,0.013741431206770603,0.17320904242042148,-0.034354626998374986,0.06661465785849542,0.043432916678603856,-0.0413842153089333,-0.011927910693578493,-0.10443748155328438,-0.10687050555924887,0.08863619488735824,-0.0815609127869038,-0.02466994168736282,-0.10499172525088962,0.06410156074685161,-0.03374945487772303,0.00858136094891982,-0.02436775712649426,-0.10043288678604712,0.0660407659658784,0.06295796985083836,-0.030611226539400536,0.03354508389946875,-0.04783305883743288,0.07267465045648705,0.08937567593605347,0.04533089087419754,0.03252699631934119,-0.07616141662140631,-0.02279926271332834,0.006277306538760734,-0.03987578589927399,0.0576602432274678,0.1869224426532438,0.09075379317531174
65.83384704589844,0.9084014892578125,0.08364571464020051,-0.11938265863645159,0.009032573159890422,0.0752945551642629,0.029419508498069933,-0.09745634957062453,-0.00920591692341556,0.09120188202846832,0.10469350320645861,-0.032318248429787616,0.162429140734227,-0.03635909553870943,0.06753748604473941,-0.19813477230597742,0.04931557594292558,0.05310357843186071,-0.01644428817427133,0.02327398756174814,-0.21017728014085774,0.24832539130054448,-0.0910317750697402,0.09070503571091261,-0.007001456968769566,0.0008575936052627408,-0.02626274184805255,0.05286655803148039,0.017894565643816335,0.05445381767334966,0.23814136617484086,-0.14407609490822038,-0.14031983312135277,-0.007590646914863788,0.27596688271805114,-0.6512601123175757,0.17887091157084734,-0.5086344854150865,0.6778969289603739,-0.7461584221137163,-0.5236831717870268,0.7928064403175147,-0.052679833128003895,-1.7706016881349185,1.4923351503250262,-0.5317624656761581,0.7855968296641135,-4.0255358915849415,-0.4843074749920151,-0.6122111302961831,0.31981619478268386,-0.08205302819694926,0.03055127950895785,-0.2547252503910911,0.10760239375329449,0.009586296507573528,0.02955835027673586,0.034878837684804036,-0.018914983016514897,0.07917991203642333,0.056742768759940845,0.2273324995370274,0.02126856311256673,-0.09707430957950254,0.009405824436592554,0.33616170040253196,-0.07756331259302778,0.32366210450231586,-0.009350991195994477,-0.04780780358728819,0.008509533591813029,-0.11677110008345164,0.08808964832455972,0.11103166848980339,-0.019830203293975977,-0.030661414063810503,0.09145678326376713,-0.14104349397317983,-0.06219229441926421,-0.017165009991126096,0.08602884878375412,-0.0713992370536744,-0.04148405014424758,0.09579171075499326,0.06459476970903384,0.052246868991075,-0.013218936389674562,-0.07455505179826194,0.029128500730929235,0.08580524231803681,-0.06246546420610677,-0.10124282042597596,-0.00580299653515739,0.05019387556381443,-0.06484429150023088,-0.030360051681372933,0.0756833437837062,-0.061460103673093416,0.10489576589980679,-0.030454502106600667,-0.056306821441253145,-0.19261340005930433
66.74224853515625,0.9594039916992188,-0.0611583803652231,0.37791554238965547,0.08654068892261466,0.06036242605332032,-0.3182702454272334,-0.02420135760089387,-0.1233240219329835,0.0968060658390967,0.06608365651131974,-0.04683387726345999,0.014948532626111757,-0.05442957823816704,-0.17153590793227266,0.08104395431347136,0.05637645597745038,0.15294247588540566,0.16140637567859784,-0.026374227560320707,0.07101973766705097,0.016339504683017658,0.22215884993692525,-0.13554690946051196,0.18900127131314903,0.10760000089117884,-0.0432535034241973,-0.03039670457996557,0.09278194275050623,0.09295708400875172,0.031087604666495187,-0.05364244835300105,-0.010694692617183532,-0.05059969265544563,-0.026199601165923597,-0.22557706487416637,0.11754196845399523,0.38174885636080985,0.18655407967829188,-0.06547824648813111,-0.9571806532355681,0.5955155340796934,1.391536141826776,-0.5076013488592604,0.25952261981260144,1.1907580300844616,-0.6695815803006261,-0.2316083345986797,1.3272678036371657,-0.1904822786371815,0.9710113905585023,0.8251517765047324,-0.8056894384613195,-0.0630426685950505,0.06358426588188158,-0.010845196800310902,-0.2915588713640205,-0.027806007455816517,-0.012970851302099518,0.08168719350336372,-0.08840851530150659,-0.052837082431448815,-0.06225396148540203,-0.0735624037078205,0.11285058657591177,0.04593705217582814,0.02964579416598946,0.04232976240019262,-0.1146867263053557,-0.06482919779809189,0.08566749952660138,-0.30805628924104667,0.11987893969215085,0.2914469252563027,0.13090576017292718,0.08673196260283206,-0.04132076761330994,-0.03043608666986696,-0.16605234398051094,0.04083313951356284,-0.110309608710455,-0.03281365185481967,0.05945531189723266,-0.04271307952949211,-0.012349512915361495,-0.1349882065920617,-0.006114355383021755,0.026896527171028244,-0.04787604153036909,-0.009460207021131858,-0.04291801151839442,-0.033331108939377595,-0.05760954483688817,0.006604582109322285,0.07985642862213965,0.038792032772186055,-0.05619411037610995,0.02542087009545395,0.014343631761016381,-0.05837976592165519,-0.04757070608145024,0.024810239174067838
67.70165252685547,2.1277008056640625,-0.003418849425607321,-0.11482277829255941,0.0054589634076697485,0.08649856176385413,-0.016268963869645603,0.05193484193668067,0.0660190574194307,0.09471293172589232,-0.003809804912506945,-0.055305032258228595,0.0066183935099406776,-0.06196506338443877,0.18303497855273604,0.15022901695993213,-0.33944581534304313,-0.05780649764235865,-0.011917663763432357,0.06207792854045151,0.09262088739598445,-0.037751288376090174,0.1439796712269448,0.2671202243084151,0.044552130447991986,0.13050749686500127,-0.018034754720909933,0.08445156453731752,0.06941064410222433,-0.0517874521307023,-0.11535093023365323,0.09848441619971564,0.08042690375753946,-0.1381928835333121,0.032704673716854385,-0.21521259772686296,-0.17198992111800657,0.10550602730242989,0.1082636305229922,0.3450904358723247,0.008673592568848868,0.7059308050062361,0.22608036700555234,-0.9021944506514956,2.4159038136781716,0.08998568299045254,-1.100665547030452,0.019804281826403355,0.8645300514845714,-0.12012243219719915,-0.06708608372850745,-0.055154547867135396,0.24612388080235892,0.037830998794342124,0.01215726587488367,-0.04573979933348958,-0.00409467996673947,0.025031334463238002,0.10604941716967106,0.02518472488033749,-0.07561164213105727,0.0367936156185145,-0.028978332263541767,0.09060913411525537,0.03136363754386088,-0.009675110574874857,-0.0016361509673447046,0.02593759645865837,0.05030508724336663,-0.18156622881990336,0.09151763292341047,-0.07408924902468303,-0.06768721306072387,-0.056367989011366026,0.04597251828613743,-0.08890307130052445,0.009195863698589516,-0.024521293035927424,0.04034578080732539,-0.05535882336917961,-0.029287556014918316,0.08047000747734949,0.0548463081919364,-0.03813266712658036,0.03167478043588158,0.0060398382338969735,0.0835803236107997,0.006577497919644057,-0.08868489557071609,0.0589476529475694,-0.04525241060130111,-0.004460804708409475,-0.040618172547701566,0.14608374608865352,-0.020207183045667345,0.010435186371687537,0.0015005867278008872,-0.06973475986271557,-0.0377361819716066,-0.01683558838085992,-0.018545402883195183,-0.2331291800288302
71.67704772949219,0.908905029296875,0.003814024747943061,0.09625754333437969,0.18294134978489543,-0.05503275697627291,-0.04655980931221931,0.10962877602046608,-0.042437278928491626,-0.17687541636874704,0.003894748188931452,0.03579410076951977,-0.01566343518089143,0.11804632039131661,-0.03994953760747786,0.07804770566015355,-0.14631447621096108,0.13103404901618318,0.11765190963925232,-0.006304926234986047,0.10652234848973874,0.11347877437353068,-0.0007600185832503482,0.13860915669055882,0.06532979229250359,-0.18859271482829945,-0.07259413093074583,0.07383318842232857,-0.06463085123791128,0.17587129586305952,-0.12516082833291772,-0.06041291123229778,0.21934288218113843,0.02213786887159873,0.09908222630576062,-0.09904487559491952,0.02197024381064596,-0.06552747499298589,0.14902125313964526,0.3527333236315726,-0.9443539654208095,-0.33947935411031854,0.056392078406171775,-2.383528802161881,-1.574582802413781,0.15338164239392582,0.5605175836194023,2.5163293949375793,-1.3740033862320877,-1.2857469759564242,0.854964699887521,-0.2206991399174088,-0.533252986637222,0.7329387557158985,0.209917387467574,0.10291481875849551,-0.04351125243378258,0.055921510125282674,-0.06271754694170839,0.013413582635897333,0.02318823468844551,-0.10912695120151578,0.19036084702908024,0.03231929039995252,0.01265789236665589,0.04498814435431544,0.005091905244430685,-0.02236929286949288,-0.07144209475107396,0.12423158558459767,0.11129152939101855,-0.10785326267364431,0.1963736608360375,-0.062009958203530814,0.1036337604365439,0.030532177720662877,-0.07046329701798386,-0.02261840685145111,0.11250077593015702,0.040407082358036486,0.004049255172605376,-0.006609038129075762,0.04562365101888791,-0.0035354563634705516,0.032302752108866795,0.00621410630868124,-0.12739705405188292,0.005707189720231182,0.04365169366909404,-0.13681597587752412,0.045995630370267354,-0.014694234705732898,0.017455279382266764,0.10979881587828859,0.034112945521969015,-0.09487014120951216,-0.030853180533604568,-0.04597125907115679,0.04867398035332227,0.20835242738295545,-0.002619813716756704,-0.02635115208361305
72.58595275878906,0.9188003540039062,0.10525745223429592,-0.10260825368038567,0.11153269208713609,-0.09126072405399713,-0.039997567038155005,0.13308190555160704,0.14296087246423422,0.00391163038443876,0.1003818798048266,-0.11883734265950682,0.2500732087543109,-0.06092671224094201,-0.05586546958097033,-0.062087538383063176,-0.04246202673753755,0.09019507526693062,-0.0004596327927256297,0.06198342261143205,-0.032811257690010934,-0.008460401198330234,0.10622082481502794,-0.009691063545100648,0.11184718407400483,0.11273780309119774,0.08164207729505416,0.008830552930705247,-0.017912260152853143,-0.15808630898886478,-0.07614394310757562,0.036460947583856776,0.06787592436376183,-0.19682609570630155,0.09648264271378057,0.36880021457963674,-0.26702419032246305,0.12285715067568895,-0.03692392547168996,-0.6831236539867549,0.9519779417953649,0.600029477523557,-0.9790997787614645,-0.10224936002774941,0.08925158526190952,1.3487514322450675,1.4844601776000665,1.2223623163961752,-1.4476091758375411,0.6149945978700835,-1.5689067292649848,-0.30986969535033687,0.22381864319787703,-0.21589553226287314,0.20674021715457702,-0.03711446581288808,0.011530591583616452,-0.03805299596864088,-0.031906745606146994,0.04796011512905494,-0.08041427948718638,0.02050669777421714,0.11182008355619508,0.046864924458972834,-0.07571387294175151,0.17349115903371692,-0.15446469973098464,0.15471274007329938,-0.08020652350158937,0.00678059154325019,0.03935591188047405,0.05907984182852037,-0.13055053496879787,0.002287311498824482,-0.08330496100378257,0.08799580832526274,0.004850463946545772,0.012529932724659451,0.003912745315245245,0.019598318450202115,0.0119966833789443,-0.029597330592519632,-0.05167438955652336,0.03273991803064492,-0.024897975409121958,0.005438815431178832,0.0031821486578508355,0.06917033835274555,-0.03277296355355616,0.0805449921153735,-0.006286654908072439,0.02555315965100488,-0.10694670956884073,-0.022829101596130455,0.02941063319652734,0.11217968561565726,-0.019732481795498052,0.04864091724992696,-0.02740090097908743,0.09607488215079706,-0.18835735650933622,-0.19774755415969575
73.50475311279297,0.9589996337890625,-0.05805585575240549,0.02381447737403408,0.020724365810808918,0.03553694521218276,-0.15197901634309152,0.036408747096075084,0.0791866297424066,0.045608896647969216,0.000990651653294144,-0.09057311126903594,0.0628943973611175,0.010079819821275877,-0.04274867083776061,-0.038143013181135,0.19401009816319628,-0.002087455673322868,-0.23980285277816357,0.2783834259876119,0.2740322858926887,-0.017792426899235034,-0.013734471827292052,0.03160389488891726,0.012042082374410438,0.04226782273738732,0.05268470448706622,-0.06938093058232404,-0.16869130601665383,0.005325788293920595,0.06083374127932928,-0.028209098611579678,0.007717317436125165,0.04181941386077302,-0.1551898445341396,-0.14428398194570563,0.03611262601328019,-0.23169745760836005,0.48394079407003576,-0.15783412353255608,-0.12194758178697347,-0.8517358012690746,0.2259110803484427,-0.02658599533416693,0.747558802826463,-0.845787014006948,2.1932785409674347,-0.9464629088671276,-0.9964336220054406,1.524299637320062,0.9943560067155154,-0.9074195603372728,0.3939137017836049,-0.14006181210715685,-0.09731863383381142,-0.06325224082893922,-0.03684889246870573,-0.038193280462963226,0.07939804452129945,-0.057893419364428,-0.09148766441134003,0.028506976785605737,-0.007846174356761257,0.08015687234560366,0.023079389705613698,0.17187836528949826,-0.10167349574905114,-0.036215617707419955,-0.03357244812547951,0.049741984591827486,0.12993201395865828,-0.067114893891609,0.009869986035846864,-0.00915371719299006,-0.0358106936609737,0.06791311018241744,0.07393926848325355,-0.05949608136497784,0.0396359901469766,0.014156135184089499,0.05812177704194145,0.010215085227842638,0.07824565301912664,0.06946617883208328,-0.06288549893324635,0.019696712853386405,-0.023319122410280224,-0.12440813383855692,-0.015739172071209884,-0.0459768157404985,0.024769289213658986,-0.08194232656737269,0.05500860245417794,0.039770964522561375,0.0027173636778040897,-0.05557555945501907,-0.020861374336074504,0.042686324988493535,-0.043188259591892306,0.10101310734469496,-0.03230933600350869,0.013784418845113798
74.46375274658203,2.3174972534179688,-0.012234309220164132,-0.014431751965337941,-0.07528629220632127,-0.10834487104369721,-0.07297384535170072,0.0011104937862098097,0.10209602824678465,-0.6050415900156781,-0.07123726051549298,0.08680668380483175,-0.006983573667657743,0.045870212404282545,0.05607651395097965,-0.15757865446211933,0.1247445258452749,-0.18055313891719943,0.20339918065201776,0.31709337266719706,-0.08771539054260147,-0.05570836182241219,-0.2059265177018409,0.1336093330947084,0.088342808263815,-0.09194524552915062,0.01650236552268157,0.026328039372760927,-0.03339927704302028,0.16065520765240746,-0.08592224999114115,-0.09130371309879472,-0.014645890911852154,0.04793468254548078,-0.1322008801367069,-0.4016354854409175,-0.6191059504756662,0.1524963385037005,0.3251486862622489,0.1863035282579159,0.5952747129239178,-0.6273621761518993,1.060128200239004,-0.07972682893817451,-0.5039477782892018,-0.08916228385342667,0.5017615060732774,0.16953366700266692,-0.4921652234968199,-0.2521323927341025,-0.1986357429465487,-0.10445619149246815,-0.029575506909893173,-0.057085348865190705,0.11417075426526277,0.003163246790449151,-0.046668823178561844,0.025774048935534893,-0.04255497398733131,-0.0025428216349337083,0.0291974896069787,-0.023675241113770982,0.029193983824385986,0.0010153259324826352,-0.06639634063898651,0.15515230040769346,0.023892116315042792,0.04439645731991008,0.0189463521185034,-0.30706039424795345,0.05892638542522974,-0.059976090328578244,0.03216048709229759,0.04401388186044934,-0.11500271140482145,0.1160842826938735,-0.062102129694110615,-0.028087950301034906,-0.05280985128956615,0.03143949773777274,-0.013433724084688445,-0.07287592366310876,-0.10772553123715282,-0.02401504613068308,-0.07019153226096898,0.05662895146570178,0.16331902897006076,-0.03387080906182488,0.09839297231703695,0.08325852032483178,0.04492581885890745,-0.02217251805933361,-0.06446930570270877,-0.010621941970967882,0.015512462230537538,0.10174507050572917,0.008318227716550757,0.04264047838702047,0.023992404088700445,-0.027985767822889362,-0.08972101403403948,0.25101847036108565
78.60874938964844,0.9094009399414062,0.0015544133019774961,-0.09876332605600228,0.30216304309091135,-0.02794430637952179,0.0759298469764795,0.07344558233246629,0.07561680345056757,0.33688424785022764,0.13839004764391144,-0.05682384745265,-0.00803691398234722,-0.0015425820820128416,0.1593338258033745,0.18994836001097817,-0.044252678377304996,-0.20946540187456061,-0.23844273488718987,0.04491425421164778,-0.051023586133845625,-0.02070642311206554,0.2073187836881901,-0.1023344154269441,0.12591967457311803,0.02681617884872292,0.12427270697542307,-0.058359818057717935,-0.09177246258898224,0.06658973480763805,0.04635723047907954,0.06771756984293076,0.14415750673748057,-0.18002565692141323,0.18071452196789384,-0.1901469939101856,0.1982025084628208,0.16547941883047207,0.22431534533292435,0.9278959494134864,0.5448251333896628,-0.8476557931297094,0.8439164993186709,-1.1334052230311824,4.134866081727244,-1.8127376882795796,0.26295503211758275,0.2995686246758872,-1.3484362557037282,-0.4547185742677822,-0.6617777462523924,0.629802022275235,-0.7913285900036816,0.02319870631912213,-0.05892163137028096,-0.12707770840025462,0.013938579348989401,-0.002005630600524992,-0.02420329034831839,-0.07044224435531035,0.02105054880761014,0.03568606882489948,0.061091419776200626,-0.054047276528231415,0.10763163607153453,-0.0653884748879752,-0.0017969054906256249,0.04590003594567593,0.010915893254376403,-0.009437876972666955,-0.08505097613019214,0.0630538873160485,-0.08959102393445277,-0.09031115424207045,0.025058034237172074,0.005105263860303805,-0.02815185386857584,-0.05208481381781074,-0.0047155873328698404,0.06151826946938559,0.03504123745407092,0.06617623735448645,0.025645269112212064,-0.033280422313066646,-0.059022664297061156,0.03455512640171432,-0.004868035281663038,-0.017529400410585,0.08189711360695437,-0.0011470872126014275,-0.0362179271781947,0.01640366083112793,0.033091336137197856,0.028751729971544175,0.07616544226535304,-0.03676229156223145,0.20887844842074157,0.006168065855583507,-0.1515642880396519,0.015481555217012834,0.017977416552774947,0.09674301779372144
79.51815032958984,0.9186019897460938,-0.06979117876722424,-0.0067248873292110045,0.0557375897100332,0.015062921811624478,0.04725206026455237,-0.02676189530256462,-0.04169579668178057,0.08317167712879017,-0.09698135124145742,-0.052039426219601725,0.08646400923999106,0.05023282978607605,-0.07197674657324983,-0.03925044024348469,0.009849778703926934,-0.08479720154327063,-0.0030109928518535366,-0.014281611867538766,0.06529017027726905,-0.12914741125497559,0.0993343142667992,-0.020097717329909073,-0.07632975629698578,-0.08019903791019907,-0.02544118297803976,-0.06964379214332685,0.059720479873108814,0.06460060924596725,0.04924962458872519,-0.12509919426972674,0.07842197518817381,-0.4156652868902594,-0.008488892090939164,0.6601846028693862,-0.08817904621305787,0.5207549456920633,-0.6879714393479408,1.0945859108303364,0.34248283051704026,0.4049851189166048,0.28486256624691836,1.1629553919495177,-0.13236609102371266,0.010520672514246626,-0.6198758778158093,3.8697973096129035,-1.5631413426267549,0.15076326629142264,0.553692102614896,-0.043150155944171806,-0.10227901389441282,0.1304121688676634,0.09195923332099032,0.01319440653285701,0.06961119479260965,0.04329022374764312,-0.024668569366738023,-0.09090040820813622,0.05972709884164886,-0.05636049725496432,0.10954845433917054,0.03430110835051915,-0.14528949674582875,0.006909986788251164,0.05960996012696397,-0.010537743576904783,0.08478463305420543,0.03180182977945584,0.06276936495262374,-0.02618644125244171,-0.031684148306892215,0.035974312543492704,0.04953663815926437,-0.13446357992803842,0.031161515730621175,-0.023654265411148734,0.04656905273949763,-0.08074343251060782,0.027599996968882184,0.0009364443556693471,-0.03623248499640301,-0.0217813053297887,-0.06074386395115099,-0.0359449070211015,0.10830347664910654,-0.05631610448614861,-0.001680069981098771,0.014579612386943192,-0.045945590008247876,-0.025372614886633144,0.17865646303179253,0.007237314779389839,0.020272419379855383,0.05726843386653573,-0.10885534550339271,-0.031590677209552706,0.1250368259776443,0.15907962587224003,-0.002401073830406511,-0.1688461981005749
80.43675231933594,0.9688949584960938,-0.05414163139223274,-0.1027797527275202,-0.12550649688772775,-0.08535138141614725,-0.13560508745359443,-0.04243582729179019,0.07182129392370507,-0.030720040155302705,0.12261335425950202,-0.000635099639294654,0.09113723049869667,0.0443540379917433,-0.26845676103724264,-0.0046267471607596596,-0.12464984121712201,0.04034443478012863,0.17101529565385593,-0.15119843632827257,-0.23169840229808378,0.11705623036330365,-0.04618926969661376,0.018808647848700358,-0.26003002041133655,-0.005773557550085528,-0.22761078335546425,-0.016022207783382064,-0.03086301142793176,-0.2903661726888517,-0.20806637982557102,-0.006459525365276102,0.024547254066838692,0.19440395662697518,0.1974627690431488,0.4503744459592258,-0.20533173015374817,-0.05718986628523795,0.8026073383807126,0.48523885226172,0.07811293195093179,1.8534806970504965,-0.4736288111295453,0.3708719242496788,-1.518816653028387,0.6276095885399897,0.6205159259254116,-3.306860522188757,0.7787979089214321,-0.4426731631752814,-0.037696926497950645,0.6465349194421947,0.039340261946786914,-0.4562683640896756,0.2992211428364858,-0.1556494537759414,0.06970565859494018,-0.008980674080403893,-0.004743893447748476,0.007912559516907851,-0.028703285090988448,0.03265673975175663,0.045511435181720204,0.01856686771640698,0.0759175090471458,0.24529743636492893,-0.08962993754265397,-0.07280944847792706,0.022749954571747843,-0.06939864096802227,0.19090144059445183,-0.09312872211667884,0.10577282235522589,0.11447400481387798,0.09159592000379937,-0.07532998459070081,0.10213951518406764,-0.028677618363385348,-0.017603657580341353,-0.035104386196672804,-0.0691500689587879,-0.0880305500318197,0.059369288114385535,-0.01008308624019407,0.03802538563392818,-0.11330604151121644,-0.042516961061983834,0.03805690230693945,-0.04011296848286253,0.09780421035660325,0.039061831048424714,0.05777474593480861,-0.06885936804129397,0.06640945095689886,0.0029844792819875288,0.02463335325748122,-0.06898248545617514,0.034105229761712194,0.04351435541266597,-0.022516116546001462,0.01947667505016982,-0.043159737320668565
81.40564727783203,2.1775054931640625,-0.07957353649061481,-0.1671886458243901,-0.017504116289421705,0.13017467429212848,0.014970666847880508,0.041476451120578836,-0.07649179696688432,0.06464828279298246,0.16965176370473284,0.08604322301046341,0.025225147070895775,0.005889668535268191,0.04108874274766321,-0.25243338344368765,-0.030276767248173617,-0.2275409527223555,0.1945555072143988,0.18169384677804715,0.06425035980564239,-0.006033295760227042,0.32241600717888813,0.20490890365271786,0.056127120187646484,0.08871711875336058,0.0959951074456487,-0.05082269604208276,-0.21365155930566934,0.13597189465255996,-0.0068823826780950725,0.10983795593577268,0.08375410871693936,-0.3263105539062297,-0.04685610848460213,0.17328084162851332,-0.17618862844303898,0.09689286690806902,0.2670554763689992,0.1001325130605474,-0.13650342190080014,0.0055484372155694605,0.07570314851927207,1.2977911567327,-0.7422610268128942,0.5546816060057546,-0.3984976371361714,-1.130498263328546,-0.5030148336273654,1.0170982182481656,0.541537294742869,-0.08086423420805451,0.06458042529703234,-0.1171319532240509,-0.029199580104284806,-0.023321965556841236,0.03681171296273889,0.042329853577795055,-0.08396742989953318,0.03172389267880086,-0.015076095357162873,-0.03122251106765484,0.07500120193880062,0.012650129708691473,-0.015294252950479932,-0.0037344552713796247,-0.008782390601772744,0.023480323055333072,-0.2238235442492324,0.018554826605061615,0.1444607753659456,-0.036769348961903085,0.004133580224549039,0.04199832953335269,0.02221173755089075,0.0481173543593843,-0.06912166255766958,-0.0962068283828697,0.13501371531288014,0.009611911246909547,0.0010028350103597988,0.029502297228789998,-0.123163929108325,0.023499532560286307,-0.03179240379916903,0.009613581368890803,0.0189258556650691,0.001142039848371267,0.02991652382571743,-0.00591127978044494,0.00962491876697499,-0.06032406343270618,0.04325737333715411,0.08097968843724636,0.06753866668390224,0.04286004054745578,0.09096412505175226,0.04700442608367183,-0.05080888608229087,-0.010499565164315411,0.07437433009415216,0.02519456180015449
85.44145202636719,0.8986968994140625,0.00039557018086314785,-0.16853535165627728,0.034257365327202006,0.04129889698261033,-0.1047428672451687,-0.002252005595992982,0.08760161464823249,0.1443230483390699,0.11583427781110277,-0.05037770106391454,-0.021944641927846856,-0.012963596408670452,0.20997797704743978,-0.17742559778031292,0.09613921784428672,-0.08780359487657442,-0.0410464129273686,-0.12976503145292403,0.015188039757873362,-0.22042502560255445,0.014301902446190624,0.15697163916215215,-0.4315197509172662,0.03743398428362761,-0.0156766840980186,0.1437861038242215,0.183925933739432,-0.07721131975828689,0.08599914290319359,-0.0379546778226984,-0.1383400252203541,0.12945966663354874,0.017963150599269027,-0.1492054705418756,-0.1248212711349426,0.3870779283686836,-0.26069344277490897,-0.147230959359666,0.2837850397148499,0.08420226308441692,0.3201059542953928,0.7713075026025626,0.4444724217759041,0.400615254893389,-1.3644982857035781,0.07161329670521177,0.3013265568406713,-2.5038390074963,-0.9183009132412594,1.2324737704747142,0.6512416748643087,0.08517293927880798,0.09617541498849873,0.08465944910824007,-0.030551044719449694,-0.07945663692139976,-0.09166656620071638,-0.03658276541183565,-0.03652068860241592,0.05268817746695074,-0.10477080354754759,0.0935643789231345,0.13154106020736506,-0.05034344866908583,0.05271954204375641,0.1963491003332048,-0.04145081178569485,0.031650896536830786,-0.07284691209548327,-0.12778862372545352,0.09942299909670652,0.032151310634070125,-0.03829237335581853,0.15962328404213327,-0.07133799748566289,0.03512802809061323,-0.09988216168603536,-0.10216192122936008,-0.029867986520399823,0.08026143158128757,-0.021265053166726687,0.009099299447467356,0.044354360761863484,0.0672326893542477,0.012034515441353338,0.0461706079597681,-0.007118375005941931,0.04654894442156225,0.005501342611368053,0.05011102056075584,0.09650041530011283,0.003921834277242131,0.014168961038081487,0.11940526728941955,0.04585773279978187,-0.06381717369673598,-0.007915136550530045,0.0655892624129882,-0.104984601636492,0.02755793919600323
86.34014892578125,0.919097900390625,-0.13720324969397793,0.0019747859811655097,0.0018924872415923585,0.00587202407877072,-0.00141847084099292,-0.30241781959168934,-0.032988280501954785,-0.07065371783492808,0.02959228693676995,-0.03205611211688062,0.018307422823996736,0.006840931200568204,-0.019942166217526966,0.016238506471295287,0.10885576223824638,-0.11285879497999653,-0.24030323396258058,0.23856752011120574,-0.5654881021879555,-0.021343263831588518,0.12473689760182895,0.05255876369354309,-0.4107197696138859,0.09454833217234945,-0.1098469321770761,-0.09187209208120402,-0.06764223447876343,0.12182495043827171,-0.19074171894508146,0.10910216651295962,-0.032452898906837564,-0.22981224457899532,-0.004023731143349099,-0.15664435518239914,-0.5141825773696838,-0.050967491254690425,-0.03577146195660791,0.8316668580826779,-0.3905064990286134,0.11569574583590805,0.29681903995079384,-2.5164935104185524,1.1279433804170662,-0.6423367083630122,-1.0365220175987486,1.315311910827452,-2.898909545574158,-1.5168626164425634,0.4492255836983696,-0.40176791003565104,-0.685140323689196,-0.5896545773887172,-0.2869968266080559,0.5230601946303882,-0.06960856470582391,0.151314139159147,-0.023428434613309818,-0.041371317365212865,-0.05995193357082346,0.00858453866782172,-0.055353976471443106,-0.0021965284313815343,0.04853714922165722,0.09539389625441601,0.24182140332082733,-0.011400889284490956,0.11403819194935204,0.04461228256918909,-0.024522921388239735,-0.13702349224953103,-0.010142161681247038,0.14457964527351408,-0.04448892505673373,-0.004405566393615499,0.03669610634293918,-0.021602202171215328,-0.05019255000542533,-0.012944599345085486,0.054186593809073064,-0.12582552787754786,-0.056905226461716814,-0.049809192019285464,-0.10159570095533665,0.014900622140532276,-0.06887280980831655,0.0605606707480127,-0.027888407108001226,0.00021454341922331986,-0.1631074918676486,-0.03634105587264258,0.0032127523280179138,-0.010311453225996543,-0.013769425631537099,-0.016071915327913976,-0.048929734148897924,0.009321838427384491,-0.07686754938212909,0.03314129282994653,-0.05581025134775067,0.17914532622629817
87.25924682617188,0.9292068481445312,0.14754940801178662,-0.14238635126367336,0.2604636792463814,-0.055859491940636635,-0.11047799620816429,-0.1192709110564547,0.13637143183135425,-0.1928845847639455,-0.023731343953649685,-0.040421525341841874,0.06515794378849185,-0.3517739520746198,0.0500871285523567,0.429338479138601,-0.028124863964087806,0.036987252716058155,0.10599427202703668,0.1878860449074759,0.2833904722032869,0.020866608701391627,-0.1447035321686838,-0.33849709203399964,0.07518801098533173,0.0022335320513166834,-0.12971711581002796,0.03601358440830922,-0.16946875947235135,-0.046054205420675697,0.10860599491569065,-0.0970830848020538,-0.04356779391094774,0.26294974777430974,0.14497451120887733,0.2141073652337202,0.2717818377460185,-0.3712050920196943,-0.03341052665022197,-0.37445973242139785,-0.3244960075022916,-0.6052837040404313,1.3005381911262883,0.36255471037814013,-2.045345640146147,2.0892164022913544,0.342760042643709,-1.9014908171089884,0.5879195610744539,-0.09687649235973095,-0.8909637336201002,0.5346853523673681,0.4992284475806013,-0.6408853984730152,0.5412471269556344,-0.21386269282955428,-0.02256298320114345,-0.0012687880002043173,0.07069268878181152,0.00964919040601631,-0.002384628857452379,-0.22270749088959796,0.013366264254821016,0.0017555848908726909,0.12417419331264541,0.08587985345648352,0.046443986976260454,0.09796031708385579,0.0813182990075107,0.09268861837950422,-0.09299697690576676,0.02284159693754414,0.023690179822144167,-0.0283473464104914,0.009160008703306606,0.020077208557774416,-0.05407851328779889,0.030461903628297628,0.141200109658309,0.06455641064571756,-0.005843264618794909,0.004368793879264489,-0.05250407707355346,-0.10437735919425023,0.011395444356701617,-0.08679423516242135,-0.07354554922870853,-0.1561765806986632,-0.016040196732103634,0.08437271599656762,-0.0635703735388102,-0.03371803718426872,0.022136404746284866,-0.04705454346580404,0.04649435223569885,-0.04233415522381928,-0.09822596313893005,0.017155908115190716,-0.0471451696534578,0.13223133003978,-0.15046285207951493,0.0245483282469989
88.1884536743164,2.1074981689453125,-0.0024025746789462232,0.22120153071944562,-0.05762956070754159,-0.011385659149721424,0.018160295920624958,-0.012539819320358317,-0.03383828332788943,-0.04260147529010752,-0.046139561649345615,-0.04302708335597141,-0.07006640745829361,0.0756492720737051,0.05510786963229538,-0.27986193897875034,0.16763305921763255,-0.35923767540946117,-0.1533629360417626,0.07518990120372479,0.007176992127421886,-0.02848044612704999,-0.020997920880426523,-0.08255289408962557,0.26244710099617263,-0.04211859289336808,-0.10172780432105119,-0.046733472362033804,0.15017783523546435,-0.23977386695159808,-0.11489793220715167,-0.02500450582447542,-0.05479516460248684,-0.0877066141116627,-0.04567626417399118,0.078136202748147,0.38516616937315884,-0.3114661179670571,0.09256742414724206,0.37196235940791694,0.11630110745461633,-0.5048874853674988,-0.08741323221882324,0.6493527247624157,0.22250278162119935,0.783911334204813,-0.757291421881208,0.042908408944471454,-0.5882110701487904,-0.32143834767877727,0.08683911677415324,0.08649395847706032,0.024462675350172006,-0.020874439814295206,-0.07614395199472682,0.01106563772393925,-0.02634268598631043,0.02851062552037592,0.00046068438669979463,0.008188118431798452,-0.020210211092889504,-0.002838942594646389,-0.015611131359425363,-0.09488405129848242,0.017583169303506112,0.08296698810540779,0.11707888872636071,-0.008860320740328595,0.056753241808835904,-0.20197528941776186,0.09707109653032649,0.01828720583365171,-0.021282647869653552,-0.05968691879042362,0.03822356475969252,0.09117703774969448,-0.04103745560077216,0.095265937108832,0.01849693064384199,-0.06043242588614925,-0.10122638075009391,-0.0006922585571346174,0.021744280918245113,0.02348843324251663,0.03148579051616774,-0.03010080341583289,-0.09037084645659552,-0.019339168977254052,-0.027929646561150184,-0.0726473197195515,0.0873266761868941,0.18501085265395956,0.061096180863994105,0.04751209931511498,0.02112561983568914,0.010829731316509814,-0.0012280341895586746,-0.026918820067313203,-0.005730710350572774,-0.005926615581213143,0.10164053374360865,0.15297894192168743
92.07354736328125,0.8790054321289062,-0.03054500052337336,0.07587904292164858,-0.17229149836014096,0.03866059091705665,0.0898141188809715,-0.2969367036119821,0.11438231704840096,-0.08606152064772266,0.02094447238879022,0.0042190362406346405,-0.024546200174834665,-0.20658446912050335,-0.09003103687546363,0.16712142649047554,0.026473151243643762,0.1556188770241477,0.09813329251409593,-0.026884209607050118,-0.20557657950072405,-0.2132040107336198,-0.015033960439739216,0.06387269089938633,0.0977401944390961,-0.2235801424641573,-0.00016349738763671686,-0.23578089279151976,-0.021844213930198718,-0.10600260689206906,-0.2140027391110717,-0.12888151591077973,0.17998114566009135,-0.4721793265082803,-0.07246734900892778,-0.14275186291887354,-0.35455457537582963,0.28929074019213813,0.08201966609082811,-0.3912080549273828,1.1559892787997506,-0.8757235779886882,0.9327135226651075,0.4827807270873076,-1.6383435996496407,2.715157201005044,0.513395742510492,-1.8604882937897724,0.8051266612660836,-0.4444393414292329,-1.1091315709971779,0.5598641033836173,-0.00802357866840285,-0.2342830996109402,0.1794174527135021,0.02135551738451354,-0.03585923378157449,0.03688529714525322,0.027963558940986025,0.04957858469765608,0.030196952254860104,-0.04316539537966335,0.004965879366537893,-0.12540431129495652,-0.007156783812391995,-0.025872455756744572,-0.03512930858875729,-0.06140032520301813,-0.019629133391313794,0.07926234101396673,0.1999772680222116,-0.07345945083532436,0.12199149137383052,-0.07030054734555946,0.07864046477590725,-0.09962557515289053,-0.07118636000114657,-0.058866877502487494,-0.052984979356886716,-0.05447621011710077,0.00739303931740041,-0.08383292827854705,0.13308321897947548,0.010519214887738028,0.11600558873398684,-0.09737803212650169,-0.024168882321032967,0.014151899209337007,0.0526632319747786,0.04728369590266267,0.06053346851523922,-0.08164459855866907,-0.10930553028505353,-0.03810513521305181,-0.08943140919461293,0.06695721787113931,0.05809866467521151,-0.018418570522093267,-0.04492441758422777,-0.016675315522089347,-0.025576214674425682,-0.06599135516554727
92.95255279541016,0.8994979858398438,-0.235393226889288,0.11840089614194713,0.10974404589874452,-0.19169339005097422,0.052604304815965744,-0.08471435620380073,0.02407576213172335,-0.10466747947639059,0.06239459656168002,0.20424509472650462,-0.1383840976923871,0.05835869198326646,0.07609986775883788,0.021292655240968555,-0.01481919270817098,-0.025491691342872942,0.04366003155167883,0.047517803951937436,-0.14670406371586783,0.013677322909557518,0.08211924526826957,0.02807667999091695,-0.06368351210371859,-0.013224655938729197,0.029907193126541408,0.11909367674885551,-0.022662352070292956,0.22121999812701953,0.2791964485026578,-0.2640254859189775,0.09068788069002022,0.10018760335640052,-0.06270294653233666,-0.1785806258605243,0.21100636491530533,-0.4340130710288444,0.3944258892329806,0.4852818431214309,-0.12960818778336752,-0.907189692858743,0.8736933045308017,-0.5734050495561833,-1.935947169571828,-0.14726818981825046,0.1696393839451505,2.114821649673159,-1.6861950100678367,1.5132368529273341,-0.7034322663890769,-0.03699089002289005,-0.27678216652214654,-0.13231355675032686,-0.22116741225616557,0.019428393364046642,-0.009511551247850088,-0.002808999720322392,-0.03155713510921076,0.07344505521089709,-0.001235714036769651,0.04559257621519506,-0.10372550228248148,0.018084804663677814,0.02191936134999908,-0.2013980816628021,-0.2575939015225843,-0.061495584839302446,0.04143870691207794,-0.14245894258608835,-0.10841480317807413,0.18899597643663132,0.07465117641150089,-0.01126927169512397,0.07526709955651811,-0.17933252039154218,-0.06376063423336487,0.049338184343993965,-0.13853301839110166,-0.024702067708353717,0.04064562703722222,-0.07761809387427909,0.053197105736491807,-0.0645215182386305,-0.08116426251000577,0.04477851912280967,-0.026353580711137192,0.012768982333106192,0.08809525975741235,0.06474970860351639,0.028445423086743724,0.13517441183853224,-0.06025934749502241,-0.05608981655291871,-0.02230460625259609,0.04039260875856104,-0.11129147343148421,-0.05006405780893296,-0.0071791179599148755,-0.08487055560291781,0.06796340223928804,0.04636571407324832
93.85205078125,0.9484024047851562,0.009338222580046724,0.1386279475408028,-0.23339082909683218,0.04575550135261313,0.10682945035892574,-0.048019058056894964,0.006770207108103304,-0.014618806591926716,-0.04256789251557844,-0.19903497919406207,0.03787561362823638,-0.22557928198667254,-0.13740455800078996,-0.07991257604788166,-0.1338653784502133,-0.12008834366648378,0.14784716300077144,-0.12476509065130678,0.18447912141626555,-0.2619777002823297,-0.2347545415563348,-0.12035103404116806,-0.18802429151401231,-0.011521792382387513,0.07486508706747345,0.20031323941885565,-0.14101921186225688,-0.06511442936566887,-0.1798215637253503,-0.0943694870994399,0.05168264890191673,0.08288822209215292,-0.00745414268549105,-0.1689435094426729,0.4460914900910401,0.010841258865670778,-0.2824024066908111,-0.7251736933653732,0.21579656903798672,-0.4850373993688268,1.369810726123957,1.6498148487099673,-2.153651173863267,1.3501265283838955,-0.6022685559988085,0.7431451423245402,-0.44654361354732236,-1.12232726309151,1.6782996069077458,0.9230135618979518,-0.45570626061802466,-0.021554951916491524,-0.05329039820532468,0.024981328975943157,-0.00417824293848785,0.08319071682896317,-0.03541385047030852,-0.042774488287994315,-0.044260700670602934,0.08820397625093573,-0.16156016856307828,0.021186020207581483,-0.01303911472840516,-0.08300546472663055,0.0188710147268998,0.05513084175792522,-0.0682534979421812,-0.05760896940870379,0.04176334983653386,0.16003892264972472,0.07033893658350826,0.1091473544867698,-0.05460039402096513,-0.11620940065468016,-0.011393013849546718,-0.03493044666923899,0.046947660227450484,-0.0031960434958733658,0.04434984394818947,0.09176543025128313,-0.034262887820244156,-0.03920316766074243,-0.013178180021120646,-0.11717368638507059,-0.08238011962499324,0.04551781781696962,0.0014829841530147113,-0.08585117935865777,0.10231304464757003,0.02643858933296314,-0.0026423525669267527,0.011069008950913352,-0.0399853218826219,0.015919269164973646,-0.10737541761484377,-0.19189986779352647,-0.033472449350051225,-0.014902298986656744,0.001681528774289509,0.14003057879046854
94.80045318603516,1.9580001831054688,0.09031493439881301,-0.07021513685998196,0.08779156644871715,0.03050640949757434,0.10786556099040853,-0.09568000892847803,-0.060178757339464595,-0.08101000013740087,0.03571089296590566,-0.1594757833793775,0.04585222251840987,-0.1359919889750785,0.10030956299568379,0.18252298889027396,0.25014511397708994,-0.2089214894779291,0.2436214685617718,0.5580349275232814,0.08910947634753903,0.3557377638365218,-0.047906200393887176,-0.21264837045026636,0.133040662923529,-0.21644057283267384,0.1275688519599801,0.07983748653909223,-0.007464544340801406,-0.16874395098798253,0.07035533470486836,0.12965310995092552,0.345756224279855,-0.20448745670799687,0.13487284193187754,0.2690665500847613,-0.20847662345529838,-0.2083269873236963,-0.8515090183219097,0.29716831312981773,-0.12837664654529146,0.6120284965479257,-0.379125974018419,-0.3349190063962484,0.39923227231014713,0.26980865458209713,-0.25563435906712817,0.24209660335390648,0.013722460298955592,-0.05626693231677052,0.11629410373564644,-0.11018608226609193,-0.08666069988855643,0.08839941583357028,0.12083111881320581,0.0067786725474670625,-0.04682217960843311,-0.031477123548992514,0.02052601771656199,-0.06053886512868704,0.05954187773392172,-0.07247974686709946,0.08562898825434061,-0.0061316649659389835,-0.004561082408486653,0.06973520261818736,-0.0309983558876444,0.0303224028791544,-0.02156096122444165,-0.004049381790835683,0.00858190409154981,-0.02501353157923657,0.012005410030171693,-0.09087798680026977,-0.020693306664548078,0.09976940000169013,-0.036135855652553894,-0.052049222294713586,-0.009003757228883705,0.055752855187518185,-0.0018406556804897419,-0.13268098098811057,-0.017739351951747664,0.04358266722749936,-0.10502553690521609,-0.02888479690608745,0.0364303031306889,0.06732928958641515,-0.028047408589121144,-0.04583424739378525,-0.049628669947800484,-0.1119040193739788,-0.06392416641371869,0.08603250412504908,0.01534781185108014,0.06677994646555847,0.07510421512795588,-0.08739625639467083,0.1399463750049568,-0.03407003148956836,-0.009095264167731931,-0.02770605080769381
98.51685333251953,0.8788986206054688,0.07714753461914907,-0.08749727051052106,0.06089720021623643,0.06859980745538397,-0.21017470096393814,0.07024715802576471,0.12316616023270914,-0.08741069417566434,-0.0050536842183112945,-0.03162038679874045,0.152710400182188,-0.009783919130073648,0.09792137388056682,0.2989690105652236,0.050137230302899946,-0.1245348724617151,0.10005522630440616,0.10299573008604607,0.4281645817940286,-0.08661588199286366,-0.01453066000823058,-0.0158938352100257,-0.03205279963765405,-0.004887792606660465,0.11786340571449436,-0.02512225955150313,-0.01724273125045591,-0.10312887053195764,0.023976995182712003,-0.19471957602716833,0.0670963814844243,-0.3380278686270851,0.012851424576777584,-0.07317100225646525,-0.3154534536321229,0.8405704640022896,0.4704093076343956,0.6913079211647215,-0.4395748381190175,1.3077806910943008,0.020668585249937563,-1.1238529637797163,-0.5966205859159551,-1.9494181637940196,1.3665129053378067,-2.5703280558945294,2.9044446623206595,-0.8015004932516425,0.1317626157465115,-0.06794253306493658,0.08882339666429154,0.15843301114129546,-0.024739232831805003,-0.0638888266533017,0.04652864681409067,-0.06716269712864703,0.06527814811621838,0.06342590614792305,0.1552582790419165,0.019221944656654843,0.03771004785302143,0.056666818053847406,0.05073826461620119,-0.0462639998571727,0.04763491460637193,-0.02685322023418235,-0.0010741454017868524,0.08583502675297679,0.011251205451094383,0.07176618378151634,0.13956755411494007,-0.007328754844816723,0.0411501147993754,-0.08799972816787505,0.06439183621850994,-0.014867974584017651,0.07545889395891096,0.02008723110522284,0.12527083156178434,0.036645639087627614,0.07784615827658249,-0.11262393953532447,-0.11318374723229467,0.08557552803993167,-0.025599582799249787,-0.03919306736391288,-0.014569709359146477,-0.04955670053909927,-0.03012192351944387,0.08614995924638992,-0.053922248944864054,0.11027946215484236,-0.04126491790395859,-0.1780321522226021,-0.11652067366584337,-0.025111241457508406,-0.027354967866438235,0.029902778959140827,0.11466633945559758,0.05956991740537711
99.395751953125,0.9085006713867188,0.020542514305439,0.1219243946700483,-0.048378647217173436,0.07450357450396135,-0.0004998009519009486,-0.024969727955811222,-0.21531203301834723,0.08419430762801011,0.00396241055644758,-0.19970938828191714,-0.055409923803730804,0.010688697555423746,0.050098936859259154,-0.10969856500151196,0.09238434026251091,-0.35962533124948,0.05236216089151041,0.13036248671246226,-0.030470378072395287,-0.103051249368276,-0.1615630829462588,0.07835408534435585,-0.22871210905066228,0.028761454315688568,0.11389410834882507,-0.056047441114175235,0.10834322402595505,0.23427221997482178,-0.17554824879374634,0.10639666172842763,-0.1425236549017298,0.24553091258471021,-0.10068072465659575,-0.17767448307813907,0.3846105949348897,0.44951229978655727,0.26883193737266525,0.03885175988154886,1.1566316039779596,-0.17082876237246167,0.39433605528082477,-0.12407650451313493,-1.309469819813904,-0.4837873310553962,0.8419949654994485,-2.176430289769601,-0.6973670896982096,0.014753808609121122,0.014327395522346829,-0.4008946709934813,0.20559317787949094,-0.14146778171991914,0.03840420884278458,0.22013660822544456,-0.14235143660984279,0.047658273713276196,0.025965244179701644,0.06890863314469095,-0.024446523595782706,-0.08991281956840042,0.11553614651509933,-0.08308575336434029,-0.027269995037461466,0.16314368633598106,0.1450164987711519,-0.14942941392254422,-0.05098458308363693,-0.09491470114489262,0.007280839372746185,0.04988473740194963,-0.13846355991730502,-0.12962244467972955,0.09721765101949471,-0.06007561997541991,0.02810960213584132,0.024852531917854626,0.047156006724322054,-0.17345834050322012,0.02499457057702948,0.01150926528382423,-0.12212593624699293,-0.006398631770382044,0.05540659066442433,0.019505355768827465,-0.032021304449945644,-0.09876541212858686,-0.07520868090172703,0.03130972568374649,-0.0030383084940811935,-0.09652524883945823,-0.07701898521344697,0.11609778244124666,0.007259167496935615,0.015896275868646143,0.0020801816264104968,-0.03394771281552198,0.07098776110829824,-0.027080382645974378,0.15478764641002618,0.08538115191658933
100.30425262451172,0.9592971801757812,0.06375237483512054,-0.07378497744467552,-0.23454973283964867,-0.03955913124388618,-0.3451107898495313,-0.02315051252158396,-0.06559912837436908,0.05797880534750602,0.12497080020573971,-0.04738891555571863,-0.014922078872956407,0.13814421201335428,-0.06717181826899091,0.017301255156245123,0.11152448884327244,0.046423074160017175,0.11933927716039353,-0.17086005604678414,0.07504417124248872,-0.32110789786046245,0.07149081095527753,-0.1584625322588675,0.02639011120831926,-0.0729696206184604,-0.2248565714101392,-0.05613020297730766,0.19540602453960362,0.30854427593758327,0.10464384521386783,-0.07688396445538655,-0.016980420255839596,-0.14393408445296157,-0.24340066790435796,0.1367338927470347,0.08847080832637419,0.047433271717987446,-0.693984410777311,0.13521882695938298,-0.6913975640032236,0.2771623519261342,0.7692169983446489,0.14354384808867696,0.3759571277753432,0.2166671759629908,-3.0988255289225055,3.12654099209754,-1.133565585171558,-0.3489869900236785,1.0969738447281177,-0.9101985079056534,-1.5209742001567865,0.32888656046427267,-0.3136883590804176,0.06878214489270808,0.08175805612766213,0.04202868651845101,-0.02281249503590698,-0.04427138192612507,0.07775324169129125,0.024196604941956794,-0.018283910315686464,0.07243239188788349,0.07520489167530557,-0.0016810796116371596,-0.15948642061314103,-0.07114367525879059,0.06817848471680092,-0.15779614455533691,-0.013998632831289328,0.03134315538630279,-0.016218700023207303,-0.011993287646181273,-0.11628942553707514,-0.045569433096644005,-0.015771491309433516,-0.11015163637367258,0.04019026447200896,0.052526715910862956,-0.06246934542501094,0.1114813264845081,-0.08846646552322694,0.026765570714490858,0.08562538203685977,0.11895358273930393,-0.06828439051050299,0.08295063109642548,0.03406668564017202,0.01637222381102995,0.017333124608456554,-0.20678836018663843,-0.09267189737555823,-0.05828581075719649,-0.017395145845370205,-0.05128750617080792,-0.027521790032144364,0.049613822844827155,0.12219841020793058,0.08650885931235962,0.1066282135566791,-0.07845930173478097
101.2635498046875,2.127197265625,0.03758379859776985,0.1350295340414971,-0.045618358205865336,-0.1927526915133392,0.00943829248276691,0.26133390672926393,0.15858153158280128,0.11913436715886155,0.172721626420093,0.01918131655836818,0.05668687808921461,0.005956899838444442,-0.014887047929888061,0.2553002030711851,-0.3158880715119371,0.18811111392879645,-0.23548343925568027,-0.11496275656957856,0.34619888185910047,0.15620913717330054,0.08903385601760969,-0.24419580279989433,0.016627158735588315,0.05600178127300172,0.103335974125213,0.19405607229103639,-0.0076689462457565204,-0.011344643192716865,-0.04644634259709429,0.015842910503466902,-0.16627921339283383,-0.04857181672487701,0.18151956767125754,-0.20332047373594886,0.1610789794199501,-0.42969604178351917,-0.07637811237044649,0.23915011935738734,0.47781380224096753,-0.15497636661095196,0.1851347889828332,-0.1699007593817327,0.582904825317416,0.055028015725573934,1.2848404490973993,1.039979167960197,0.17192417613560215,-0.16695369357829254,-0.0630783010273687,0.22003413569842767,0.12755544861362797,-0.0011999986775455417,0.12120924264573421,0.042290789144379226,0.04534883312914892,0.016424856457125606,0.026935614073701583,-0.005221104728157237,0.007336188035335807,0.012206186096200167,0.011617263335791059,0.007096711086973072,0.0986931153038924,-0.018202325230533438,-0.08289076203767026,0.08741682712232718,0.014474752258658269,0.1868486350590337,-0.00776831751147755,0.062231515285600794,0.04065212726019823,-0.05071136663256778,-0.1135081526338282,-0.07613953161340586,0.09957553164199413,-0.036438455607365694,0.023881426616385995,-0.03528937723314783,-0.03082504417136428,0.034918769132119415,-0.04410465190321662,0.00028536564518847653,-0.010320020477323152,-0.011153017847823828,-0.04050207323780609,-0.050343699786311355,0.05639556587247718,0.09958501452284091,0.0024563822715240797,0.024539717619026513,0.035792918017404925,-0.0038925967126462254,0.014202210473243129,0.06754976321821203,0.10189307165623476,-0.01499887154887615,0.030713151974496603,0.14077005846193322,0.12465462909025747,0.051184239028650165
105.15914916992188,0.8889999389648438,0.06764643214042759,0.12065765632743912,-0.06032395252832643,-0.08236134056169196,-0.12395399421567141,0.11192188941138356,0.08341924782579872,0.09069277856107769,-0.1149652756156309,-0.21327927752520504,-0.03517136480203949,0.1051628132914493,0.14443464515759263,0.058179964523929026,-0.16144703249757236,0.09815975148243583,-0.30946325021573423,0.005361477977208026,-0.05899163609877154,-0.10422782440585893,0.07402897972021391,0.05436020702405591,-0.09820101112029302,-0.09087078656450714,0.049440484964976085,0.1238077433851043,0.06767367556876472,-0.07238931229322466,0.01405989949309983,0.00997171008421717,0.03261366672531605,-0.10168168157294846,-0.023135721591507237,0.0015861377184828718,-0.06569538390227032,-0.6854729740935367,0.01617944794175904,-0.2611162150971259,0.21748558792873612,0.052944294910044265,0.4416673528024127,-0.5219868596180843,-2.236758974204019,3.640624107119585,-0.23349059014419465,-4.6998565324147075,2.4402402046815905,0.2317761894503411,0.31350583045697394,-0.1618822340639452,0.10191402683528783,0.25582127973342916,-0.09682004916879361,0.04987737233350871,0.04020496608826552,0.031205289468387354,0.0395008408785108,-0.0002640445023507805,0.006243628109578731,-0.09763779462690635,-0.12336238823024086,-0.024374169898539216,-0.07127066918423365,0.07938897847087592,0.10299796825484228,-0.16599268405994283,-0.23274678099125412,-0.048659538688763555,0.1273260847048254,-0.1021207680567092,-0.13977184244790378,-0.06137343853865402,0.10290558586145288,-0.04916888046622145,0.020387172639922076,-0.03562253150903466,0.039992556568792054,0.021468820610416793,-0.09448514262077981,-0.05425796428761173,-0.03087533318758534,-0.030318534345498,0.07183768355570563,-0.10228282505253694,-0.042430222107000794,0.010256994869074276,-0.043029539690019,-0.019304376269644104,-0.05313726139585167,-0.003721298743603385,0.018546625496742172,0.039102026241589975,0.025883799201256996,0.03811905670681748,0.12562051622714016,-0.013205693027666957,0.009922069598640015,-0.15984560161264394,0.06452472735310667,0.17057984187242214
106.04814910888672,0.8886032104492188,0.11954992022496726,-0.1811714159723941,-0.15896127021281223,0.09128489169706815,0.16522188661402692,0.008693394279333867,-0.03140463775745915,-0.08435785461323059,-0.06333157630642605,-0.0933467902046119,0.07967708522813625,-0.05035230952411496,0.08451396500753748,0.14105157384271996,0.24788069660426146,-0.05646175721844922,-0.06400858502676622,-0.03587825771836537,-0.052019867919110854,-0.05549080660108528,0.12093569572174707,-0.22532403695777756,-0.02935430582596424,0.15138920942108666,-0.020159219352398353,0.05855783944377174,0.0488325861502109,-0.2507565235127597,-0.1339031672824386,-0.08928533309560088,-0.1348259525510988,-0.09892362576630205,0.06083594010016016,0.36215955007534206,0.1259822266348258,0.21062877354576579,-0.3310824578275128,0.17442506726185247,0.9937418507762401,-1.6785848764410758,-0.299681168401647,-0.48695449007341907,1.3308947495314989,1.6758799756861649,2.4768078057997065,-1.3067760056607411,0.25199711340958714,-0.9142343061832217,1.428282527149086,-1.1023431850770988,-0.13091841943038762,0.7415369122743013,-0.18049381051779997,0.11561072481145117,-0.12086631076187232,-0.010656768078590074,-0.058236371692335025,-0.034251637424262085,-0.05511213273645528,0.06833397294743736,-0.11522816338301495,0.003474911467089026,-0.03506163321036283,-0.09468212524519475,-0.1366020579605446,-0.005189181232039008,0.3629268109865634,-0.0029859089479131106,0.031648870965445705,0.01666673143437538,-0.044871668162314526,-0.04952430727755135,-0.08732049570188494,0.027580708755490194,-0.17195408597860806,-0.018732529377059673,-0.03201849602813437,-0.145560270091258,-0.10026516849450019,0.07903528063742253,0.1658567821460447,0.014428734479890218,-0.026096951204705027,0.016203931854386816,0.07261281228063364,0.06953560331470043,0.002750775495998568,0.03897386304115831,-0.03307039688905337,0.041505807656802125,-0.07187225075879461,-0.056404280243543686,-0.047670075697814715,-0.07038868851839922,-0.009656550012406461,-0.06145592016746461,0.04865844254830611,0.019566647683982308,0.01788319600114507,0.18040097744766326
106.93675231933594,0.9492950439453125,0.17016493863222432,-0.195165926741593,-0.08996377167090744,0.06265178591437824,0.16448993522922162,0.047986518593740396,0.08481701351337302,0.22477095397744223,0.13551695598247698,-0.02603929954451266,-0.08783131671890766,0.08782081314859519,-0.04995098431502072,0.06066412705743905,-0.1202805918935096,-0.05028409046601244,-0.11991091245912036,-0.11807290376869922,-0.36000497408490273,-0.15719691081469694,0.04346227667401356,0.0699481198225548,0.14507534896146282,-0.08248432622818447,-0.10308710993367856,-0.21074194348253655,0.10847221311323796,0.040630601833671974,-0.04595883476762877,-0.09597506148873527,-0.24257203068139863,0.10692220086900764,0.3545593842602606,0.16169109997598596,-0.2194612735235496,0.05085084599608027,-0.6250763309827335,0.12890086058062025,-0.43340240080299963,0.4694861118544609,-0.061223004251994895,1.485704836479905,-1.0933434504927069,-0.08988454423583797,-2.6555680006315963,2.540655190156642,-1.2919177215189352,1.0010324522135363,-0.4170606387753421,-0.05086689861609721,0.3393594913714764,-0.1720296061457149,-0.10240293845944441,0.1505496198099589,-0.047303632383607366,-0.016526737150030488,0.0337346796412845,0.016747126226954928,-0.02909477040768512,-0.10631942461261755,0.07322947438872149,0.10371007753515793,-0.08338977325921747,-0.24377383908113226,0.037556349311245185,-0.1302648284359582,-0.10063304517169275,0.06296452154573456,-0.18943030642054898,-0.00778010635600558,-0.14332138040724862,-0.13581224588517665,-0.0008863875612351441,-0.059102016313202894,0.08115337312149543,-0.12449246824493136,0.09386213303205947,0.011778669822828892,0.11221198202931278,-0.061191734213099105,0.050359751141833865,-0.09135468938009819,0.02866364527736908,0.02269359345331169,-0.0041727008779828545,0.03638861201428077,0.08236457052743218,-0.03272588676969104,0.06570637472568483,0.05587394997250603,-0.08788219661873728,0.015422316603748409,-0.02531969896528375,0.008646832714783392,0.041198160968191,-0.014218008548292055,-0.06754750218343311,-0.01065585390251736,-0.24026363050937957,-0.08708609225201443
107.88604736328125,2.027801513671875,-0.11273688276869429,0.0828611965432231,-0.0502516055520049,0.15734974282768094,0.1570282351942136,-0.09643416634128253,-0.020698601043160167,0.08617255678426858,0.09948039926621954,0.09976670062491284,0.02501306688191086,-0.09929056870239758,0.20732228325116664,0.07472939901341365,-0.2752366857301978,-0.06587757481200253,-0.1317959074010744,0.000506730664636218,0.26097428819768015,-0.17406891607586344,-0.07586822218643054,0.08199861938661725,-0.019002631381266222,-0.014526221719527992,-0.005221150207611686,0.09621749388291777,0.027003799198869846,0.0053665324237707895,-0.04483564753562162,-0.04190886278366064,0.1083170512263587,0.021208854053511517,-0.1597596838510521,0.38662005546502975,-0.5994392837608067,0.16572104848480962,0.5223231154167263,-0.5655079389059121,0.2562243710982907,0.54297309563,-0.42431457609025036,-1.4233465264326786,0.26052787070535777,-0.18472082746671653,0.5334528096728992,-0.3469660431653989,0.45029704236974705,-0.2637443272294085,-0.04349239252104248,0.12416983090353853,0.022846627101560213,-0.02983993698881093,0.01922241607927329,0.032894089695607746,0.06233273463457937,-0.07452878359131367,-0.009963273185363173,-0.0741401603511961,-0.006462267249689501,0.03169602268742709,0.03191680701276778,0.025612578755767848,0.08342408797749903,-0.03964784068714627,0.03468792056142232,-0.17299493160861157,0.12728525526425108,-0.099852218068376,-0.058788116230125996,0.10220197569304186,0.06787290619563248,-0.44312134373945905,-0.10006264448255894,-0.0177970905431692,-0.07479900884852986,0.015190549792754832,0.11672090080002018,0.1241335771022728,0.013851390711576775,0.028843894465967784,0.007503722916153685,-0.07133240621722914,0.14221328006611914,-0.0507558705377983,-0.03063051418827841,0.017976502733973408,-0.026962317587629632,0.0018357770911373254,-0.11838938667539117,-0.013280128996623699,-0.045654315169039464,-0.050237141098159833,0.08520441228700584,0.0007248770174886465,0.0821453822270547,0.06075977161726272,0.07825383578654266,0.07064488506087735,-0.11344683042563994,-0.11749585549732106
111.74154663085938,0.9088058471679688,-0.06049797430909459,-0.09725653879937975,0.0644270399949135,0.12796334302091666,0.08393017304865694,-0.08258172869309659,-0.32751492102967905,-0.115999651394789,-0.024692750584852555,0.03835797303436886,-0.11054531665678692,0.05032303918444936,-0.09022839079230402,-0.07769426687641716,0.13544151389454684,0.13848365018970246,0.12467294643216374,0.11303281211271775,-0.1433191768106912,0.02525853032420233,0.020161129805404687,-0.05434908703490109,-0.012947947250491837,-0.27336116115407905,0.4662097856713483,0.00905267859479851,0.006259418529479923,-0.005355803315278233,-0.1200720681084279,0.034634373725682996,0.18420644981038176,-0.29847845839871623,-0.010552251141692155,-0.16121078896518476,0.615805948645161,-0.327095169265057,0.6187718440126888,0.17093116654794452,0.8921639694140705,0.299771727918409,0.6828247211122094,-0.6338291000667843,-0.5422354715036177,0.32238395324398067,0.7130901423859569,-1.503804840755395,-1.2602285463056848,1.990623577251222,-0.6830968528760082,0.09110245405674916,0.6333630955485244,-0.007222645567080348,0.20573864029775357,-0.08455322657798983,0.04004378165839199,-0.03240888691872369,0.04183438178043294,0.03518040106219055,-0.06261790998072538,-0.038205141402092205,0.009040061158343965,0.08596248107063642,-0.07009268317180622,0.003232286116814488,0.06344378713974863,0.06698098170016147,0.009396904267311344,0.0957153974303316,0.004886444653608404,-0.02859107438601366,-0.06283153528830507,0.022645917673186536,-0.05407886503160517,-0.020797960647054643,0.016319080875169485,-0.006116983805459006,0.08575678815149151,-0.017456582529921515,-0.008982957806405588,0.02426045331169474,0.025206416689132254,0.004915021622371467,-0.0392443507243071,0.02262343804776126,0.039578059261504824,-0.043320586379852054,0.07946361454966702,-0.10303935492678777,-0.06093874896641628,-0.003024753498913974,0.10761063530286706,0.014906463047616822,0.08686838026088423,0.06367528156632156,0.059434399947739476,-0.11046975520787396,-0.1585209470173971,0.06357350884812177,0.15646782571649648,-0.043514495075299656
112.65035247802734,0.9094009399414062,0.03970662161717421,0.07132256311725216,0.04823378174504238,0.011852958339561542,-0.08132709784270202,0.10449209375779686,-0.055532000457900965,-0.1020905254485868,0.09029659318386742,-0.06873596544307123,0.05398772849503618,0.1221172383010172,0.14589806444930611,-0.26213673383474984,0.006323898102066277,-0.047179866283230745,0.031396626010528735,-0.12535188714869364,0.2181324541257424,0.031518365601755444,-0.01215928441886032,-0.0030265902091846653,-0.08731177900785363,0.02098825385096677,-0.2628535058053044,-0.017561835103907825,0.010810046223851025,-0.010268710872408101,-0.2541455306363279,0.0012742804379751661,0.15185639278168844,0.0027914137171589984,0.008404817897697758,0.13830197736697233,-0.529145603046168,0.27644177859977204,-0.05781577782768382,-0.8612205878681453,-0.40223270394210936,-0.4529758824023832,0.7934614480471376,-0.5855418124056299,1.6878957946648612,-0.4627433564419531,1.835701224661684,1.6613909325425553,-1.0293050088888565,2.6624768116504707,-0.9610127960821981,0.8477932350075187,-0.11576562798316188,0.12952764669320926,-0.19671912877655712,0.0005345877182051984,-0.047858140344530675,0.14381206841227193,0.0055514952472690985,0.04221234159980725,-0.038015766880998114,-0.08766195568114414,-0.012272622608794992,0.03659055047541168,0.054622965848651124,-0.015318728717811043,-0.15615942671779345,-0.07055460872338148,0.025854319591843773,0.022240407945523948,0.1692666441373803,-0.017043009946208096,-0.004398033820496869,0.03751940035522355,0.05320778682691664,0.09225645945110654,-0.030719939400809505,-0.024357158664017418,-0.10668393025914517,-0.07638546549094045,0.07470860315282293,-0.06724261851227793,-0.001607712184344226,0.034733682199674716,0.06457448100923557,-0.11166858343859211,0.0359554822892154,0.010122783047800454,-0.13813157000752807,-0.02745245139163293,-0.029092501221842006,-0.1026669839864266,0.022326448237792833,0.046909148338519786,0.02908748950912768,0.0009361419510512227,-0.00503497448379321,-0.10982278815435562,-0.018598054224953926,-0.09223828478150545,-0.18476830217955303,-0.12874521367315406
113.55975341796875,0.9586944580078125,-0.17294553409863633,0.0879344418341926,-0.15252635488781052,0.08270493227413135,0.04289239841831537,0.09011044568706453,-0.3849698113886897,0.031236908812198674,0.039522842014850776,-0.05021177626767466,0.023205160501476692,0.08759574775818374,-0.007012247345357376,-0.03642619841533683,0.10196195967189955,0.03402610413623103,0.0376003642556281,-0.3095290116672454,0.16385767767750525,0.1395908708810743,0.21258449702401516,-0.3985013076344349,0.17784897566621435,-0.13888408626113688,-0.048611870062428925,0.09048630041193387,-0.004883814949259618,0.004447798974281322,0.08504728838547507,-0.009759045341438162,0.146506928062366,0.13999660728599386,-0.034464862277162826,-0.17646293159883497,-0.10436571605452842,-0.6508908072148726,0.37565196012880164,0.5221643255662131,-0.8690312202704968,1.6692989835174636,-1.2979446858478825,-0.49398206246021203,-1.4555215529190333,0.6399537438957231,1.417325222359768,0.10969040610744951,-2.052339819255275,0.31824815156103553,-0.5954732377139658,0.7883002480800516,-0.043671803001877285,-0.5204632795836575,-0.07623242602818239,-0.02771923886611248,-0.016040261125551847,0.07172230798376421,0.016807117838070852,0.08939298280236463,-0.01193138193962863,0.022167401942466216,-0.15688649278017977,0.022112385239335664,0.016746243950799777,-0.12945274413836225,-0.05320459925093094,0.050761830184906834,-0.06692173894114689,-0.10429620938454758,0.03664758193292997,-0.03932400619218434,-0.1342927473482493,0.08616630712245116,-0.026028212942655893,-0.017284012637996726,0.005411410851406651,0.01724588859296996,0.10570612613430906,0.0014011243020899573,0.02167497085652447,-0.002653412612105367,0.18293170578150766,-0.00847089079919448,0.0011190547859589034,-0.09752249047413168,0.1810513075119396,0.005916363458597311,-0.0058863888810177095,-0.006847198146815299,0.027588450992080918,-0.020424196670906017,0.07115636262538791,0.021977638905307885,-0.055631521923226165,-0.04833666444890853,-0.07779685683617343,0.09170563152877644,-0.032701048884315374,0.031180527441723983,-0.03392424071902726,-0.06159590076309002
114.51844787597656,2.1277008056640625,-0.24110153953923602,-0.09017618805547602,-0.21158626511907785,-0.12975383352109063,0.028664121571715905,-0.14634372611495333,-0.03891802351671385,-0.1328082081247847,-0.005836282492165862,-0.09801664371189245,0.06704405290234618,-0.1419423136228965,0.1839924523892149,0.07657976558024177,0.050182827393185,0.015421457467819505,-0.04598475964345881,0.09613016477274144,0.3651776826506958,0.06351397897243628,-0.0008790719591278216,-0.05368256854004896,-0.03505364840806454,0.06914176633577611,-0.049501171003832806,-0.06933253602912014,0.21028630174522583,-0.03076337935008912,0.04085506976094141,0.1609012986085429,-0.08200919189175943,0.004184837932221519,-0.06371723413011303,0.08510965644806369,-0.5407014137962848,0.1591694757070605,-0.6130850405090362,0.11891132087573938,0.005528951948122569,0.28077061619842203,0.08895495157176084,0.007835620164004374,0.5087622044143103,0.0738568457970167,-0.2567985841034549,-0.3806989096707039,-0.37628993549391504,-0.07731938849402188,0.49121499203542146,-0.05211376080209891,0.08803567308164778,-0.024068762652675144,0.00304990908115645,0.06063564561724799,0.014022927327829806,-0.003056104430428634,0.04524656363916844,-0.015292273273867335,-0.0005412071424067381,-0.00590237894078168,-0.002487611402725577,-0.034131002598947496,-0.0065793734666195255,0.05008306892574439,-0.10388704820470701,0.06517984438991936,-0.03880815329928852,0.055319715183007635,-0.06431519050552295,0.01740950432569885,-0.0029969245064258724,-0.011971724116683041,-0.09369269766602627,-0.074599783653874,0.017625833919210035,0.1048550224072783,0.035596082273115955,-0.14489019312687518,-0.042006877722917654,0.021779481894175036,-0.009456695925738499,0.025987129793397255,-0.11539946136182586,0.049717633716388085,-0.022668930709308446,0.004320981046212077,-0.014788312025383225,0.036438834383986575,-0.08707182832915014,0.060997738238328325,-0.06012791088855709,-0.09824338030531701,-0.02668078351935063,0.03625973985416567,-0.01411968537061158,-0.0945885087964013,-0.010786870381163237,-0.06764600425604221,-0.02358501932609259,-0.18205601010365552
118.45404815673828,0.8989028930664062,-0.04104228872042319,0.37616041631360314,0.28767620397516264,-0.21559129114072742,0.11882739731811146,-0.01359320060451183,0.026520213184378194,0.1004818205464506,0.013340149208227113,0.0005213363922835015,0.013369691277059347,-0.06891093332694073,0.03323532014903864,-0.033165919917190284,0.13447079053727168,-0.17951487825235968,-0.004447901023203943,0.17633646174751844,-0.02783163678792029,0.0031686412619292225,-0.04791580832889615,-0.01917327364650315,0.03148079477210833,-0.08659520562022716,-0.185578121046717,-0.23544727564457646,0.13931475320467296,-0.09866355798545771,0.1605565805783699,-0.18615062309264277,0.14870364370046388,0.2950626403748862,-0.015217632930398212,0.24830451033540574,-0.26203530428190414,0.6478437144968316,0.4409831259051671,0.10747307212122181,0.07574031287825486,0.7555044122643358,0.06059387027514174,0.3433594831679394,1.3123780317413247,-0.6301987882524518,-0.4926523130563765,1.3569228554629629,-0.8396619986774283,-1.2240157008632833,0.49250354338539204,-0.28559932975731717,-0.06789382727794122,0.08877590358723467,-0.050678906447718906,0.24376761686345824,-0.022255749230709568,0.009725302905273563,0.00406095680010959,-0.00743510949469942,0.024518591249934198,0.04461258824286138,-0.00011889787620267267,0.061266476418510865,0.0020935526379624175,0.20668265209303066,0.018091485189270992,-0.07756882954017694,-0.13485817444931228,0.14108378410374584,-0.014444056977948047,0.09931279906747653,0.041091808539201594,0.06980223298827204,-0.0012580063109860328,-0.007999196436725725,-0.09876028975426412,0.041170278046742434,-0.05047817619642103,-0.0283070482465803,0.0039530504111618256,0.06544198549871667,0.05910996848536971,0.13003692180832127,-0.011112621837957123,0.06197610034974912,-0.05502296860651061,0.16556626277383973,-0.06956268633324561,-0.08311863042043124,0.03778257010682421,-0.004363925525223415,0.05544489368691982,-0.060922609414435974,0.011396332929825366,0.01461236985974209,0.002741801034761543,-0.05943447094241604,0.0822543862857388,0.028676526054696002,0.04759948490263596,0.3383661205990173
