start,duration,0,1,2,3,4,5,6,7,8,9,10,11,12,13,14,15,16,17,18,19,20,21,22,23,24,25,26,27,28,29,30,31,32,33,34,35,36,37,38,39,40,41,42,43,44,45,46,47,48,49,50,51,52,53,54,55,56,57,58,59,60,61,62,63,64,65,66,67,68,69,70,71,72,73,74,75,76,77,78,79,80,81,82,83,84,85,86,87,88,89,90,91,92,93,94,95,96,97,98,99
5.689949989318848,0.9391999244689941,-0.4883936470164859,-0.24169601058686446,-0.45634709630261994,0.2542675143666547,0.015248143572951761,0.06726665473728304,0.022918638989385037,-0.10451464558676105,-0.07470989167688707,-0.167898078946553,-0.21470067631365866,0.38145984050134013,0.04559771791294467,-0.44603332085809444,-0.19617200759029718,0.25631871053958594,0.08805134233906244,0.30997333907114216,0.09649889965716012,-0.5356425257920047,0.9678456163812763,0.48050029993865906,-0.8551379924882065,0.43963975661724375,-0.026520390912390834,-0.13544159826879626,-0.2854228085053725,-0.2138614058415153,-0.31822776659618035,-0.15181360352538828,-0.20396238865003635,-0.060843636545445653,-0.01998491535880592,0.4039610228072813,-0.0014313974321261877,-0.1733867039589168,-0.11361396146853345,-0.06920711906990472,0.01719745137647514,-0.053341219173626525,-0.002954531049412348,-0.09444587894101612,0.0252321931189017,-0.08637998162173058,-0.012714912568920489,-0.0013221967231180215,-0.054034862472928734,0.05743502652038048,-0.02950566973431013,0.011198861052124818,-0.011200948802069219,0.041159237584950714,0.04863270267920997,0.044848620494849854,0.060883561270002384,-0.01846021608917033,-0.0343389694601484,0.06055935254413392,-0.013799267924536548,-0.024932303740131022,0.011734058954675428,-0.05133934913900484,0.02263628017883124,-0.002822983182692831,-0.024094748518169066,0.041185496925686134,-0.024652358283368286,-0.03595061762612996,-0.00821938681957731,0.10758391837687126,0.011357723872958955,-0.030115702047617824,0.0008588808130642472,0.03953784451392717,4.678038973937246e-05,-0.06188834782167071,-0.04306968960817973,-0.011769012461362596,0.013002004383014208,0.0022772407425026876,-0.016754803072797697,0.024972079618966855,-0.02908721660173151,-0.10991868207031598,0.07068639731123841,-0.013872444338212166,-0.1234170130027905,0.09703572098525293,-0.32744729114309556,0.04359448036419509,-0.11264756352004768,0.4157919915735287,-0.8244100416710133,-0.04161118366999202,-0.08698791734624045,0.6626898048073835,1.0713602236462618,0.32603969687832596,-0.6607414586333463,0.3790743714347205
6.629149913787842,0.9286003112792969,0.248322430804229,0.3995690540329157,-0.1301040572926559,-0.361103995445551,-0.05179945839807151,0.03542499299935963,-0.00616249442686847,-0.12076299623526417,-0.04515776522735935,0.04899611371361941,-0.12576513203251802,-0.032334951002676963,0.13071379495206992,-0.2932607431867763,-0.051761521370285585,0.06828316593454549,-0.11975053026458905,-0.0361716336870631,0.017166079987335322,0.16383684183631375,0.07469564981008028,-0.04477790138804785,0.0014383704325367538,0.05600609403272446,-0.008812352073759697,-0.010030274977732609,0.012782835623299765,-0.018236199281443606,0.008984400872406092,-0.017509260534912745,-0.013512793826281316,0.00037279916977913806,0.0056170639595413885,-0.08948737740867833,-0.008702085101331733,-0.06976581115646857,-0.009069001555855133,-0.05714431066743046,0.004517683894449072,-0.008358180160348392,0.03530276906583688,-0.05157176279696314,0.06823754786009302,0.03642659204953668,-0.08741749606647163,-0.0731453051723236,-0.0009946589904920172,0.028433216478456518,-0.018625324355906425,0.0652766414884179,0.049910835930740104,0.028891318256088074,0.042812043059916725,0.012010705212878468,0.07726002087583184,0.08216954140168645,0.020214706906199406,0.011254578619972548,0.0031004412591480327,0.0353538560010949,-0.041941797773073206,-0.08522409196136017,0.011466998512810697,0.008165524445362284,0.03661666970695929,0.08855488734870244,-0.04124353209145387,-0.013953530118228672,-0.03834159935931056,-0.018554798729068754,-0.00265806612444232,0.03929212742419424,0.02684174818974229,0.03702770456050841,-0.0056236084001307805,-0.036543996099940565,0.06033157618444109,-0.002937514318285585,0.015893943232676688,-0.03929512152089024,0.03577862187286785,-0.044182543279422136,0.07300550131540959,-0.07892499484506534,0.0944208224704762,-0.1279522919666704,0.11510605259710145,0.20234063831967855,0.35914692681008087,-0.08561631093438593,-0.44033290445893647,-0.0676436079502814,0.683063141577086,0.5183377362553256,0.39190326543103293,-0.3573655028042422,-0.416729779726393,0.24562974296056808,0.5781188839008001,0.0554441320818507
7.557750225067139,0.9393000602722168,0.04911716760804191,0.1294278368064791,0.01658447543675746,0.09050952578920109,-0.02032584483577768,-0.012597462440647024,0.23825836068800163,-0.05244683584686709,0.06842374592142528,-0.12470413434118917,0.09193790730025195,-0.08443902570115813,-0.04649678619844899,-0.07945758674317104,0.0053970164591876785,0.0062177812372718605,0.08270334760952855,0.0181773255290273,0.03677678669396454,0.040804649821789454,-0.038251212707874155,0.03930651924102715,0.05388297615113137,-0.20564074353146983,0.027469418021156808,0.12852311535219307,-0.09170847373833378,-0.08112501144308071,-0.08479691226383634,-0.0694811969557287,-0.13687050471520854,0.04524704920671703,0.11560736594832426,0.026017529331848394,-0.0626212215836054,0.06169789742646717,-0.09959349319811626,0.014941973409382192,0.019662633940902657,-0.025659836931702477,-0.0523370987785657,0.004457482001018698,-0.002177227666761792,-0.040373378120048466,-0.03742011900956105,0.03568115491793851,0.05192295203780722,-0.00994198638001414,0.012875245290714247,-0.035637876453133446,-0.06723169831014962,-0.05598362786714961,-0.05383507856349583,0.00014897358355259356,0.06064214985467446,0.011769127074238656,0.050537293517756286,-0.005755582118515548,0.002682493702813947,0.004075634517110118,-0.043520366947626746,-0.056011346147090496,0.09985289721534114,-0.07120232926176878,-0.035036619469772066,-0.05273885283802042,0.00991752379550518,-0.027377564606305478,0.03817812987534712,-0.0076229749632121795,-0.03749666652706403,-0.058022966297089196,-0.02314079138746626,0.061967380608707906,0.029535440331040188,-0.010172335030226961,0.035179393203264596,0.006856763275658664,0.0009822906766108683,0.03509478611016078,0.049669735258210335,-0.005558799875422696,-0.04082893310290618,-0.04103721545385162,-0.04722880333635004,0.027402287296010415,0.14275003173356457,0.5312193690276975,-0.20593387906860905,-0.030157873005788823,0.13704938183013396,0.7535394014632304,0.09680347349270396,0.35198553849225256,0.0404037628790982,0.09379286376695536,-0.6265429409818263,-0.5237954259705829,-0.06486056122882743,-0.016006370403672032
8.497050285339355,0.9889993667602539,0.1853309661367319,-0.03358758948920486,-0.04066041061907562,0.015443582551876408,0.1031605893745289,-0.025786418360442438,-0.05961076413166331,-0.01575212271517263,-0.017303202988720585,0.14477433728623212,-0.09323608740041575,0.019033132219875234,-0.02403471428529659,-0.01191580535060049,0.023458153214910335,-0.07935742300037261,0.00024891430420828544,-0.009483594079625842,0.07073452355453987,-0.07029838412747061,-0.02953095931194195,-0.06961076997636054,-0.016092374649994766,-0.00034767879822775926,0.055423038073125125,0.03487158962130285,0.006659044542731674,-0.00806645246537714,-0.04909410725665308,-0.0005552442227271847,0.043470897801923064,-0.0563661078242427,-0.019054853359795444,0.024370903991339232,0.004841395049776138,-0.02833877419269965,-0.09708521757122575,0.01872665684721666,0.004391429914481843,0.006050311076308816,-0.0469448302381333,0.004700807390736439,0.07921481784795957,0.005715865077264428,-0.015029605282518992,0.10068413595080414,0.10183643627740718,-0.005351335872750148,0.03089102258481346,-0.02222085285772479,-0.01083979744730948,0.002045414064767679,-0.056441751672767715,0.011321509546554122,0.04252265769814873,0.04985179267097646,0.05401152357909082,-0.032174127169711124,-0.10605821929346596,-0.0624897857711942,0.009753572628697346,0.008303849427985666,0.008964816881802359,0.0387611626747682,0.0904034770131006,0.019085369911334384,-0.05428781888839573,0.029458867463929554,-0.05807995247000303,0.023280201293790676,-0.05806938946233542,-0.03746373905589976,0.0391971221202745,0.08847431844421344,0.12275171686097099,-0.03038247345314364,0.06426458317982212,-0.011963652508318066,-0.06707240708014359,-0.00520354067748623,0.00014887303733089691,-0.0005649519956704406,0.0008715240529048174,-0.060055760304511464,0.07491025181169818,0.0014830817848762534,-0.06190800291622413,-0.3870028244552902,0.7078808217359356,0.41801775593295437,-0.18950801788223334,0.45331377911491066,-0.08975021772506764,0.0937061048991257,0.0667069876844524,-0.15170803263887228,0.3759131578036553,0.06201120618045172,0.08743015102916638,0.0744449161406528
12.592650413513184,0.9888992309570312,-0.2168121562443368,-0.4007511905706913,-0.041654825689285954,-0.13115756044498114,-0.048567097577254394,-0.10412001453819984,-0.5197147046740143,-0.0025255086950223323,-0.046830500726730395,0.053914462835017794,-0.020641333201688077,-0.017726971391468133,0.0006528127270483512,-0.2650015304867443,0.1126505036591951,0.08629350287973703,-0.03099963725738259,-0.09841115767745817,0.030847429857206874,0.05430071645678238,0.0019505109842176058,0.024062050757846593,-0.017148693542310613,0.021741497418105143,-0.13641861779129924,-0.05000922236264123,-0.011756230462577616,0.0959172438088427,-0.05406693282046519,0.0026653483504777515,-0.028225936946986618,0.04007933459202047,-0.012941601171423225,0.03857712386467817,-0.08519714084401077,-0.07759551400445376,-0.07214755527599426,-0.04092820633047582,-0.017555775314040095,-0.04358740983727991,0.021231209190007372,0.05551701859654069,-0.014181227311782207,0.016917576531194498,0.00022440049924639374,0.05448133769012374,0.035312834642298584,0.01770114369224164,-0.01752833638594586,0.022497319942964812,0.010438474318596482,0.02535962106487805,0.02257446474478851,0.012794916517767367,0.03165023315695926,0.005125335519708084,-0.0225098577393424,0.0100043216291653,0.030148752003948898,0.058649114757402865,-0.05258572040606517,-0.06881643140499913,0.02554360757638134,-0.06565085971902694,-0.008849756823552709,0.0069061793721081205,0.02343790773954373,0.007944869691730208,0.001963161538473695,-0.009793227953320124,-0.018763346247114107,0.06282404451757419,-0.05019545004995047,0.07420175628992406,-0.036548157587694884,0.03786036760440925,0.03666467234353059,-0.05714181870054167,0.0019349246953615507,0.04388084102990258,0.03992987588644275,0.03935686789004682,0.09901176014647195,-0.044035825268294,0.08558674222522351,-0.046960258469046355,-0.06905579587229163,-0.11756659097363606,0.11791784394900974,0.3705642119151608,-0.7912609914196174,-0.32309717538546046,-0.1660195541670506,0.1635588689443852,-0.04351723531681305,0.08051722739750916,1.0906349066897605,-0.4830719010560405,0.05105822726855262,0.2936362765610824
13.581549644470215,0.9388008117675781,0.20125060405133166,0.16232845280227184,-0.05169531510057274,0.1112820141496686,-0.025137611823264388,-0.026323266845556782,-0.055536458551945674,0.025918579875482364,0.013865254778701238,0.25163339712533483,0.1337488129661602,-0.04940288511078365,-0.04992941175869464,0.028107777911175608,-0.026153685321527606,0.06137282380483893,0.057045421398800325,-0.03524348957895726,0.0005841546051503273,0.0011357516067721394,0.012137162120762966,0.031059979373732997,-0.501497156122131,-0.030164579293868662,-0.0369845079648788,0.009268031930938392,0.11466702110163755,0.04092865954934133,-0.03979633871513854,0.011609445596759603,0.07660634929238587,-0.0700542429949547,0.02841083927215072,0.054575416664063486,0.04035327535704669,-0.06522517104349235,-0.05729907781172259,-0.012888469903793038,0.031217243362467843,-0.037092729184109934,-8.628081829831625e-05,0.00282742862105468,-0.009435879820036384,-0.013834713822227743,0.08361970177433817,-0.029365801865365568,0.04330274842269849,-0.007631108724313921,0.04098688608317304,0.003706707674196265,0.009882395138734297,-0.028239226406720302,0.06874673222895057,-0.041820049291472865,0.04367012582729655,-0.03564648467846961,-0.009392573947349256,-0.06004711515785603,-0.013011515430483872,-0.03897319058227641,-0.032682481810236794,-0.01281069053058577,0.054904397244764605,0.029974222789093088,0.030172365759784988,-0.019622271232602784,-0.05532086006702998,-0.046281295248807294,0.016551093327133958,0.006862546514930279,0.011800315518231474,0.05911774823047236,0.03847465235794662,0.18255049844312324,-0.022927979979285484,0.0299455989509154,-0.0004982138246517314,0.0024715576667425896,-0.004347638069120271,0.06891445680241975,0.021054690344363157,-0.004215962663955017,-0.005187144158863274,-0.09626325021155888,-0.0060588232485036635,-0.001600900298883587,0.1299926078800497,0.12337301276281096,0.4136508435968369,0.4334621336557901,0.10005124290209344,0.45439797534541104,0.208881812883897,-0.16561733294035075,-1.6641651389325542,0.14243711948479962,0.41414894909781114,-0.1977059888546827,-0.18524410950221448,-0.20206654959554038
14.520350456237793,1.0088996887207031,-0.20503562046966645,-0.36188997449243177,0.14395082344354398,0.13465859343078793,-0.06839696710425197,-0.1871284744045628,0.050385202226016404,0.05598103106806093,-0.24458632152230422,-0.05542268280129162,0.20249201181547088,-0.032604180445633256,0.09445718752672706,0.03617801834957696,-0.2858018719868954,0.16044206439353054,0.020768909193924733,-0.027717334877114624,-0.11485074444018802,0.15499048939730384,-0.03133513956399249,-0.08529748541092451,-0.19636005914861301,0.016041387875838503,-0.06942276985303368,-0.042665937019528116,0.09357548225271625,0.022940635649934527,-0.07834005589694829,0.20296763137436097,0.20566571774235817,-0.019763460883137643,-0.14001079949299255,-0.07568023370055538,-0.27168701683849905,0.03343282501459224,-0.007337713080754015,-0.005207625317647794,-0.013193978842087693,0.03603151895408067,-0.08380803291226792,-0.00024293431661110126,0.0009551626220115418,-0.02377385168267428,-0.01896055074410102,-0.0036628492029219945,0.028467856118985127,0.023801215617539822,-0.035261341496459764,0.02504471932350287,-0.014207593253399545,-0.021568236528139745,0.006608299916942221,-0.03470352635126887,-0.03182120022267476,-0.009577644615847472,0.021114438338820065,-0.020021157646543063,0.029605123868277367,0.008482822932338078,-0.007414053888187094,0.05801956250293981,-0.041106956949039875,-0.005941963480107837,0.005700609519718666,0.029462936945081175,-0.012540863154051542,0.04307471367842082,-0.03420341274905653,0.02964017302845433,0.01816979519536369,-0.01407488562720444,0.00480867759299787,0.028320791203514484,0.04271465447916465,0.059366363001811126,0.06572422154944436,-0.039304527531362245,-0.012750401771382,-0.07555619427325523,-0.0721515474241511,0.027670973396953,0.07462336340001259,0.0509177071447601,-0.049269406593581755,-0.2853708263835725,0.12941829983621533,0.08485645162077343,-0.0699001752157348,-0.5057196268939995,0.07025302291295402,-0.4524377635162251,-0.10690406293258364,0.1388542714345931,-0.39093484007062995,0.18191323491471256,-0.4504037378369936,-0.01799310334796959,-0.05285532611510669,-0.32852983199160685
19.40505027770996,0.9389991760253906,0.09869120582457963,-0.02371587920568198,-0.11742296913167996,0.08756340900437609,0.25111306610132533,-0.10208704801320387,-0.01636609907697107,0.18189831687497657,-0.04461279406714467,0.046046792796407804,-0.09154168280465476,0.036574230866110016,-0.04555286709012091,0.03623523847685962,0.1536630285682093,0.0820844666561183,-0.01996665411031566,0.04647928451435028,-0.043769425128827075,0.05152690517713721,-0.07297895549732794,-0.08346048015656192,0.388416051314922,0.0316376200371784,-0.14326327925539067,0.29565235057812284,0.12032546561595409,-0.04678727922246124,-0.007135988138521499,0.040804736374229385,-0.016717824695872165,0.048029434110494235,0.03743719526460622,-0.0510821239804831,-0.04843216528118666,0.005706330585185491,0.00544981651644171,0.006876309978530671,-0.001249254444396724,-0.015396419254584154,-0.00904993994048936,-0.0030071583907551685,-0.08485769404792949,0.04650403035994308,0.025637221604428377,-0.0030901052170714495,-0.04233570002646331,0.0007256035446775936,-0.03962734093324156,0.014798492250044915,-0.06014595845644685,0.0550278810158196,0.04313699177731452,-0.05792905698595533,-0.028201344025286592,0.021314735346416747,0.0634910013792667,0.0497215166737937,0.022134285067794343,-0.046107063031962554,-0.014438073174881034,0.06468617792139089,0.005411823086694326,-0.03127539578584649,-0.03047157492834047,0.004634740865678134,-0.03934700274988349,0.0445487135291962,-0.014014591106605105,0.03735974498649943,0.0241705406126187,0.13212847639492542,-0.023609002332804434,0.03961049820719249,0.06245789487370557,-0.11643531978017406,-0.02211365178293235,0.05466992726657119,0.05109825131689334,0.00588248862652001,-0.07608053484956284,-0.053402106511937844,-0.02389903709810335,0.0402449762191477,0.07681411165219283,-0.007788373912981706,-0.036070477423350476,0.572271527664443,0.12038391785451709,-0.3814201542221568,-0.6218933268535084,-0.12439402566186072,-0.18608576922482706,-0.8655793568838375,-0.19259561835024147,-0.1059315396592635,-0.8953934483146397,0.25176487576692264,0.2450254192829454,-0.5778644976051401
20.34404945373535,0.9390010833740234,-0.563176058043179,-0.8944858435391461,-0.04467953263145154,-0.303537830154782,0.07404532728212661,0.33264509541303616,0.14097520569470312,-0.10623562030770035,0.23131963984862422,-0.13842531556124535,0.2939104747065546,-0.017191762584999964,0.06034815160644163,0.07122010150139904,-0.20447591434411727,-0.24641851277325832,-0.13113239501259075,-0.07041576123371596,-0.021833756638887543,0.2007694758244796,0.09165979476887523,-0.35530275176407183,-0.0971615646577368,-0.10755225857398526,-0.15828925261999577,-0.05475661390144595,0.26128767510838147,-0.104033331051834,-0.014176995279165331,-0.2229862459586149,0.08423721748740964,0.15439792573216835,-0.06938306242089735,0.011288101556989172,0.0438047717621452,-0.040924587817665586,0.01924740452178082,-0.01916415239468241,-0.04147651115079791,0.04687949363144572,0.018643331324501355,0.031467837443394646,0.06081050582092909,0.006019600013402641,-0.03744109476309909,0.03894417803325922,0.04991860136121024,0.018334138856890846,-0.052947825190592976,0.10164892215520806,0.000555495561808879,-0.04086393682430596,0.019640383253839905,-0.032043237370086665,0.018715568556851858,-0.02293748325787235,0.05795687165337258,-0.009746403299988701,-0.003904977608470211,0.043685521157602394,0.008601801343555537,-0.0001220427555834948,-0.029746172215023313,0.03087212278236877,-0.009888703923312838,-0.029877540461760298,-0.022320876173040634,0.04946245649831542,-0.050884557998097525,-0.01181182143702624,0.04507016315286644,0.003695976603227945,0.059559837287195064,0.05046187074648818,0.035558625140279354,0.05752100269702391,-0.047091694942641475,0.015043272846820308,0.05924927664758946,0.04860715668609295,0.08741911860059552,-0.037787748629261264,-0.008718898688987856,-0.05334123664554128,0.17569044520231178,-0.09646096705881922,0.10865015759536226,-0.21842727038687038,-0.052851697017307506,0.23778396654230696,0.4391405175355034,-0.49006841404495893,-0.9591852632083776,0.5271864487515387,-0.8104636248759929,-0.43477739708170793,0.22339520281616765,0.13641817852530325,0.11977955891140582,-0.4606446233609621
21.283050537109375,1.0785999298095703,-0.7318079031871029,0.43362554957438376,0.13076254992496195,0.05228427684714655,-0.6029262092675609,0.11489844716554608,0.10647151680959654,0.05812985936504846,-0.13535612304299152,-0.08892548837671456,-0.30551578537681684,0.035967305698889146,-0.04169541290629995,-0.010222720974255788,0.6951240213918606,0.06148199472416693,-0.003173559978593787,-0.263810244329856,0.5266476396173937,-0.5235992507657944,-0.18859513680888493,0.3441712454688145,0.031404773506418876,-0.16165597544140037,-0.1377357805321433,-0.08728991015710678,0.2666154010480463,-0.12997993713821626,0.2547772612321833,-0.0694316181987051,0.06330883906378061,-0.18245243566642147,-0.019447956688512607,0.04925727366075121,-0.17288621612739458,-0.021421650792826513,0.01418837910498416,-0.017407408857203932,0.02767908095291371,0.01722136735328679,0.014635003232592082,0.004389244008806148,0.0003591647322998376,0.016457938852544235,0.08655770083190709,-0.0028162539275004613,0.07080279898804888,0.01990428982876733,-0.021346784705167102,0.02389628018799214,0.07053584712840687,0.04920898020960554,-0.042777634928254385,0.019810328332140043,0.0012359067509001799,-0.04165866121374254,-0.00771977294183369,-0.008999421801882825,-0.0027763589361926686,-0.016930662254685883,-0.027686930732246692,0.022231269390342232,0.04409302880521416,-0.014523283897365425,-0.05412111464784044,-0.021347690801591667,0.03748100262594272,0.058656233339815365,0.08660418360526304,0.03407434860670077,-0.013239341209292139,-0.022379501921142013,-0.029895612468917615,0.002485854667011969,-0.0340796673529607,0.0440957937812512,0.0639032727525116,-0.012131530689007998,-0.06701898759911883,0.10047545309754004,0.00850207409864859,0.060420843317408386,0.06648229940492804,0.060422197054235224,-0.01064661131949201,0.11848138801454677,-0.009803401339546738,0.4451979902293605,0.17994858817721404,-0.043208630094992456,0.11200644919214997,0.08807948667668469,-0.3926677649015224,-0.5850533820606943,-0.4565750819916954,-0.2580318940016711,0.2935962870071392,0.6340910460354966,0.14347033137800472,-0.35647342652282366
25.42824935913086,0.9589004516601562,-0.3827713320268512,0.2682205364424911,0.03306265158631248,0.22398261763009872,-0.3454318949854308,0.027303899578664845,-0.025470912671481542,-0.4254258458395339,0.017113861867437755,-0.10273269027027218,0.44155067753551763,0.31042784416884006,0.12502391739469673,0.0712691596937647,-0.008280727541684267,-0.02298452257033791,0.004144356897912116,-0.06990047354815215,-0.010798604399192474,-0.05328688193012976,-0.014004852537164682,-0.03519351764547152,0.014630274306313779,-0.10844885852742522,0.005882847801340116,0.1108993974158318,-0.03960627536623615,0.0006226376606405445,-0.020065341813360532,-0.019551025844604945,-0.0093673432419153,-0.05940999746042633,0.02933989788874433,-0.05320506811097467,-0.0690315764745254,-0.07389188679672201,-0.11222268305831094,-0.06118820128360619,0.01033652769974583,-0.023090576497567836,-0.004314234424905048,0.08001787819367931,-0.030081330491674736,-0.004377011394147032,0.013931298128613963,-0.028968924765859747,0.057025289141804894,0.056490679787612665,-0.036669124605291224,-0.07177045163419742,0.027103128830927817,-0.01042902343556694,0.016744788447954132,-0.03218429632861694,-0.04290927445437244,0.05241907040738142,-0.02071394374181569,0.010761983602037454,0.03847844362540133,0.08152052165736634,-0.007689531413982662,0.011321787031642905,0.07391098870655648,-0.0021437812148595026,-0.047248506183772805,0.04470900626571921,-0.01872063949554665,0.004649122515537847,-0.0016742199581402046,-0.04530876382680073,0.02562421688480689,-0.07038203019830107,-0.028413254786219116,0.026246974944296463,-0.05625154270590469,0.05512228398659331,0.02200290091173436,-0.06662032573813459,-0.0861298874086295,0.06326416980593082,0.034492091775178056,0.046333251116866946,0.07709852897208809,-0.022297072114948316,0.009050261422187665,-0.1420410583194645,0.044722708267962714,-0.1086531716331079,-0.3791818264484062,-0.24545268157040007,0.020315919197493315,-0.3238335943650868,0.09513162878528161,0.5659425867007204,-0.6144279223305419,0.24094269368130997,0.5777922204598848,-0.18091323662549735,-0.14723493025397744,-0.4416145436471886
26.387149810791016,0.9685001373291016,-0.7612973493320424,0.09223177779482497,-0.08276926968244296,-0.0992734351270351,-0.1033168001774308,0.10526376936653065,0.13729952655337557,0.09791129935659827,-0.12387739988840189,0.35767005317468586,0.38146566295412826,-0.013507928734951456,-0.002376259306672065,-0.07649904214145176,0.011067532115362738,-0.0789662700258296,0.15508884794280464,-0.06467558770498345,-0.1777571995068345,0.042430853361594675,0.10363522079251346,0.40371554822973216,0.6205859884076477,0.36579632300643805,-0.04983479693880502,0.4342096971761055,0.3772784873265448,-0.0761428108081963,-0.21738448390580434,-0.018673103567646565,-0.1095040484321076,0.044454999105758806,0.1526526023469261,-0.33786196048437955,-0.3042695894260959,-0.02661477621306129,0.018305365080289675,0.023722499244779018,0.035671492455584895,-0.02204329891359097,0.05313307999439725,-0.034020370812420354,0.008006295726331604,0.08676679815265549,0.006967532236180636,-0.0044008524082670185,0.012549110068060636,-0.02965926675972931,0.011506910870366482,0.08141174578330919,0.03723482185709793,0.018908914501388138,0.02749528365433716,-0.021679221370555193,0.008320541801737684,-0.021868788410776368,0.0110976549888398,-0.021739590219268412,0.006843785750379398,-0.06551004728892444,0.010080216659567287,-0.01948981582534437,-0.00023620105654422862,0.08897873979213243,0.006656346726051761,-0.049369506805166184,0.013840825484904319,-0.019354355926109283,0.043044527267174844,0.006674980323461543,0.09218794489485785,-0.02378493361636459,-0.010108570741778235,0.06893487679428,-0.008028756794604734,0.0021458406319144843,0.08759170244605564,-0.05700535922733411,-0.07453752739411752,-0.02572040189630251,-0.004272096526539117,-0.023550100612665263,-0.04375808191784572,-0.0661768785118892,-0.0016838633671411364,0.02098075147387992,-0.022308273969953888,0.2005445738811742,-0.008006701364820845,0.06721844745345618,-0.36740030818611913,-0.5832651919265797,0.22014196626589433,-0.1729502533317142,0.5419749972301772,0.7423489810990747,-1.0718974475838057,0.5203852019763741,0.032887028690341824,-0.5280478062272208
27.355649948120117,1.0092010498046875,-0.32143399085657154,0.3786293763282108,-0.011448344428108858,0.015767627864677017,-0.15584550586496027,-0.15519540597381148,-0.12063092279265558,0.21592482575756783,-0.2364796529304831,0.1924059149963268,0.053939731556693356,0.11265893710221575,0.07605152572078251,0.01710244789710717,-0.1144960831926195,-0.12284806643637793,-0.021442591760329262,-0.1270717380681133,-0.2812593208676413,-0.533397233985375,0.10554662780863214,-0.17197453510326544,0.011077726331958316,0.15566920215411995,0.17611528020639766,-0.030403090429917904,0.10426734248178328,-0.4157118157894841,0.13628197517621995,0.11736632882971507,0.12734390649242588,0.0955789377404936,-0.29946953614819194,-0.04902675378531454,-0.004708499376616509,0.06845346366960949,0.020291363059160045,0.009676323942639344,-0.02177601420525981,0.007232963094600033,0.017682979437534548,0.030836883275614506,0.005213124521206895,0.03698273853561633,0.037857410834104925,0.01657137587638967,-0.01814061325947734,-0.0592658625907993,-0.023853697712290345,0.0013882904324618553,0.07992723291266932,0.04547669130555318,0.014596269252085792,0.0022534417909158607,-0.016925937026225822,0.05534815594254379,-0.01469301534453227,0.022872833507827636,0.028909483306936386,0.04938962665985097,-0.08337631504309459,-0.037286564304937805,-0.013014052327833288,-0.0214851700036008,0.009563340813997276,0.005335130579061195,-0.05358320105007471,0.010586656418651991,0.018614452515431954,-0.025821418226605816,-0.02882238924736401,0.031010566296847203,0.031562469531282014,0.01906330977503812,-0.033640826892403525,0.10256354209131648,0.02757755304146195,0.013069975290964132,0.035649336866490175,0.08054787394548707,0.024988600984418845,-0.04615195009093791,0.06777145682048309,0.17841624548073207,-0.051087804888484696,-0.029114906775301624,0.16177505500101155,0.651726988593663,0.5187892564029583,0.42100825985186274,0.34200148654798934,0.09355136460214128,0.5383141096759401,0.008656367510094506,0.369621338837077,0.13331556786244714,0.23658716103189228,-0.06653807588064538,-0.3568428369650428,0.40345935842168423
28.364850997924805,1.0285987854003906,0.43057298675862904,0.08835761487485627,0.2067090256808597,-0.06406863048939603,-0.0664763482855947,0.2301038264447981,-0.288447741351841,0.023946003638944433,-0.07081724349520754,-0.02282932207188607,0.009802727116689346,-0.06607104461731102,-0.0057135795153192065,-0.1797134597634043,-0.15616460918537162,0.026252591711335992,0.018139079038948257,-0.016819281621369225,0.013661203042796263,-0.008329021398928058,-0.041023565028728344,0.01645154356018697,-0.08444665502899237,-0.0698140195638862,0.09872848065354241,-0.04782470413996617,-0.12177342308566393,-0.0156723715642219,0.00021141526880408268,0.02929508966790609,-0.003110767271197787,-0.04913534960489203,0.053693737836467366,-0.018662454493444176,0.00020400953176705186,-0.06362512678703121,0.005511851779470326,-0.020651166781816967,-0.12271088944957097,0.023019010671359356,0.04235735097772593,0.05058294861184277,-0.0010885498067677677,0.0016122739223789196,-0.002013633717937642,-0.10094576650441142,0.02417669753272065,-0.03156685491859669,0.09758499891284862,-0.025963460524348177,0.01767357757504892,-0.042931953598196904,0.03465932427606258,-0.008957130927208085,-0.07508162481817603,0.01841095281043764,-0.025028588349768153,0.00224920248906498,0.051711180873306915,0.05176476522090279,0.02259711311813967,0.004227159924332777,0.0006959036350702254,0.04924174314250281,-0.02018814329810039,0.03793031737638463,-0.014781068529925053,0.039584901555638,0.03635149511339401,0.0027063436097918125,-0.002104035228950085,0.13280561808140146,0.08757190678066305,-0.07885793715533364,0.012365847472926024,0.04258747256889475,0.006900015015922106,-0.07424221035563977,-0.06469606895502,-0.03826587293569699,-0.027032218974501292,-0.03044509036781117,-0.07210482970503326,0.07082788525150475,0.11650046924331059,-0.023936233558226563,-0.04461825412360119,0.31876735363539777,0.46958381313379655,0.06255329859565575,-0.15600665441622782,0.45969383573180284,0.3002989133828118,0.6814391843771265,1.1980489309159965,-0.29223806976135003,-0.2616192766232044,-0.016299602051606694,-0.14451760392399343,-0.10011920386889202
32.50004959106445,0.9788017272949219,0.14158255577719275,0.019724983059964174,0.27788961151036207,-0.021771643766870102,-0.07760032119767812,-0.04683790119416455,-0.033621585320035674,0.20741977684018842,0.19388861426496662,-0.07846838469813038,-0.5309996410357707,0.20724634567691566,0.08042757792271321,0.1189715350645717,0.025667638065971332,0.0659213312176345,0.08633031375581615,0.2987113499419733,0.12924772580210112,0.3250033378304064,0.021752212444415386,-0.25107137114892886,-0.12375911017225527,-0.12309574231381656,0.10831037227428654,0.08063917620690468,-0.025266515868970767,-0.06966778477030745,-0.2587240853424394,-0.11685401281870902,-0.019462837743355322,-0.02526585720184682,-0.17955613037146523,-0.018309301647424815,-0.023804858309620754,-0.04982126645006681,0.06637122694725078,0.036661700122540025,-0.035628528264437354,-0.011869938590055303,-0.024431758409191484,-0.055886209294679384,0.0030377266784793206,-0.06128803003578588,-0.011221290546544473,-0.006424561834390934,-0.014205130245067435,0.01922568352343348,-0.03360117187707452,-0.06752320029993655,0.024505102400509602,-0.020633812409082936,-0.04640109269562761,0.03344727093372506,-0.044321604530095704,-0.0419199400344844,-0.025437946035836295,0.04402715459521022,0.0019538699387911373,0.004991918045637817,0.06444332028753194,-0.021248664345240326,0.029389008783648467,-0.00487472102273,-0.021247397819582733,-0.073953191815567,-0.03697254774745793,0.009225244781513948,0.0075728863789092694,0.03821693392742742,0.01947378642180363,-0.10388936868784046,0.009795983759396467,0.03557865324935901,0.05594801203876555,-0.0031062305893608294,0.00847707821623424,-0.03096897318710603,-0.03447537863722314,0.04851361945576657,0.004862247184417932,0.026510361564366088,0.03370086510131162,-0.0360294407485849,0.022507712579300766,-0.03707869417158564,-0.15385872713774845,-0.07354266615638884,-0.3541117683847703,-0.05384181388248883,0.6611028774314687,0.5220452014596969,-0.4350594984449425,-0.6361093116604899,0.34098871827451405,-0.39851719656379325,0.4358631300665159,-0.04345600232824688,-0.18568304643942984,0.2196976999145397
33.478851318359375,0.9389991760253906,0.2465896740888736,-0.31909133959146496,-0.027693426099248637,-0.05241983377958293,-0.06373753351457304,-0.07762152805572484,-0.17971568428465842,-0.008286540332776277,-0.1707482856096902,-0.10551786041119299,0.001987985367069186,-0.0002570784067564384,0.029246997043759618,0.005994721137710217,-0.051220376235960305,0.23442515271762468,0.053762591550155794,0.19039775458704683,-0.06710359807695632,-0.0384357611275921,-0.013444142410448164,-0.24598766330331265,-0.2574109271207923,0.08783050109824488,0.37223437497230244,-0.17068914160763948,-0.13425319019869963,0.11251141935984924,0.04939187556973659,0.0758303019715157,-0.05133003981346832,0.034347901831941474,0.2981030559168215,0.08644966800899154,0.14577888067450112,-0.02849589167592294,0.013765024330426423,0.021501809811194053,0.05990666478016734,0.02322961707204957,-0.09088239980516385,-0.018663773427462536,0.0956691929051209,-0.03888104934468704,-0.0074000479540910005,-0.06548145678260334,-0.00022444922449146084,-0.06854979596596268,-0.0007907108917836738,-0.08825301859493465,-0.0662193511291538,0.013746521708050586,-0.005105436578236277,0.027500201056202295,0.012785653049196717,-0.017988544216056973,0.051680418991721835,-0.02203871918078905,0.005720656291722725,0.0023551969929313937,0.010456835660272777,0.04959973999491986,-0.003231767558858429,0.006497599203862378,-0.032402298092782646,0.03866428679413336,-0.004882283116358775,-0.006847365866935777,0.001087108356492529,0.06131944871142625,0.0030507205966420698,-0.00958074378084824,-0.1405482023577344,0.06906818650541123,0.021544089682966613,-0.055084383176814515,-0.09105524110378051,-0.05214262143767321,0.010621784083194669,0.11828012344531619,-0.03967311885803643,0.014971391347468152,-0.00589383628357743,-0.040185494149983514,0.016065239776497736,-0.003552312880500938,-0.05841333418579632,-0.32830943714245453,-0.32821083482774416,-0.5432831041206383,0.6681476262284631,-0.6469389347870325,0.13741909575916303,-0.09162206496482789,0.02238596410176246,1.1404476262005547,-0.5814477189772026,0.051332344912197056,-0.13856389695309165,0.2709540416561042
34.417850494384766,0.8689002990722656,0.1508318239228808,0.0426581826028151,-0.05616821070952501,0.07092323790446095,-0.11630097151942753,0.0891971139766028,0.0038600914389666395,-0.02458762360527729,-0.02887870550040313,-0.017721074452846708,-0.3574613963252341,0.08638482413169432,-0.029689904494782704,0.09049326122338361,-0.003594076112090866,-0.05487627324179322,0.04803169446915338,-0.10666830481039394,0.061411157993519226,0.0164276276472605,0.04432426803908594,0.0541402217989117,0.08779181296641574,-0.001507405348326751,-0.022724121554699096,0.016853814388523465,-0.0424704303531598,0.013124010840775118,0.0274851366217411,0.016613230114561457,-0.024178755285154327,-0.03156883850592511,0.013015445230198331,-0.003766317116163905,0.001817027164407607,-0.0022012354090309642,0.00834115428233996,-0.001465778997391731,0.04533913019615748,-0.064773237148422,0.06976863595303238,0.030264034247185673,0.02830892250110897,0.08176617784603499,0.022968695829453222,0.015481564522993655,-0.09687966658883838,0.01796667046874508,-0.013307019107340919,-0.032560991648235095,-0.012073002830723208,-0.00869437556774327,0.014880176764041816,0.017398518947346543,-0.057009092793971664,0.009727601563888464,-0.011444853023942122,-0.00895249385257993,-0.00018987744677211038,-0.021010018997465112,-0.010974537609872756,-0.031860848711890585,-0.059465371141235145,0.06462848131702942,-0.0043541804509517334,0.0033579070692317716,-0.08550122666762605,0.0037101779632199364,0.007690520244459417,-0.04723321595136,-0.09216423458294157,-0.0036055851826507124,0.0028851899080161317,-0.036745081327852314,-0.0030263694895784734,0.011408921847249181,0.016499008734879635,0.008367213263808739,-0.03484847159922274,-0.03322895687932817,0.09036655404195945,-0.12689243641051573,-0.2795365577600506,0.015421425065570205,-0.1504364228534621,-0.119888326785902,-0.19327254237686423,-0.45841735962990665,0.5431658275747107,-0.4133213926000265,-0.4232560615601583,-0.062320871367303146,-0.08955667769160112,0.15709451103764555,-0.16407935682625574,-0.2249501130484511,-0.1723432219577844,0.020907908771821058,0.05622288833359742,0.060662303769005534
38.263450622558594,0.9893989562988281,0.05830320528805685,-0.4661409333121699,-0.19246528815482317,0.12875292024826587,-1.0897643543580213,0.10338431985542973,-0.32768683126848064,-0.07813821017957978,-0.08664372325657219,-0.09501831891385198,-0.8512187252862292,0.027540191807005912,-0.2151019050432049,0.024390616682480257,0.4826762094144527,0.5709354468669088,-0.1481616781952596,-0.22751785482583803,-0.9074825486813658,-0.13619416431380119,0.04857954252056371,-0.14834524204479785,-0.10589718890094346,0.05622401230726139,-0.531617818888594,-0.1833803574353406,-0.1842179719607938,-0.25606779605440544,0.2679280745198489,0.28258498833877876,0.11005502432362455,0.2568800847199206,0.02035863441280331,0.024394980789992166,-0.0750159047986542,0.008975714537432872,0.02286331691130313,0.09364910157705983,-0.024025497201307196,0.005825978253533875,0.0985940218146066,-0.04031546282304673,-0.03613002499168959,-0.046782993439529456,0.017909090577523358,-0.036075624435826514,-0.015189820636708956,0.0368823474864712,0.03272000847787078,-0.008441543607732969,0.026771725420417974,0.02928261258280739,0.024299257920756014,0.012519553455787043,-0.011609068101415638,0.009579364488075889,0.012593779493487556,0.002769675139738293,-0.04418093911045099,-0.01944430094549532,-0.018726223517619385,0.01651595577631206,-0.007436540682939294,0.02020827083005486,0.031156016297768194,0.021435148108764682,0.014408647150566431,-0.0010821194934774847,-0.06791785560001358,-0.012718238420569806,0.13252392508121996,-0.05357904427240591,-0.01951843149812907,0.05444491763103987,-0.029296977843581068,-0.03968996733160643,-0.025900284731589906,-0.1504797825515795,0.013198673124173449,-0.11476574042862439,-0.017095504228436975,-0.05737670062869504,-0.010000449905751753,-0.0016975894179221216,0.0207288332442362,0.010830969149809477,-0.15479272622626028,-0.7810671139983424,-0.06367783756619856,-0.24074888159003213,0.6328828822274944,-0.3933547408852301,-0.060743069555694265,0.9086258669011098,-0.022081038338023384,-0.7450737861216316,1.8055659572315836,-0.06653697736647456,-0.33258927148019213,-0.471765227505736
39.25284957885742,0.9789009094238281,-0.4264985631516795,-0.09635261031119625,-0.1287362475926586,-0.05019777411767275,0.0876675816042129,0.21964464809301068,0.005967183451852404,-0.03761912312943668,-0.0150106967698669,0.09408704097681352,0.09344794543773,0.05747822990227407,-0.04973114556283182,0.0046605145970922395,-0.18361034476893345,-0.4383213651609583,0.09271193107675814,-0.057665624498415544,-0.05130435919252481,-0.03461019690577286,-0.004249883176511635,0.03121000555116819,0.08905251137119738,0.024489690053439143,-0.08585960447706224,0.030293398170153522,0.014931851573336707,-0.10737975234576887,0.023924297837712542,0.07064185166936071,-0.007541158867830114,0.2407989574008307,-0.14661965441476305,-0.19514433604549616,-0.033265007655212044,0.00770025981607526,0.06625039282787723,0.005943614111752488,0.047919692832527144,0.029396911521521445,0.020855713297830685,-0.04029815566585219,-0.02083980186946041,-0.05224674797465804,-0.005990066525732548,0.023966981124669284,-0.010275246417811785,-0.011278324063176718,0.0026825415881765635,0.051101100487537146,-0.007399657695946156,-0.037662228043840965,-0.05530018901517069,-0.0005745248669917994,-0.021322119325330693,0.0025968740214600437,0.06484624504332309,0.005728031303807274,0.0281959459026292,0.014063897017593554,0.013801898685215634,0.005070757168059738,-0.03619115036612134,-0.01229482472312235,0.001531674752961126,0.009201742258953857,0.06208471769442674,-0.0070650534149050565,0.015298365101452271,0.00673656548955474,-0.0011539463415599777,0.0645517411689208,0.02314771985512817,0.026110630319576614,-0.08230731800698463,0.01711569221787974,0.05085145893597369,-0.029509043654491404,0.043430705471568784,0.03179010692398568,0.025808922406016704,0.018500825601030488,0.03203132513646381,-0.09987392381131946,-0.004625244270785477,0.036316758476853166,0.29483900886659237,0.5495817739718999,-0.08897884756049806,-1.3432627625241282,0.35292067941076866,0.7421295390509343,-0.64043167718083,0.13544098449503406,0.5099562438523269,0.4809585691871164,0.08008510958533066,0.21071841498034694,-0.07518941002589692,-0.25319349107584255
40.23175048828125,1.018798828125,-0.22189797967053446,-0.07021873850919451,0.3596723654146903,0.07727637612107006,0.0782952284801398,-0.010061123538945924,-0.08447680665520164,-0.044493285722626945,0.44744267496626755,0.059936754340871354,0.10355302965852593,0.07168656239027626,0.11901460430351668,0.01007956467050832,-0.365015431640693,0.12427255473955609,-0.03984103199254389,-0.09300341233450704,-0.2758691764909302,-0.24258280305045402,0.015987430132843,-0.06956541111252351,0.21954439552096633,-0.08659693238818902,-0.015437817074863339,0.11762297441257219,0.13126960922500167,-0.08619170794640241,-0.07175022700094888,0.0124510623879686,0.07003987039847233,-0.007134490213617716,0.05030575487179287,0.018684594172169982,-0.01031079687944832,-0.02301331661706907,0.07367470335487673,-0.022529527781290165,0.005969462442313906,-0.0018397811981702055,0.0018652533773153557,-0.005581350558385106,-0.003501879352484638,0.0007839998589157196,-0.10389812013866642,-0.03548003108700551,0.007339075044781023,0.0016122009570276206,-0.040614642569209755,-0.04530429714046675,0.020201470072165495,-0.026014870654777415,0.04123848553062537,-0.0008536202207738266,-0.003304019793409156,-0.016740813917272786,-0.002234829600545496,-0.02341611163241951,-0.03561834704312529,-0.020629497720641952,-0.0662091109595184,0.01560061848680574,-0.015633618311356824,-0.009151032332734912,-0.04802338052072198,0.009321775853231976,-0.0192884594468936,0.06763290136291701,-0.09122852309199138,0.07519229997276161,-0.04028064360881881,-0.04141668394249955,0.02682321693598272,0.04600196141112173,-0.11957872838843679,0.05231186741028327,0.02285402913892544,0.020083017202520138,0.016870568716653444,0.09504347244907184,0.08216347314325952,-0.008297090856854823,0.04482814543162341,0.024206139717500914,0.028112765185955832,0.007844816641681083,0.09015719504854046,0.48108724359351285,0.15826007558315963,0.3205195729744699,0.07255460881630549,0.08824071117250265,0.6597602563574753,-0.41888828348477547,-0.09167034057840949,0.03586791235394681,0.4643464320674614,0.36760940309802365,0.1967023785003283,-0.42537536557069655
41.25054931640625,1.8879013061523438,-0.231871501223944,0.28665005294511153,-0.2622369036107877,0.011011736649055956,-0.03587384058139889,0.002435327270285688,0.10088876295223596,-0.06027186617253419,-0.11062759044640981,0.06413962339501661,0.026617271281504127,0.05369777106187152,0.04112384169672977,-0.0492243971591396,-0.04669426173807268,-0.004116643537504332,-0.1390784394942989,0.06557839006703513,0.12477186402314147,0.03486770321817213,0.04190217891482936,-0.021268347363049833,0.0013802140163555383,-0.611398537832378,-0.04146305618012181,-0.11965125308003924,0.05668436804517424,0.1167696565221123,0.013026818600856166,-0.07651555364087954,0.05840895472094734,-0.09050433999063437,-0.22154267547188872,-0.0037178839750200143,0.10545827312503414,0.03047124680747328,0.02807668558086594,0.02216595260043134,0.020532460184857663,0.025658272871017494,-0.05608685142918248,0.03641810342353931,-0.01173302380206363,0.07042956075754918,0.07558624758435643,0.010850431532368518,0.08026017016584072,0.019032407271883534,-0.026932223157493912,-0.06373131482829622,0.009025574317867035,-0.03601910234196487,-0.0016890011980990882,0.06464796662142085,0.016050342388972388,-0.05786198327777069,0.05990794432695757,0.01064315154816299,0.00911064451017745,0.0007022500660281324,0.0640604939172165,0.08037524168349522,-0.0038190280542579995,0.06365464867675187,-0.026079135603926197,0.023853867200653342,0.016984154547789003,0.009693375077173345,0.04886019240590313,-0.022588183987509343,-0.010912525599740423,-0.03237491502339036,0.03954965514983615,-0.05629307821013303,-0.008178903191134651,0.019098174670871937,0.020214257214706037,0.013831819537270147,-0.05758448910592949,-0.03191559439628242,-0.006584896968662821,-0.023986195705908694,-0.023937600797538875,0.00954814893050376,-0.0350483844659852,0.028692202139575712,-0.038493233289547735,0.041863392722693314,-0.3318603122178184,0.5249276466764501,0.6199610299554463,-0.14597581437762883,-0.24987747869399435,-0.318627469235129,-0.8817833434759725,-0.2167376510318703,-0.31466294559514696,-0.2102680495884749,-0.035775041964362764,0.09116531501249048
45.12604904174805,0.9990005493164062,0.19858648383122057,0.041942065239315186,0.03830302253926853,0.0075636451263919255,-0.027949743139286658,0.08312812153983466,0.21996731998632157,0.43968269106437796,0.030444196489315057,-0.00990008630135697,0.04106897703468979,-0.12854337864454002,-0.09732919168323058,-0.026273366568982146,-0.10153240595709685,0.004692290017876619,0.10941924584208083,0.03211946065050749,0.030426618348431283,-0.0010491456920443138,-0.11912051438342686,-0.005542164721984037,-0.09140631318976292,0.07342832382280305,0.25239000886605756,-0.09548150580668584,-0.29213589333922346,0.048710967492093665,-0.19032165462577427,0.3699571161359159,-0.04984479889679991,0.23234468887670745,-0.05785452964129803,0.06216543666318339,-0.02627313232661009,-0.0850033161202699,0.0998685282019551,-0.03291711301017017,0.029922094807779506,-0.009539647038762214,-0.05208260164339445,0.017918943915287287,-0.02730798605575887,0.0022980706727647356,-0.010906726800387966,-0.0028317631421336054,0.004689359927411711,0.034853072728996015,0.03897480664784283,0.016732996811754157,-0.05695410583215915,0.033768599182292594,0.049032027866148416,-0.008433430762655089,-0.06542528121540139,-0.06065970748668367,-0.07302273570503087,0.0906502876854707,-0.01807113918386151,0.008342085660234965,0.03935115725967515,0.05836381787087493,0.010263661531893328,0.0047461308673063494,-0.006115504101115298,-0.019028703123492946,-0.0273207266545826,-0.013749207167598435,0.03372424769558173,0.05414897691959316,-0.11253938215351138,-0.04484597106413459,0.09116031502451663,0.03533908678877879,-0.014406024243311666,-0.008203105716416234,0.01172208487607063,-0.008088897172155371,-0.0016119911011874266,-0.0029758142213786717,0.028738987064788966,0.11244889907128738,0.06684384728817021,0.10277216372985525,0.00595815174097511,0.04589633389077924,-0.018521546509177905,0.005530839717069961,0.02213497429400863,-0.31429571277042256,0.08327654766019008,-0.4593642610572085,-0.020239578225016326,0.889113709880799,0.452582639719979,0.002472776579105305,0.10863060863979651,-0.7165797881756095,-1.159831524266627,-0.16018326012127465
46.12504959106445,0.92919921875,-0.3768094996516035,0.04902096349872906,-0.10252866763314389,-0.01523548202208018,-0.0041899255264126935,0.022255288281194836,-0.07107567803472851,0.12236825476494655,-0.07711354290352095,0.09715990989095875,0.19077789830137923,-0.05012884530478225,-0.024529893168819747,0.01465299902467844,-0.04239672964355518,0.01263442769429521,-0.03952238672382251,0.005958063439140389,-0.013906680366706198,0.06375708302498077,-0.0668770220380709,0.0072013436885373485,0.04202985963541933,-0.005594327159339324,0.000879132732694206,0.02182023149296822,0.03051243759921762,0.06882412393720833,-0.027717838360102894,-0.011803967501141818,0.05303194328536557,-0.06253166684153655,-0.012694583166464504,-0.00041218942432982446,0.0006312559707075873,0.07247277136827315,-0.0036143918433661493,0.058468727658395774,0.07994339250420612,0.030592574822591964,-2.6321998888794752e-05,-0.02185201664790487,0.015418712870393848,0.03186130450836919,0.0151829562278833,-0.00030162106974828545,0.0007711458862172604,0.02079663311180545,0.07105878210243712,-0.021443389911403783,-0.059593029577036084,-0.04039443853059403,0.02393436353343008,0.031530334722695084,0.024576404902799234,0.03614862253980535,0.005242910769349938,-0.0056511220484245,-0.012390779971549248,0.015064957340505686,-0.015290090635747655,-0.010114498003231637,0.002818650604654964,-0.06813019695420446,0.0162640493334513,0.025228011518710652,0.02489247558293226,0.01741050910033319,-0.031998423674463636,-0.03614654988917482,-0.05704330737044034,-0.002145212719910099,0.02492930669021576,-0.02472332246916714,0.03035512712966874,0.024103783313936394,-0.050605185807088594,-0.008914629296215964,0.01458971606943213,-0.02424141950027006,-0.052073652217335856,0.08682682563575186,-0.11445085003000012,0.057841664093991385,-0.005531850498045527,0.09309027483873063,0.021913100459237528,0.21826316544206695,0.018155606271906675,0.05602608507647938,0.05795978429505,-0.7101142401861238,-0.18717155695657922,-0.5548435621448399,0.5174850913916648,0.4392676865274704,-0.008728027728764132,0.28591979368610104,0.6218800152018779,0.2725635344442706
47.05424880981445,1.0886001586914062,0.31117277058509774,0.15822545869103166,-0.06289093944559768,-0.12722344843449074,-0.7494495628116709,0.2573334441522071,-0.15236556566312387,0.08589785613017109,-0.06318625643968911,-0.21457777245111515,0.1207590764569592,0.05327203490721674,-0.07844996162442786,-0.038363703975598566,0.24016303643943687,0.040358037182452094,-0.018214306272772006,-0.0248914436879705,0.029840061355921987,0.06636593197649886,0.07047886493682987,-0.02033873540551666,0.06734380716786469,-0.05635471238631346,-0.21148608894425133,-0.11523673959773441,-0.033769179301180674,0.10654172170290396,-0.18540497939901826,-0.00472357293767707,-0.010973574924135022,-0.04279473298357304,0.013585458338816303,0.04196197650913899,0.008539693079113455,0.04749006409494676,0.0032070382823439257,0.016478351227952943,0.0357926544631439,-0.025666163845806774,-0.004923339676698948,-7.925504457232204e-05,0.003486809043151216,-0.03594372505682171,0.041579837208533296,0.04109565790258208,0.046599663925090073,0.018419031060719838,0.10675659619047312,0.08668020432043178,-0.042845526587869893,-0.029607620191255287,0.012747483538486386,0.00546748594528558,-0.04030555700444671,0.08028607685358762,-0.000440385594032805,-0.08116506955198245,-0.028840918613595713,-0.012237825804219072,0.026278842076762697,-0.09064079099218161,-0.015977615335261378,0.029161181690779032,0.03780485864218323,-0.014905494716853252,-0.08207903666279315,-0.03716145309295618,0.04324676618403214,0.036838540546615436,-0.01167173268635939,0.0058834553674530655,-0.07898438998932816,0.00015201452380701795,0.02248080574706378,-0.06948291922438775,0.04363885431953007,-0.04563424943151219,-0.05165170384873772,0.03522378244934473,-0.08894769185132784,0.028712174539121605,-0.050078717604017595,0.007599065493155127,-0.03716933562769975,0.07307064414549196,-0.12111179030072636,0.21632165290065475,0.14765915677226413,0.5221309164252677,0.14641756819351628,0.018729306797780246,-0.34235284170115826,0.5307938784715946,0.20125255254939678,0.44038019105587856,-0.8908569970016842,0.5143417851230802,0.15691439058275874,-0.0793939569909969
48.14284896850586,1.1584014892578125,-0.09556589480913402,-0.38781695557386947,0.2437335971529056,-0.1509310236360098,0.008642412516009466,-0.2907237752922278,0.09908582560474344,0.0443298105061159,-0.27634766808698197,0.24878498364573873,0.30573271755007925,0.00914662938861182,0.1855688338128129,-0.44241541410226576,-0.10041898682199363,0.032474835838165794,-0.033248771365581416,0.09840037274470252,0.5429785371523094,0.039944663379593695,0.1085243579160844,-0.019531913582797177,-0.09746693308826632,0.06970819234230774,0.04013408487178375,-0.07372128319806885,0.049396104013102925,-0.06686867098696608,-0.05769762368041678,-0.057851805565211675,0.09064044648563023,0.09317514587881237,0.0435644118298255,-0.005309654349708295,-0.0015287216787985105,-0.04768670252309904,-0.028102916245496115,0.013947473315209478,0.01477445834940963,0.007353947792688524,-0.005054604175598651,0.02537518751564579,0.001763970082294175,0.02204038071169915,0.01421714048778543,-0.040434709747223324,-0.00011694227978543555,0.005772160687775217,-0.011792046897517611,0.02600336209432023,0.034215972204252154,0.046104200747638206,-0.04708173702682432,0.010922329256161822,-0.04701869430823506,-0.000338068210232384,-0.03229891196605898,-0.0074712541400984035,0.03375672354415319,-0.0034616070214393245,-0.05183362679446714,-0.03449322158800322,-0.09016876016125375,0.06783189399460446,0.06191908971547218,0.05081579692118958,-0.008825413579996128,-0.13788633919382468,0.033423125658306484,-0.066609134314007,-0.14473259785910958,0.10371496782077905,0.007143194447476273,-0.09944030957855443,0.012431348630476256,0.04363889198253032,-0.07215912195948233,-0.0930039758223529,0.06920006348232544,0.04415802089716216,0.06306863693971101,-0.09478316584287491,-0.003228678759242005,0.12060222107509389,0.07226991331485437,-0.09139041956296129,0.0833458021089067,-0.2580869195297243,0.12329437286050197,-0.049492394217582246,-0.2460273891231864,0.47810926017485156,-0.2977407248960623,0.10842834709196578,-0.057138443654749405,-0.31695134174218537,-0.18139614366852985,-0.02506381510361199,0.46693149068478446,0.41757495760798735
49.30125045776367,0.9991989135742188,0.5526840553309623,0.5160157314158608,0.2799564793718194,0.18680697272409502,0.17804619920358955,0.32891425335295527,-0.005875798253119305,-0.6978133712566487,-0.0768810882862111,-0.1294660841077716,-0.23053376104346596,0.1435240679512803,-0.26161222062142725,0.2916535006603805,0.669554764270906,0.2480879585986024,0.2714410099315148,-0.028928509848812206,-0.19784799246875714,0.07399227756444456,0.43761663406301965,0.13258544460865349,0.3904834724117861,0.33203403712828666,0.12896434071991136,0.2745099644718018,0.2845851402837151,-0.01952774223671172,-0.04916942124525744,0.01858339060295809,0.4224653406498531,0.2083512955432428,-0.14242117504325977,-0.05543835239783034,-0.08464475110732068,0.12625383595771267,-0.08627624094836146,-0.035981010666625624,0.016020121920557018,0.013217521919823942,-0.19029254483639368,-0.039810987179924553,-0.37843844633979157,0.28199097221567265,0.4235112778438138,0.14281727130643546,-0.04515220607765548,0.26324072447694224,-0.7994916549950852,-0.40073410259309294,-0.022219213937494348,0.07135687608525745,0.06260259373501073,-0.09821183705330498,-0.3195765628203333,-0.20827719850178322,0.07675309378797912,0.33194363171603686,-0.15586092124011486,-0.16337391526562955,-0.0803067485944693,0.007717040638533151,-0.024157907107551637,-0.024828120963764314,-0.043318435625406035,-0.0844963489430205,-0.026235627393595848,0.013512048166257295,0.11794616164542762,-0.14692816793563662,0.012454380632363787,0.1631109199596323,-0.04586829416306167,-0.07198203763748703,0.07708678501957732,-0.0106865515560866,0.00629654131873015,0.08928002965504574,0.02563727621643759,-0.03382499815619762,0.08065390155310484,-0.03459548527201348,-0.02426315910089829,0.0013458845708805823,0.0494346098437946,0.030128502765416842,-0.02952441378861061,0.05021679789354494,0.07175272698581206,-0.054605523718704155,-0.07377945478682021,0.04637068770496158,-0.2903727780149422,-0.045150489233534444,0.7814271734353123,1.156712713714407,-0.7200951193745074,-0.6486210877494983,-1.2307977961731364,-0.18896890198187272
50.30044937133789,0.9885025024414062,-0.42652287793735005,-0.9770230342992963,0.485545043631895,0.17327782259950536,0.23733882649168705,0.011554992551982356,-0.8443664914227819,0.5870888505745233,0.33247902445108507,-0.32434384963849916,0.7705523602316287,-0.04551211079784537,0.1299573702478991,0.2949337720620985,-0.3059126470336369,-0.18787381555573757,-0.3322292990791471,-0.16805295247960242,0.6428578652696378,-0.6550699370514109,-0.39045997017062517,0.7023167342352432,-0.05147499562215243,-0.501541685196277,0.044243811927706565,-0.2473085274199874,-0.31510309075710097,-0.027926354235569786,0.05377803596772851,-0.3139406986444577,-0.12370616675357707,-0.06231317889690575,-0.0009279967894159887,-0.05262901688477002,0.006550979673376993,0.035664107821882694,-0.06312596650428001,0.06550200852366816,-0.06963316394724928,0.011680591039717865,0.03646007813841984,-0.02702211801626702,-0.055903797623241595,-0.03316902717270622,-0.06954398963864811,-0.0022122513173579773,-0.01763505287400047,-0.0029535191914227495,-0.03238434424818905,-0.03534337115963655,0.02738793417036836,0.024105200731363338,0.026213171205999877,0.002120872848440687,0.01266189442959218,0.021296770042071145,-0.02817904444651812,-0.03094231183678366,-0.07548432985220288,-0.006930386711123954,0.008346657912603896,0.0011130149020899716,-0.001061707335490339,0.013568658317265572,-0.023660587223809978,-0.006960064213729716,-0.028762988461724977,0.026341667166413073,-0.032598380742033334,-0.06492280670480688,-0.08813336227041442,0.004098285149002753,0.029138557949513838,-0.0033586395516940204,0.013208372388705363,-0.0223680496264278,0.08884601116182292,-0.06349489300766617,-0.006078900186594353,0.08794576392086471,-0.1133802756711032,-0.012184278975770303,-0.007753140815813672,0.019813915020799985,0.02038136223231297,-0.07443151198847185,0.0046732687244911385,-0.4492786651543356,-1.0419812046263959,-0.5668831646978336,0.01383298064303451,0.752258239005262,0.25234630136615216,0.18908640547130057,-0.20746876336340273,-0.10905843411766397,0.20884149005114191,0.33362334085867446,-0.3551111995811326,-0.1766122944549215
51.2889518737793,0.9790000915527344,-0.2734987928120356,0.3464394495581397,0.10217209213181125,-0.08913232862432102,0.0047322535651962185,0.10465427525179669,0.1493359245390502,0.15498682017508247,0.00270924526877272,-0.02330998554275442,0.4251427444702284,0.05868811783711421,0.13836296093450506,-0.04101401293761085,0.03132919991953122,0.4197205572576951,-0.17516506850711266,0.6219627725596801,0.2183592532839696,0.30582128144901455,0.2560926133047386,-0.3549296467530495,0.550993064800302,0.5910317916246244,0.462021028644517,0.22197956912449843,0.1603840093163259,-0.15546276728703728,0.19931577768050485,0.03683294556586935,0.10181310601227855,0.06657671570294847,0.247151734911899,0.018402926986703774,-0.06785063153438559,-0.029620218174867735,-0.053758412611272996,0.04725412883152792,0.05747661986468795,0.023482070376511534,0.010021711975753855,-0.08098785429662003,0.01585481895148602,0.12203366779928,0.026556888611212564,0.030125289592902012,-0.015863313221872365,-0.007823302080123445,-0.040024031065209964,-0.015727804305363833,0.0002700308911740819,0.0580175790990177,-0.027553543241438147,-0.03030052734497359,0.04302810562683454,0.0388189158667264,0.06819367243765977,-0.022629884143158654,-0.010112297545560289,0.002418762009516,-0.0053979940743545856,-0.05164245026818537,0.014175949564649307,-0.025591780356932332,0.004506701489645451,0.02879683377032802,-0.038974188726888646,-0.01760344273362851,-0.004440539166948184,-0.032526213262942236,-0.0746320810097336,0.022218165328846743,0.0010058590639461656,-0.02418927568154489,0.02788578756206564,0.02625289874451512,0.02785216570197605,0.1070170168313386,0.025132138941880964,0.02825499909907285,-0.10096123862816025,0.018207763353494832,-0.08900088443505462,-0.05579977904609913,-0.031090773840416197,-0.11396100452717586,0.07170681462887045,-0.0035435080304734123,-0.09394100445765607,-0.4200539786222601,-0.352905142497635,0.3402015856669103,0.48572234824060734,-0.4183106490337689,0.7206420695851389,0.18232199208517158,-1.448666426402446,-0.020766760348913893,0.25948287567665523,0.04548307486818637
52.26795196533203,0.9788970947265625,0.06545322130861533,-0.3828624907502031,-0.057910643582187143,-0.13030849872575112,0.015051695408983459,0.05995213484255925,-0.10452729531401767,-0.14889985322773922,-0.19843126037503755,-0.1528546851792621,0.30646497132031186,0.03186165720707257,-0.002087720938377065,0.08490117221803287,-0.07277906310887487,0.24978543100723014,-0.1875654967524435,-0.8135653389070496,0.6469800061383851,-0.10154890887676649,-0.09294854371283026,0.6272216131274272,0.30760050548030154,-0.5430673163090889,-0.2239969502503506,-0.25636014800599133,0.22316529737398375,0.05283065965774713,0.04605819548054388,-0.12680901802878644,0.32404960753504625,0.2310417098386594,-0.07897636267593525,0.044643739218190634,0.03415320361799321,0.04736945762757935,-0.09378394352799664,0.195926436426183,0.30812092955979464,-0.012155495255523553,-0.036672869102022325,-0.015121594400231942,0.05739218180794082,-0.03872923618708718,0.04203208859879909,-0.04717496110661416,0.01919396866507361,-0.051236571677331796,0.031555584088942136,0.04381039571931197,-0.02487758952274086,0.023527861056980865,-0.050125279797974036,-0.007966054442116084,0.06022701916961749,-0.040925951814136705,0.08935001636013393,0.04203743559650711,0.014536270273648963,0.042174592904790975,-0.019355581230666302,-0.04255874670590239,-0.045946689400129984,0.02864661996682305,-0.01546069776833601,-0.00676719339690721,-0.032638923414069224,0.04100745678997771,-0.07883180002894148,-0.008482607613678497,0.006199335036621248,0.06059755635637908,0.05721689342406241,-0.048667298341941376,0.06617673233728788,0.020381269518038203,-0.07967787766909892,0.015325740809776634,-0.03785877300858365,0.013422705870031824,-0.07093671177552464,0.03928659232858834,-0.11114295040008354,0.006797668320448905,0.10507872070926741,0.17311016131372806,0.16043458329768173,-0.11341239489096626,-0.055308882569148746,-0.18372403245027932,0.16879679377432488,-0.4935316132811827,-0.44819887403907244,-0.0700036337278872,-0.2834671689840995,0.5295368133553778,0.8077302777763347,-0.06431263233971708,-0.13586043162340364,-0.18897878106254856
53.246849060058594,1.0091018676757812,-0.16672559825078428,-0.14748889003393154,-0.5018510245410969,-0.0020747811075677697,0.046847486760667294,-0.09609640537102346,0.016985103788221413,0.041171162763010985,0.04847126713611011,0.07058623605960787,0.1399493662431085,0.04654241931399436,-0.13075287154391296,-0.004887132343516162,0.08384265146058936,-0.04303607888036092,-0.0362881045865797,-0.011663945759483596,0.07258441201526115,0.1748020723019685,-0.037916467476409976,0.0764854804116152,0.12534587981645146,-0.26423370896974907,-0.2303625081084415,0.030497095679704378,-0.033732548201965,-0.04075507815548049,0.09422323419666992,0.0022212094183736873,-0.00562689485525779,0.004714784113243904,0.10450864656780637,0.05062283173138324,0.009080816012509634,0.033121329553424006,0.028049188249321674,0.004391102512081539,-0.0255353300455489,0.02222299597475439,0.0007753453175201792,-0.013161196088178131,-0.08163838094587907,0.10499273005428536,-0.028654820529373792,-0.08605195745237473,-0.0017537823861705876,0.011812142350559886,0.012080995551060276,0.023096051088722896,-0.042266773570436234,0.01651279308923677,0.00899316587507923,0.059767172468003234,0.024364104180466077,0.03637544637580776,-0.06160960519698573,-0.043531431783771043,-0.004937785746340887,-0.01448958065843385,0.0417401167512567,0.016560773317668392,-0.03831662344464,-0.02040111079156264,0.011313911361870543,0.021695624846238437,0.017337195014626366,0.0237940686295473,-0.014741947457394777,-0.01713639452085402,-0.0346998903095984,0.03889081169174741,0.017428063254813664,0.02817939717880132,0.05979708865127301,0.03920677639910697,0.059682567453310256,0.07993724545843744,-0.06460876336607538,0.004189890398596947,0.008646303444122526,0.005601017510690047,-0.03634770978144164,0.05162311577524159,0.13547867507942188,-0.0356645097587972,0.040575012345313306,0.09592174765003772,-0.30183843671388194,-0.8617314687710863,-0.8755995449194595,0.15252368702989172,0.4901063861324827,0.3970650553631531,-0.623664145108323,-0.03708146683477462,0.4178201590329569,-0.15155359840796234,0.3185244882360325,0.14693332800203227
54.255950927734375,0.9491996765136719,0.28301497470738335,-0.4181221010846158,-0.35455049233125585,-0.17872084553237108,0.1359365649860345,0.2351080727872355,-0.07075626469126778,-0.42013083851005595,0.41683851361405333,0.12161114685696547,0.1680725395664026,-0.07474011946968273,-0.005452854108821976,-0.026122827466984237,0.06176900813159948,-0.05019569817503493,-0.014217608690209915,0.0029550520222085706,-0.07513853882285589,-0.23702614845763523,0.11041460777920463,0.0018176235821988013,-0.018295799694340722,0.06530104761320482,0.007957741880164529,0.006231526705737478,0.00981360704701492,-0.031730069881003034,-0.05523522406516414,0.0002969669164430731,-0.004809505646987757,-0.008773024912902008,0.0326830173596714,0.06222708365065146,-0.035686402455386276,-0.009408290221163212,-0.016092134442712454,0.0204767467886073,0.06920221560936164,0.006947392862492431,0.03585302426973352,-0.021356300027219513,0.0545214369281651,0.0009486508505244,-0.001034788426382599,-0.007260937683824973,0.017413442497618056,0.08044453599887359,0.019802310040462096,-0.04475501164355094,0.019843152362347946,-0.036054418320202467,-0.12458889249926357,-0.09194442524393523,-0.04777465792182656,-0.06730586931805854,-0.027960081674995117,-0.006279412533393719,-0.03096737398745506,-0.05110347125962471,0.0288774652730382,-0.036452857171555456,-0.009496375331817953,-0.02082666849727087,-0.029342132098483475,0.00350713370081595,-0.021900297671702117,-0.04453646773197065,0.04377921787191332,0.01899482484244798,0.015355968756737975,-0.004224039674823297,0.02399106206659905,0.02173135077156066,0.049363060424756446,-0.11373989675492921,-0.0058233554892074295,-0.06441802721548322,-0.03529413398810621,-0.07327645027977195,0.06554424033007311,0.028243382481093315,-0.0969325367305626,-0.14369913970244386,-0.0557485868604598,-0.0273467615187601,0.06219718058096233,0.034132295997373344,0.6490465943669027,0.16633268757444925,0.43136732551547624,-0.11336433178987998,-0.23536666086192767,-0.044094235340741965,-0.27424372404312863,-0.062078883910456906,-0.09318480346763156,0.067026734868988,-0.009268011420311903,-0.13764853924764162
58.301151275634766,0.9993972778320312,0.061616397524261846,-0.35951359088693025,0.07904139897651288,-0.07524928393511751,0.1308453752701984,-0.010465238406466735,-0.08433338074888748,0.06289467385144021,0.1900959848236334,-0.03777342195180434,-0.15045378228921763,0.03448701929227442,0.052636838229748184,-0.08135046355246667,-0.0921515518107576,-0.1118034050992476,0.16131833941911844,-0.032811393919653334,-0.47504532068537336,-0.09431392559569739,0.04927033154440938,0.25465419372124004,0.364969643493556,0.435031647595369,0.008915992003684717,-0.030401139240338167,0.08323050901312265,-0.00844979845713787,0.43490795321244347,0.13441738210270165,0.26938714644374845,0.04636715489979865,-0.06601163890396598,0.15407265919437085,0.01804641034529799,-0.03648153291725545,-0.0005480256472742964,-0.058487970372755584,-0.0027070541371221335,-0.015587571871629239,-0.0465934356794864,-0.044395136836534795,-0.0005215174498124798,-0.026937490431504226,0.028168480133958517,-0.0010311857489713457,0.002093138471354587,-0.0015931348457868086,0.0037833970716915364,-0.04007548033507057,-0.007153583784509167,-0.05391453890947207,-0.036683128190001024,0.011139305438677926,-0.0349165511111234,0.05443635824798563,-0.05950345343854456,0.016486103910346654,-0.029418030106898887,0.00847758810944519,-0.04516268440949607,0.021398030099427322,-0.04604651926476986,-0.028032631509512657,0.06935707783432984,0.023279208927028384,-0.010039174609124346,-0.002216570470686084,-0.009751816725885418,0.008131952893167664,0.024814107769567714,0.007994793114791725,0.08981805667008558,-0.03669698582418819,0.030358681181200626,0.05226285810308729,-0.07181125725729154,-0.023322977634237112,0.06180248535208242,0.07873520340141195,0.02020406993619487,0.11865640892319529,0.041808724543497655,-0.07611244370572956,-0.012423326398135169,0.026108493579692825,0.006210327543625468,0.001383574914124247,-0.31680976196027333,-0.7061306201611459,0.29938768639356844,-0.5035369499363146,-0.025580510971683762,0.07124492100885967,0.026430172879705838,-0.6314920864487572,0.5713061142615198,0.3202699883803245,0.9695281280797424,-0.014423850121426718
59.3005485534668,0.8784027099609375,0.14245064631677778,-1.2535144826795934,0.029800881373680893,-0.10442820944117875,0.2320628551439086,0.007074238954496825,0.2311241892586636,-0.03919521072479621,-0.16365816842110356,-0.23504064040449735,0.0470780268219389,0.00479937955147173,-0.10977913789272736,0.030278758014958128,-0.1318881048972455,0.1208074228517811,-0.15094759549227454,0.1338023901076682,0.12349956833078167,0.07738482298603971,0.18735715370125647,-0.3803272425765407,0.05617988853874532,0.32508388191469817,-0.16530467010922711,-0.5320387509967739,-0.06660642227180388,-0.12032070641491353,-0.0025512977411112736,-0.05795398772869083,0.17855883499447983,0.023494277365241626,0.12856947527162904,0.17060372255269,-0.34894288784625904,0.07383066217786574,-0.029902457550809787,0.014566051525102125,-0.036935532061317555,-0.04828994010392618,-0.08158962644279441,0.04714778028819303,-0.054788158893762574,0.005200371916874499,0.000253458028603587,-0.027246521562369827,0.014193468427062483,-0.02339786610395163,-0.004343554880871543,0.07817344629744853,-0.1136622878480927,0.023567544857822163,0.04202971460697055,0.013821468530974018,0.022829126069372402,-0.044559531618733626,-0.05060000679757528,-0.056491483973377894,-0.002640208903864522,0.0072270804916312,-0.0021650242617818863,0.0023671851060599533,-0.013567605089232953,-0.020941935712182044,-0.03409041032512239,-0.03949070529427315,0.03132897876446842,-0.003850507746716262,-0.036118455009840345,-0.010166573020112524,0.025992905990101248,-0.09449040052883884,0.13146677003437995,0.05293046354641348,0.05378702840156008,0.10207054844270613,0.0008717567833535799,0.01005974489542491,-0.059445868471908206,0.013562935773132483,-0.03724530098362146,-0.013427869855112226,0.05341110101575504,-0.06489205651725286,-0.08670635442204082,0.019837213594214618,-0.04003293310185387,-0.011622577731705025,-0.46565893934150293,0.09050740077304653,0.4886191942154888,0.21975703763435867,0.4667531993517509,-0.3777821699902713,0.19446532900988484,-0.20012274819084908,0.714282044072064,-0.08035620858914994,-0.10274594796977773,-0.09888698026005799
64.18515014648438,0.97869873046875,-0.46489912508425746,-0.45606189441930123,-0.10223713855951165,0.15512377274478292,0.13748301986404357,0.0818878751486976,0.06239796406327237,-0.23559449846857544,-0.058374054754873506,0.10424632861772519,0.09458438166842432,0.003342930208023946,-0.06953850220889908,-0.004077592090638248,-0.06788059881710712,-0.04458897362851146,-0.008421659839934592,-0.012830684425672477,-0.022191944031623417,-0.39898515572965704,0.05314019484275281,0.29420330122436394,-0.34459104847672084,0.22634342499011273,-0.06565466613394232,-0.2985547601802719,0.3178478238031848,0.170815244981569,0.3603993451322366,0.24413712393029974,0.05501366676645754,0.04275597856390341,-0.18010778956392054,-0.013698299488109604,0.011922901690730552,-0.052370343046197115,0.028340480899314208,0.03127738469403479,0.0038128678265060057,-0.0039796707739046325,-0.00610314335140497,0.031663044237567196,-0.013293268956394898,-0.04466789422422212,-0.041697814015319176,0.012676795412988988,-0.04330071638029422,0.03633819485155338,-0.003612540023631551,-0.008912727341689472,0.021215855944192195,0.03535296526904167,0.05201633436858048,0.020889676688688442,0.053415260213097525,0.03157165027372958,0.010099226376055023,0.029222628323866188,0.037429291929917945,-0.00017113248223927423,0.02771226046072381,-0.029316212701264378,0.023854986463276343,0.04017081405030827,-0.04504657367985688,-0.06530716862061756,-0.004791012288961869,0.02362067297116952,-0.0709235856873737,-0.10830761974549354,0.023210644346726893,-0.040561027908679465,-0.08028556203020577,-0.04335549084311263,0.07355554903756223,0.06621643109879,-0.007859521301774211,0.061886001513243444,-0.00872050399239828,-0.013732677143539302,0.038787114327652965,-0.017397954441419134,-0.022558908585277055,-0.012784189014364664,-0.13966664871322237,-0.07378293834985439,-0.06790442954588043,-0.29555498837519323,0.39572263030489846,0.7123472458541342,-0.23332960317504664,0.6369651637187135,1.0233506200297864,1.2328032141369378,0.208125941424324,0.4420144802345417,0.2568406235120607,-0.34698559164260306,0.3203186344885782,0.39372528951313424
65.16384887695312,0.9884033203125,0.5759225137918709,0.13791040359315473,-0.07978762544938592,0.04825182339744839,-0.06186389948618671,-0.012718233558222608,-0.2719047995354772,0.18106650778889286,0.13494257256591882,-0.17212225175026796,-0.08613576341763395,0.05425969872901823,-0.08739670378956847,0.08981901513880615,0.14746358339436028,0.14065176879016533,-0.15540301725056838,-0.10522031447038607,0.09159182259204891,-0.0032328285036247414,0.04269759644025076,0.07293875871332037,0.012948336649736394,-0.09222558181690191,-0.03139798841821422,-0.025109907924564343,-0.18077010921283482,-0.07269418894982353,-0.055988463616827334,0.05812029755709626,0.04299793727295144,-0.09036041509872708,0.01074004586384629,-0.06386794790488019,-0.09149350636197831,0.06793335623700053,-0.0315778581960646,0.060205509745542576,0.015149104380019053,-0.03008143836231737,0.008285823008318845,0.041075737529881286,-0.009009332427475147,0.00678456911133335,0.035186809611412226,0.06852558576112078,-0.029197675981028973,0.024073240230719068,0.120013079725563,0.031434590658731144,0.009403244084120776,-0.016160592899482427,0.013168581884034759,-0.05414096958345573,0.005497723920167043,-0.039330262572079014,-0.01361139912758371,0.03087883929110872,0.016205910171607562,0.025803084863852972,-0.005226750586280956,-0.062437783441382975,0.04661773598487677,-0.03871487946762604,0.09237919434314014,0.07296573609812101,-0.028268337552703582,0.05160584470353828,0.07981123929188297,0.05686791782836613,-0.03784038255444999,-0.027317114631324493,0.01426625717334882,0.05937431323611656,0.0056803989903306314,-0.015620325551932514,-0.009188678719577514,0.011695714384976005,0.05554749718252184,-0.0023967936191538895,0.07218198803311443,0.10641748214879522,0.07265228733120906,0.03464071203114956,-0.031354052141757315,-0.049148362752691736,-0.023257208286483807,0.5738982962782891,-0.14729055647871045,-0.09690122323632509,0.034071953910835895,-0.8412445546675075,-0.2689221639022541,-0.22924992329766786,-1.0684670620380214,-0.1447994628093882,-0.5362378110964123,0.2607555817866482,0.4346888492566879,0.23008150301825442
66.15225219726562,0.9989013671875,0.3880932410326654,0.8535159863176491,0.1072807803672918,0.12373281790690746,0.11674118936848592,0.17976556910011107,0.21143855679325677,0.316697352686433,0.45845339987701716,-0.4264347858987177,-0.006787100447171374,0.02659888890361673,0.03452018999985906,0.23040847055454808,0.1200545733113016,0.02441254177516358,-0.017785256047100736,-0.014065734364725642,0.03130004953769511,0.037570376297398345,0.024723821501429433,-0.02251325912111856,0.02126624848735116,-0.05795556287811848,-0.010629722555393491,-0.0665834480108958,0.04473586711519048,0.049357090019980655,-0.1202680550505092,-0.08571199219659442,0.09450804688593727,0.021038897590692586,-0.10945072983814882,0.06034598305878586,-0.01608547329851149,-0.04223285356080341,-0.01402226852711285,0.004674073445887758,0.02359312607261309,-0.02831802541307993,0.07386444590955209,-0.003466571386132558,-0.011391231969575158,-0.0039014512305416524,0.0027570890243269414,-0.06738169089344892,-0.024427571703499157,-0.023361206160782293,0.006481606655753672,-0.004829927450053219,0.07128229230447337,0.027629044525337015,-0.05390080409777111,0.018905187639121204,-0.01720643457819776,0.004379361340341625,-0.042528770993792,0.03186675342728327,0.007453907627802463,0.027279920700218226,0.038168309921254424,0.02554694904187306,-0.015857345217477958,0.008040516059454439,-0.004981133482129887,-0.02333683005177113,-0.020872619542122002,0.0016864637479294378,0.038333763295986485,0.13341001129532495,0.011999021055934776,0.03980848452328711,-0.028653912955157873,0.10719157622492693,0.03900672478996392,-0.003892513919430343,0.08417129815512045,-0.05648537486584375,0.040781601365289986,0.1416243322078516,0.08261758312765131,-0.09498645173336683,-0.04057339099545314,-0.08467523427592795,-0.05424047220370429,0.01057403066542445,0.01049115552011213,-0.06489700666888792,0.8078308781730847,-0.4863933482047501,-1.1383642791966182,-0.059961642805801324,0.3184528325361284,0.8175798290730515,-0.296927948270535,-0.18973413343991308,0.5402776725575538,-0.07175164450184829,-0.02979493963107523,-0.011213639065634459
67.15115356445312,1.9882965087890625,-0.11654415216900171,-0.03993702903123995,-0.004186873783447976,-0.040513051831043714,0.03218690455458597,0.06659121422669266,-0.07281320700440336,-0.018391021845770548,-0.06323803901866162,-0.1104889527926938,-0.06768893073100647,-0.07568554329277326,-0.11887916208694063,-0.05880243095458006,-0.010262316982779669,0.04968158745189382,0.07698226844984754,0.06336293643317037,-0.029497754648504005,0.08151720749344693,-0.06910355818880926,0.006035004226871228,0.019005226339415527,0.00847550044465522,0.008631930693434884,-0.010974627020047284,-0.0496517697638893,-0.0005115753910655656,-0.039710281119309424,0.00307018425308555,0.008001270977506329,0.021809110211631635,-0.02090341753189043,-0.02258924387187736,-0.002405532533933122,0.04289325559292917,-0.0016775253599851606,0.001995738084438303,0.04336835043772799,0.057632972661726324,0.012945342038751854,-0.004198444001914613,-0.005523129433261341,0.0004912472028749552,7.746145674172838e-05,-0.0005991738537281069,0.001655302163779414,-0.003435115179004696,0.061405845328515576,-0.01175216711312542,0.0054116221719625645,-0.03237070282517658,0.04606340058475296,0.003174426388295487,-0.022855050390094316,0.08641985050979883,-0.047489407251419744,0.0004013989823220959,-0.0585634785167984,-0.030641603916410576,0.0049682321705418276,0.018766278635902016,-0.028685824339763952,-0.0702212073504969,0.05913426277213966,-0.039756962918914944,0.00038853057506233146,-0.023215973240220143,0.0506544553166175,-0.00487595730066645,-0.02955359148513762,-0.023804310053933835,-0.023172159502949666,0.018181875789601384,0.004359471962046134,-0.018433318455939905,-0.029064555145918394,-0.025244238455690828,0.07478463584016877,0.04886951728135357,-0.07409407023017807,-0.05435708815981898,0.030118910576427307,-0.06481156777038734,-0.027293427557015665,0.0394054941046529,0.022963964756971426,0.09331209449657783,0.013284906048544626,-0.08306821638707036,-0.4221047234165426,0.297004129039667,0.0691574483077887,0.015564980567121453,-0.34624963482190774,0.1830071592486127,-0.2744800489308423,-0.3996629327150261,0.13051487199456924,0.03276577262819569
71.14734649658203,0.96820068359375,-0.006764130432343925,-0.18163033947652826,0.22742067448406483,-0.07949451218357746,0.1272499086612877,-0.013071882582074671,-0.22634974292359084,-0.06261058697437638,0.1670241856153121,0.051498161807703696,-0.2753803393608856,-0.01502138292681797,-0.08047345170325673,0.06704862026045476,-0.07304457730615711,0.03710471664700528,-0.0760954793090476,-0.4051151301896437,0.290948625234231,0.25572832384558974,-0.03605220673037533,0.027500241856733193,-0.4202439549264836,0.037712986220432704,-0.42805355939036355,0.2670103130981579,-0.1936111370354405,0.050816267213715016,0.1056259716191283,0.057367780513678884,-0.007567418165746514,0.05380686230259152,-0.08119974376357689,0.010965005772882973,0.03270474962312441,0.0163674114783247,0.09004164608109665,0.050731552618492326,-0.0029654898056727676,-0.02493573442340616,-0.028878679016353076,-0.027657037105410787,-0.020526576087551728,0.04727393628469982,0.0123761508633467,0.005053629165142689,-0.0033725211240905823,0.0700485605990121,0.004752710209476514,0.005232587285280657,-0.00568297603291371,0.04368902669013681,0.04170023145176083,-0.10032229288144189,0.07191084614825619,-0.006701419369006434,0.025906567451993684,-0.03547313974303565,-0.000748267801184614,-0.00398331206400146,-0.06824512698295736,-0.048174135775121654,-0.028083351150153896,0.012522016305226953,-0.013364960294451991,-0.012815690738543255,0.03327447824447571,-0.014349116914193525,-0.004433027056116229,0.07550337444626157,0.009751333811747722,-0.031702449499681803,0.00386989553382798,-0.047172131185035465,-0.012723036986503799,0.037812344664289524,0.003121396723716383,-0.02221745062369462,0.009257247716394851,0.02022797104591144,-0.03752265277818604,-0.0923819606182161,-0.028887265496414082,-0.008522400498553122,-0.07976074032413194,0.027883669121800347,-0.02445184119360174,-0.07014825572720808,0.06298681967555445,0.15594584375470724,-0.46709136224419356,0.7901516885133152,-0.048808713228530046,-0.039408410028773266,-0.028612477081031158,0.4737363837845053,0.387452858408168,0.19298151589816093,0.890823215076389,0.18137710304482318
72.11554718017578,0.9995040893554688,0.22508623231655384,-0.32002385995206284,0.14087579985690674,0.06569417428531463,0.118230515146427,0.00011733114664449085,-0.08204448320288577,0.0329017720889842,-0.033741570137382874,-0.20793752274784666,0.11298683061899084,-0.03466450769456403,0.06640392915739726,-0.09956006502663321,-0.09264721202965348,0.07822951575894199,0.03837530852128022,-0.0006597020711539073,0.05548690754561029,0.009076411586263345,-0.035802585340456036,-0.0010020012106587923,0.0363484172893098,0.06052690201748337,0.15594743910003656,0.020200009432954545,0.0984008651013664,0.05882045520556323,-0.004087142437203031,0.0006000921039830626,-0.033716383423945104,-0.03968546424223159,0.06135819290799114,0.03914548352695419,0.03722027168488589,-0.041549601830692076,-0.03845498443393697,0.024957085225113584,0.02225670488766336,-0.028079858384867953,-0.00694235922807389,0.018770673866525922,-0.05636979577494304,0.01122170000083744,-0.004306501304564772,0.002037782730794935,0.0005496846146266609,-0.047677854256862315,0.06448810758343232,0.06812727821307911,0.0007495581127484143,-0.038238144715911145,0.05034984297131437,-0.0521433930070021,0.025454464302848073,-0.030780331273931105,-0.03987311545077757,0.054183742564502736,-0.06319879244756946,-0.039073860610978575,-0.01719169292093963,-0.09949348298945732,0.019218526584969413,-0.014108367798457191,0.05855618271075862,0.046368493079343404,0.02656475502713291,0.025557315918095073,-0.006628600678247765,-0.02933426326210953,0.08080865585697294,-0.007977650024812542,-0.0450888010684892,0.043833312753625085,-0.008265874817579457,0.04428777629795412,0.013170469059978929,-0.07079167429822805,-0.0004302799858919267,0.01766133356394579,-0.12429274094010434,0.02463444265827943,-0.05422652288977664,0.006110913580421005,0.07095891853149264,0.040349790561450466,0.04035265001799863,-0.42957194078750677,-0.39626494820910324,-0.6771420107476674,-0.10690864921244764,-0.5865977085309869,0.7294634950451736,0.11468381049401101,0.08499645324450578,0.44251766179463925,-0.28320121601591625,-0.250225784038567,-0.11517487895664945,0.21286690266070232
73.11505126953125,1.1083984375,0.2736422382451879,0.09411759083161028,0.17683465847301147,-0.00487898578274925,0.16666307166752026,-0.01749098575710593,0.08315640068492888,0.021416183606565026,0.03128690642589543,0.03338340053052323,0.01510463380473345,-0.11768056063784828,0.20236391384363894,0.12749046105756345,0.006576657171721534,0.04229067251756996,0.00276405599570388,-0.0482320914155534,-0.018642728381953945,-0.008414480904042555,0.03904168463061284,-0.023825930266538276,0.031661196652716564,-0.03333439234188763,-0.05121550527350348,-0.04285857456275143,-0.06971856307158752,-0.1688114197360951,-0.15494990141235598,0.029135810600036127,0.15963505704466602,-0.0039090541847475275,0.041794873985620665,-0.011151611350341005,0.043133317555960525,-0.046093673060795676,-0.013350134610979593,0.041967509406635004,0.054522045201992796,-0.06081813007559156,0.04282691022067403,-0.054168689972768636,-0.010449588523329226,0.06836179018961053,0.007377751364071304,0.010848418673102472,0.005983414759104494,-0.01986003331441765,0.04453744254678874,-0.022122925604765174,-0.07162830251384247,0.019403142827945228,-0.025378392801027706,0.005080933409885415,-0.06622048593714952,0.004601761141003802,-0.05266289993164859,0.014751326206770226,-0.03343770690761477,-0.056362898274125314,-0.012474404565589516,0.05601880171623942,-0.00907130708180111,-0.01970752882336674,-0.02837998734533869,0.0006817445881278287,7.735961454366196e-05,0.0017828208278792626,0.0327760534581258,0.00952674666069573,0.045157053240595296,0.028488946438254642,-0.021380676697915185,-0.012919355497157663,-0.03713653052623164,0.015692962571816484,-0.010528717621702821,0.08876419921520796,0.004993523781919057,0.04110914567958095,-0.036771136213066755,0.02449914257665327,0.0792544554116165,0.029168553605073345,-0.25105007849404015,-0.04920402806357477,0.031452816379768316,0.03971206365899992,-0.29582757801397025,-0.05492624099629351,0.08992321135782261,0.42859960506713046,-0.46527063311420186,-0.2350309898686594,0.4622434865351721,-0.19031391565178127,-0.23564576818286623,-0.6375784719571375,-0.16771791304895878,-0.1646780194107649
77.49994659423828,1.0291061401367188,-0.16286036734373321,0.07881893087984278,0.12578094453339697,-0.036480344320871196,0.02344409098715071,-0.021986225524905895,-0.04044543132775827,0.011996701138982213,0.006767150787779348,0.05512539911979215,0.11733599215947667,-0.08119514513835392,-0.013424474553782916,0.09314502387308202,0.007401969137352166,0.08578213346643804,-0.039017848175175826,-0.27656053928198115,0.231616700987616,0.1245844231820894,0.07308287312165535,0.038610480116529095,0.03445132187555344,0.115964079701407,-0.09474508142085208,-0.035808245609065176,0.029882628750035556,-0.16740562068308512,-0.08385037443105889,0.012737022558736951,0.03500377359365565,0.03409060214081609,0.03030066058326806,0.051327685537577966,0.043670427418646005,0.032498126544755174,-0.03273130786450967,-0.03710082551565398,0.06313070347396355,-0.006628023863711141,-0.030868840983916943,-0.004302277181988562,8.628706107364147e-05,0.010704952976138073,-0.03804622394333042,-0.0911418233161103,0.01121914873551637,-0.04627133786272082,-0.0034282287681815238,-0.01836802346993253,0.0184010846925335,-0.028118166384828953,-0.04209723308376992,-0.02927501878832232,0.026285893161178943,-0.05657898692010771,-0.036795271705454206,-0.07262596352083554,0.014814464839117447,-0.046721689658627975,-0.0638155247474757,-0.027315591626879784,0.06493799879312155,-0.006599626436495684,-0.026211322010763198,-0.015007177935637253,-0.02536309012110689,-0.016016364504902028,0.017963350816690996,0.0719581938943889,0.028968502992640158,0.056715525508380174,0.0509350145375235,0.017907903247602424,0.07573699229520364,-0.018640281999680507,0.006212923060859653,-0.009245109516541243,-0.006614663963145452,-0.008729825922169308,-0.07417445278005257,-0.10139845928258658,-0.009923965882727525,0.06946569827190499,0.02091007144228408,0.016050016861296004,0.02176426290232658,0.6460775291799095,-0.4076678572703427,-0.38075543398207534,0.0210086673061963,0.41984252466636895,-0.010733678035305024,0.04219442751934621,-0.5257163382725933,-0.1305498529966006,-0.21769106044879696,0.4807562695970368,0.2616401825645754,-0.2693809876249701
78.529052734375,0.988800048828125,-0.25193077229278094,-0.10118596539183884,0.09534437949413171,-0.07133173080757145,0.3269651669440439,0.1773016441592278,-0.39437628294775134,-0.04765901741138559,-0.049500949372110914,-0.07885820958566706,0.007600570491913018,-0.08900420766069742,0.05926898288308624,0.12133661172822724,-0.013156862362171236,-0.03231376314415896,-0.0340105809699342,0.06152423492736371,-0.02962092405072633,-0.040134554816380286,0.04697946236592153,0.006643090334254907,-0.0878896677494619,0.028465150447575752,-0.055038766076241905,-0.045492221304413064,0.021744026941851232,-0.00840999901728301,0.14566017032089104,-0.09276016989664977,-0.015425713610930078,-0.032717390796263006,-0.03417932752457417,0.029836870367380114,-0.08064892482810347,0.04466280849912395,-0.004262120562552665,0.03677400249815516,0.006760604363888645,-0.043006377755303374,0.03208674955889698,-0.0015131714885082983,0.01373918073969187,0.04175547956938691,0.0006211408500027037,0.012851913790087148,-0.0038732257272352444,0.001104692837066166,0.02071438171744985,0.07392797355927506,0.018139450382348078,-0.05515599314074773,-0.03657848409986157,0.030441326126873742,-0.01718736807717995,-0.0012528399356605546,-0.016217832358875924,-0.02037485398655189,-0.052263725728332905,0.0076461371653057265,0.002403594480042749,-0.0005872959071963188,0.022093628449104445,0.058343850236575984,-0.06152648017065353,-0.024216887734642915,0.047309674440559044,0.01827173049043983,-0.01922833338565247,0.007852129826294315,-0.03765259412788388,0.01781764964031655,0.03450912377031598,-0.038214425512008786,0.038671313901411604,-0.06918437630914707,0.046301382704865945,0.014766139740928715,-0.010711917636847292,-0.03769252204410453,-0.0662642978606901,-0.0069147256923708985,0.01798996221637658,0.012377735186471284,0.00529558338137452,0.09207792338446129,0.000328000353983986,-0.0731364886930168,-0.44965116082036,-0.8026847353680087,-0.12954087928672256,0.6570238139352366,0.5677074589463812,0.5398941597483534,-0.3060099581791268,-0.37615821811947253,-0.7516925840872859,0.6744902540627833,-0.2366849863471824,-0.3379945290642106
79.51785278320312,0.9987945556640625,-0.42696724727921465,0.06754457495550278,0.006228547369627791,0.025097420428132147,-0.05378276029200449,0.14031243786241743,-0.0057066251843602474,-0.09353528733350501,0.10446641746506043,0.07784448074028459,-0.0492974385809004,-0.12273497283272813,-0.10875107274923024,-0.03146173163247499,0.11946754935980483,-0.03654005703385603,-0.018451190095102793,0.028534025948754788,0.006440436824947193,-0.02678302227849435,0.06905182751257077,0.09791318713268482,0.023058303211216106,0.02358084098871505,-0.00872741744071136,-0.03523668283909215,-0.008105284887268156,0.057179822461179385,0.042841521983172766,0.007146697433471676,-0.03767158698381513,-0.0037289833571419275,0.012740935164358235,0.04671115963098574,-0.027176206537646488,-0.04591089414301468,0.05870492231041351,-0.01348964991206097,0.007974453873471232,-0.038656632347507505,0.05197395123980447,0.011175281405980508,-0.03847479453513799,0.027604100080541892,0.02573974559886712,-0.00031564969473155124,0.052787519595679434,0.016750934996253325,-0.010302818954675455,-0.02061646914684473,0.015160835470113578,-0.0311932654733154,-0.014502924492346978,0.06095918267867879,-0.07002977630645132,0.026265650716421857,-0.050752805547720464,0.036462258442667615,-0.042336052763133236,-0.0034439035705067095,0.007099725319457531,0.005544798653475316,0.03172941862132233,0.0079728221406828,-0.015172108650031265,-0.0042866765341949735,-0.06495884288415699,-0.010840697292227676,-0.0528966550919604,0.038098190366441145,-0.02683441586060867,-0.05872930790293728,0.08359492230701393,-0.17219842194511814,-0.10140329126915737,0.00901135932329161,-0.04556027179229248,-0.09273448372664474,0.09924914736492413,-0.02333416113046366,0.008959394761622937,0.005391703303833929,0.01989968325249904,-0.02891861836981838,0.09263610357882514,-0.07331227655372702,-0.09246472787970335,-0.05417660842153772,-0.42457484661620354,-0.15814113032901675,0.7626583189855827,0.1950619903801633,0.16908751555676899,0.5800629198113315,0.060244700025703715,0.1161199944531558,0.30025908787706634,-0.34104442430282306,-0.12187231122719627,-0.20647537737069943
80.51664733886719,1.9878005981445312,-0.16802636009922806,0.13686982973541628,-0.1659246499888155,0.04821717242967666,0.016957044840923474,0.06779879375879487,-0.051052717207228156,0.04893953025329012,0.010960723395221555,-0.009290990958023285,0.1391832188544564,0.00947344015405245,0.046774841833151636,0.02046503161478888,-0.05630846727318992,-0.011583922727633075,-0.0011074451588372757,0.057513859495407396,0.05610927732283373,-0.010784630362895118,0.049495050507480085,0.0737488279460298,0.08330956104532804,-0.0014099980284204483,-0.0762515065743579,0.07092666837760075,0.058982046305219235,-0.13494662240251648,-0.11183263701469982,0.06871125086902266,-0.0718690584617587,0.059333341194170434,0.015799780069701255,0.01618454286627612,0.041898587989058364,-0.0023138794810099394,0.053723806746976424,-0.07242749657551449,0.022636072350636964,0.02038365384915326,-0.010955835391340027,-0.019369922309125757,0.04304084995480742,0.002989761862174711,0.008887924339895853,-0.028897389221540545,-0.005952303648460154,0.003420037318428025,-0.034086728307411523,0.07683095286028066,-0.007509205917906325,-0.014818101115617276,0.03675580276383156,0.07019923883039235,-0.03356024846936846,-0.03878357925628301,0.023776813093172762,-0.01938734348481768,-0.021493187586427605,-0.00023251897649296095,-0.0017803492003577697,0.0030466568160573276,-0.028337236509284592,0.02637738366734672,0.009961444823424015,-0.0012898308514613277,0.033355913778472794,0.001206733454500257,0.028648454574260095,-0.00023258703380823337,0.0708220845274228,-0.024921225683981196,0.0014355096587017765,-0.035015092756665984,-0.06005651797823192,-0.020986818655833434,-0.0015347605051319662,-0.0004374550349784859,-0.00316656887482233,0.046762497775521536,0.009177598509132752,0.0349632734352565,-0.013714324741247553,-0.04303655929219175,-0.09848941104895455,0.06473682553240152,0.06514917066818392,-0.12532266532685737,-0.17289866030676815,0.40222993805737745,-0.2602397625237651,0.2224475242610287,-0.3053138152883908,-0.007534815680575568,0.2241460489343763,-0.05194483293236048,-0.3401471820945169,0.5982057447377197,-0.2892582980675542,-0.15739811177852941
84.48224639892578,0.9485015869140625,-0.3267730092378165,0.12594730672674795,-0.26166497776616726,0.10216616602594983,0.03236455616176471,0.14726036758761946,-0.017936296139445966,-0.1274326234850865,-0.04475026303117433,0.4529935725300804,-0.37895741078198747,-0.15792448690382044,-0.0009955075113488067,0.10318760940080957,-0.05349865788207657,0.2946785294988016,-0.029683911516364084,-0.06689428241340402,-0.7192732248353344,-0.10793035579356228,0.17970785104262324,0.08714219228207418,-0.061836139839073885,-0.29444523182841026,-0.004576416388618741,-0.08174694961439723,0.24095432933623834,0.06249406198352275,-0.29045918442968305,-0.5559406815872459,-0.014681769875398688,-0.12616466186425138,0.06128967651128019,-0.036918911576682055,0.04013931555538132,0.10566207939387663,0.07163329435373796,-0.01935889316845926,-0.031219213753770875,-0.028773524935058477,0.011450145944672627,0.009468359931917181,-0.0007652383279890156,0.0006645202079416438,0.015782694926775045,-0.02015662337973009,0.025681573612021433,0.056684416779184926,-0.04654626083212314,0.0870894875254474,-0.009860611530970382,-0.002947834144394166,-0.05952774236247268,0.07836302002371219,-0.04544642530890483,0.015746031669076593,-0.062470663884391105,0.005491290255843551,-0.03673599513856035,0.012071928283483045,-0.022170496627804796,-0.0830586893262866,0.060961797366529666,0.03555703124985423,-0.037927086437499216,-0.044016641691093365,-0.035943113523390906,-0.04376021373615617,0.0017435010857811154,-0.002115511587523586,-0.004947196421100823,-0.005600137142664311,-0.03881983236400365,0.07447092610017726,-0.047626936347979314,0.005092900095059379,-0.036694790855463635,-0.025913446815817007,0.0037268921412516613,-0.008672443982706108,-0.0004677636401417979,0.07347127554771951,0.006460585729190764,0.03740747539643356,-0.042338140164005514,0.05447147954401746,0.052794954980661724,0.06377350971303863,0.252698390384363,0.18077306878156538,-0.36168076358104656,-1.1721153304807084,-0.19062125680208786,-0.49389478156885436,0.0523185960927991,-0.20965317932886182,0.8128393489220815,-0.20710875510853113,-0.35670403681806595,-0.18971124646494072
85.43074798583984,0.979400634765625,-0.078577103742791,0.030726186789584803,-0.2161039043142716,0.2515048458545039,0.29276599262548403,-0.003221245250462995,-0.0034812058846167837,-0.4270915021333697,0.01714535800581595,0.07766021138143794,0.3995947691558051,-0.23012929058094012,0.003949113277760976,0.06720393408555163,0.32178242644192145,-0.0957450850002568,-0.2766361048124614,0.12656285959675223,-0.008669565691036232,-0.00998730684339623,0.5848711225002214,0.07269794688113422,0.3017878577006062,0.1348744079822938,0.0303952078811874,-0.040687463932290106,0.017075504335542658,-0.05594092357020654,0.21696550249644322,-0.10038877699450283,-0.15507832486084772,-0.06892689259866545,-0.031644159910734396,0.02601263713901822,-0.0793493517952436,-0.027923856502914544,-0.05379844671760528,-0.03181198053812405,0.008053548413554308,-0.03642225782842645,-0.016880252054288055,-0.005994411924421952,0.02761975339072318,-0.02765817065569061,0.03209554525234482,-0.020795835472083374,0.0031585398496263182,0.020298478417776867,0.018224310006389827,-0.006560244686790215,0.0029052181998561514,-0.006740975825497427,0.00020496638288991943,0.02027478151396294,0.005975884966133046,0.08063465500738151,0.004514109895492623,0.05061261167176639,0.043734803341267066,0.006661947294896458,-0.008924261195032342,0.009838946258553461,0.0445333614678156,-0.005411124807323927,0.050065886191099064,0.04126267369175451,0.028251104737820054,0.018135834406179427,0.04903817430804131,-0.005961742086942658,0.05103731107489157,-0.04270042091095174,-0.0927949382613966,-0.0055257383245138365,0.08426245145261689,0.018808320294618822,0.013424591216238584,-0.023574523170241724,0.0005548500654324678,-0.04291400541205486,0.010746861498592327,0.009795851745776149,-0.003249095321755174,-0.041092858080130065,0.050082112789929085,0.009063964585851264,0.07032599284286503,-0.12577967875254345,0.2128368049949051,0.34019450833321374,-0.7208627139619201,0.09903700758573253,0.2589412796223892,0.8291217259232234,-1.09843323961546,0.07219854119255029,0.8833876647603812,-0.5491235429843256,-0.5025427521329346,0.36156149398127263
86.41014862060547,1.068603515625,0.310264034470523,0.34343956620464455,0.37334757266245056,-0.15923104459286153,-0.2858592584098081,-0.10247325410349059,0.0014651129208069565,-0.027872709671753076,-0.09878677443134416,0.09620584451580379,-0.024438758776069477,-0.0035818962937437674,0.09475837041742827,-0.07561399394709145,-0.0843189417372353,0.07173314341656785,0.033003650489842086,0.03352391957189078,-0.0968272254290832,-0.02684977735961261,-0.12574290734587418,-0.00440825432333982,-0.11407993651807993,-0.011785679151567113,0.24863251946141268,0.04282729483812815,0.22251098164107547,-0.09166133283964276,-0.08590307128432842,0.015760690821006246,0.00799269089768416,-0.04196129077474468,-0.04406841199984988,0.19920195814858016,0.011973809180747572,-0.06548470973042846,0.020668843494494812,-0.0011315519511258532,0.007222357559699395,-0.030306359199106698,0.0049889473011752936,0.003767235151477956,0.004034669840920612,-0.008785970683050481,-0.03820320894499557,-0.034239941355555976,-0.0011258818683043588,0.02680420953469132,-0.03529946511452559,-0.008065211987964767,0.03645427276538912,0.08460937923105243,0.04123380614283456,-0.023673421668630287,0.033068688564631986,-0.012875309940139905,0.008713285953725962,-0.022168973027074844,0.05264167736777067,-0.016200578275537413,-0.06444010220293314,0.026388116437734338,-0.027079856503235245,-0.06004224412172322,-0.027982146936343114,0.026770036799478075,0.01750273589319129,0.04191921086335119,-0.008235081816790935,0.08975025273743409,-0.0065840787459843005,-0.0004581078100841067,-0.025143661575924462,-0.04163392014350514,0.10531782685454631,0.002672243658959718,-0.04189635029668335,0.009084740180942746,0.04345405450997919,-0.021706039611469757,-0.061242902212161165,-0.004033690550827238,0.03721407001626234,0.08484892473078938,-0.03765239881110517,0.03835307065103624,0.04002062678669402,-0.1219913327245044,-0.7885177713154217,0.3410168045607691,-0.22334276265627262,0.15562866494301203,-0.41198037334014637,-0.8469671437820085,0.02908792856857232,-0.6228951078603363,-1.0888045647768019,-0.09839641066885099,0.01152165510651268,-0.32281286559196304
87.47875213623047,1.1789016723632812,-0.14425196169779436,-0.39258027541971974,-0.28831946894887023,0.00013103779499333145,-0.07276199148233203,0.016218979966756284,-0.04754990365623643,-0.00707191094290608,-0.05787783669441326,-0.20068364479935108,0.10355657936099202,0.10697067692096315,-0.08334952564766729,0.20649732680692903,0.02843472373404863,0.007787016630341461,0.03644858198627463,-0.10449649765756266,-0.021923556249325904,0.049828430729473495,0.00839585522483586,-0.014800187083825939,0.06584020741073883,0.0016436701314504443,-0.024290417202633925,0.09215620174684004,-0.0018505042429062355,0.006835340359631798,-0.0016187682595416293,-0.017983019355070354,-0.06305266169435586,-0.0037146246600768314,-0.01615368861733376,0.030100384012913692,0.04139717727504854,0.016017905305813304,0.004949238071102292,0.055063317422712074,0.06187901366870695,-0.022152068127693943,-0.047493640795237616,0.04703592671901379,0.01649563395032436,0.058012077695658595,-0.015021640472485455,-0.017601622318015413,-0.012845473791120558,-0.03494461862999976,-0.025009273316617817,-0.09211964475130997,0.04773539131693901,-0.036231741474101804,0.03361303831086769,-0.0033919399591475167,-0.024508244124641112,-0.0009571472541121829,-0.10502633604547618,-0.01563571244163383,0.042358260811230036,-0.05506186495866487,-0.00031535054961518056,-0.09210237553536693,0.030259747637943323,-0.00464124597474076,-0.037614303439555845,-0.07066387256250159,0.10401705414437629,0.0205405826010149,-0.005729640632612018,0.0042953517695465335,-0.05792597430184898,-0.05760131290975398,-0.0769236533523149,0.015978178412459586,0.05932959289783023,-0.08345443324131299,0.012075995893980533,0.043498911429280654,0.1639809882381882,-0.005321025058848711,0.05716216348241167,-0.05692288035670799,0.05219767022546665,-0.005281020115668106,0.11734194832787062,0.013367532291585812,0.22480965231473718,-0.0039634421383125396,-0.07132669996107274,0.26224871813170547,0.16424534725148424,-0.09120838795007413,0.009794253751317107,-0.07267440783708859,-0.5585118002267081,0.4769741461535366,0.882209162821646,-0.644349647317834,-0.5711292856985197,0.023004622495072097
88.65765380859375,1.0088958740234375,0.03697168259869063,0.1130315566152815,0.183088032299781,0.5430171422150103,0.3408217102817046,0.19367395646917598,0.04123852484618427,0.21081537622826435,0.22853590625661785,-0.5191104153162678,0.4580457211081053,0.564450819462161,0.022759244971702647,-0.053642901888050765,-0.1722655188455508,-0.025031616067315385,-0.01719858061573409,-0.05499871953773047,-0.09966346463253539,-0.10244951286324551,0.1793420576516947,-0.13352263653928814,0.3374371151928274,0.15671877122934375,0.09838137607143362,-0.24868857841200867,-0.3714924183438399,0.5386530991166522,0.22353794716926534,0.29747067221619494,-0.27375825495025563,-0.8554922040257104,-0.17416913791883704,-0.17185792271260458,-0.32454868876934,0.8216317930799744,-0.04263088177928268,-0.060484312670665404,0.1970692897166661,-0.13206745168737066,0.10782237905202105,0.18951646857726298,0.1012786705575971,-0.04728199179166791,-0.18796234269364762,0.3325523076482571,0.12746259838642254,-0.2872559752229348,0.19236056552829447,-0.10525494959394786,0.30097921395949034,0.06575022253109457,0.7911348189417997,0.37718124024858046,-0.2745878970787953,0.5182662883037806,0.011307985703772387,0.12795003537578853,-0.0464236408131799,-0.07243482494450444,0.21817740706552718,-0.03140548008834575,0.02709942507759851,0.13662685736238772,-0.01859367897478992,0.05377275206231726,0.04228838248675288,-0.08883297151822668,-0.18102681308942722,0.01841743175489243,0.04524358019887965,-0.06034150478855744,-0.032292977129696726,0.15129008901764968,-0.019617674530135132,-0.032311121049085054,0.13507376199902868,0.12070639791664267,0.025999276122883858,-0.03353169724110702,-0.08059296909801825,-0.0007516944125820822,-0.05371283971483814,0.015415782475847947,0.10132302900244024,-0.11190914110827767,-0.018052314073596885,-0.0825000668491762,0.00364243710735504,-0.034764751767956646,0.2188660132354298,0.12279838521918054,0.15760274026717203,-0.5198047959247634,0.5095047755771768,0.665568020453343,-0.7673412168279079,-1.0027730715986958,0.5407868886964572,0.5939289571290535
89.66654968261719,0.9983978271484375,0.45123524779753293,-0.2926249868275301,0.2670584748603533,0.21711648500243802,0.13788334914160064,0.0896661807453657,0.05936555948116234,0.5444175977330105,0.03332591602424337,-0.24090223855194093,-0.4438029449513984,-0.2346266018661149,0.17574341801746854,0.2888556865075158,0.10021816022568394,0.23570162839478181,0.2579621579853079,0.06610223211887066,0.3584983754684363,0.13147218605008082,0.01984764627136683,0.45933594600524896,-0.15598088522687995,-0.12694532104094045,-0.1298126129432193,-0.05213550482900818,0.032126632793131216,-0.008057823205026689,0.04922630129633796,-0.019560268022905985,-0.08448048058293091,0.04691183469873972,-0.003584561040574355,-0.00627475636513114,0.06688158130329316,0.03465330848978402,-0.012551416278747021,0.031440516493452565,-0.03844427351665457,-0.024044682525664867,-0.024150412718250604,0.02699625702875466,0.011190413597389877,-0.015807575238377003,-0.010106593351080996,0.016737175987776923,0.023556310582225112,-0.004726424239444299,0.04664989803769972,0.02571842815208688,0.003700989292812276,-0.06242197045957214,-0.032748630894611344,-0.0005144013839306644,0.007973297871464944,-0.09068311410114437,0.026700681559687234,-0.052776949271785015,0.009038630069542777,-0.008117935094324426,0.027091510790476614,-0.05991246843143804,0.038058175855857516,0.02938787281452027,-0.016043757653376088,0.015896037139686146,-0.03199448475892977,0.02772459395225253,0.0011657817684859201,-0.08072653885238033,0.01046359669491717,-0.006172460857828635,-0.004957205939239184,0.09278866561681744,-0.11382150183475492,0.004623814292750239,-0.054367601640108267,-0.05592819553009357,-0.09951866667150196,0.02656767525047581,-0.12438796870900694,-0.011202411180770228,0.07009884233564748,-0.001368578799222155,-0.07656821316495051,0.003823363604500519,0.034424302104651215,0.3636188696779814,0.34293965319007397,0.0889440618897701,-0.09153655229454498,0.1747465237037787,0.25827783372791735,0.18034716941532025,0.09353656363609364,0.19070911977690264,-0.26301925868891673,-0.0102070860224244,-0.030073437094100444,-0.1884480274953186
90.66494750976562,1.0293045043945312,-0.3638625502234065,-0.5731412175847579,0.0868485617224777,0.11048648369077867,-0.007221041009763831,0.07472716777965198,0.03645307756547869,0.009235911327701421,0.5333337379800847,0.23476332711009001,-0.25681741449151274,0.09129050289843461,-0.1638442725160168,0.12939753755973205,0.3107834283906415,-0.008962612097073913,-0.02567926950835736,0.1751738232641167,0.10066607287743624,0.0418202011809599,-0.18507434737696252,0.0060163077258968385,-0.004220474598825791,-0.2009397944122033,0.015493140148717,-0.009522285225969986,-0.003987516322995702,0.007223777232579543,0.06548274774998794,-0.026610730398285754,0.00416681349001857,0.01655474423963385,0.016391747149107884,0.034219632861964305,-0.0074414499041638915,0.005369442330954738,0.024464619564673593,0.026555190999225254,-0.023360923836032322,-0.04345534191235707,-0.05616372553770049,-0.024901295013159255,-0.09459089796476872,-0.005235665418917591,0.03588267998045442,-0.015528544007792633,-0.08342208722732938,0.00945532854831929,-0.024188198754234384,-0.06275458000044866,0.03190601763068949,0.03103470548218122,-0.03845796615607937,0.039081299841030814,0.019460966857989967,0.021133340351219387,0.044721163500419644,0.05304319154735995,-0.0030675810687525664,-0.006129954967354436,0.09372181328807216,0.02798699325576298,-0.04008426568639617,0.017479194938107918,0.007678116210665765,0.05805148082515692,0.036271996780620056,-0.009042333193014673,0.01734687711463823,-0.17542190005070069,0.010810086775282737,-0.010256622392426643,0.008926272146279467,0.04273790997504416,-0.03575611882541409,0.03546321252158162,0.0877760957720407,-0.0455652143508463,0.05239135376113238,0.02855678165847606,-0.11971411939568832,0.07200645240195051,0.08204297885344398,0.10937532351509648,0.025098123179030082,0.023381934684624156,0.02688709343350213,0.0958281637104097,0.025109556233982453,0.22364483254397294,-0.5853535271731564,-0.500830733012856,0.24638701173726202,1.001555330376132,0.0944887673506214,-0.154368361402488,0.3600766375392521,-0.06121056788818138,-0.6775650768628141,0.07101184174237557
91.69425201416016,1.0388946533203125,-0.10569736706072924,-0.09910786044865037,0.13067246428717866,-0.0003311941679838878,0.13623199347175874,-0.21862922078954758,0.04315731303927729,0.05151795331972008,0.0016729425368177814,-0.03782589737751048,0.07176121055485694,0.089960365693557,-0.002925622550462784,0.06220988362592193,-0.03765176081098495,0.07588816571797831,-0.05820599080407045,-0.029202811836224696,0.009720876431536766,0.032821568103032904,0.003501806186788692,-0.04071456515826023,-0.09584140697683143,0.013330741339777222,0.20510659777473622,0.0025741312902119945,-0.03635208071365562,-0.027159725065957038,0.018238198313512585,-0.008932332563631332,0.0018592801986442487,-0.04973917786292868,-0.06878343289771016,-0.013139689121564173,0.00904405125656147,-0.12421044859040664,0.004939103297459932,0.028287839047725444,0.029375753622455404,-0.007178504543624029,-0.010734166407617155,-0.03224461818028938,0.0008241803349621837,0.09018724466364604,0.00037888006582359235,-0.013588484358368891,0.0005399587462163208,-0.06090263877041688,-0.07638269729376809,0.02048604536567171,0.031230753208059528,0.010575077695605025,0.017963767047293893,0.06759640789506954,0.019460656038898745,0.0927883967396659,-0.007280168571274337,0.025887088416265375,0.014471975538523838,0.04164397087426858,0.037118041820685885,0.0032316018747137326,-0.01475206567069624,0.06423185569684962,0.004445716037867781,0.03752581872567588,-0.035170632301895766,0.02801556021465712,-0.019313345666795566,0.02032936266771982,-0.04772645127040124,-0.02414910760794504,-0.020249996153275593,0.09514433400479479,-0.023874096507521883,-0.028338354631020697,-0.06622502794974322,0.03951557737734596,-0.03366231233143882,-0.019203619975683362,-0.01122144837121761,-0.04546281685782649,-0.05668752709964587,0.0513304230180291,-0.03389049547411377,-0.0012663523838865342,-0.02449823309891528,0.0035155044866328118,-0.12279149605297962,0.022639841192492013,-0.14647643755244727,0.2100618118916143,-0.2250589142160146,0.1934533201083781,-0.5074735753297165,-0.4580752263300784,-0.10715484422744653,-0.5250727198079973,-0.10854795592091551,-0.19550058515231053
92.73314666748047,1.0387039184570312,-0.02039346082703529,-0.36872278465373004,0.12227863549219306,-0.10801227223895693,0.045996338721597974,0.04176056810053755,0.0988560484566794,-0.0363350447367033,0.07582607523672905,-0.11257982758311133,-0.00812642390768649,0.2861646789586335,-0.022436766888395642,0.05730062279244886,0.048352927643958404,-1.9695228230021816e-05,0.0002850533946009802,-0.04865752592840307,0.031017839004466835,0.02573907778054259,-0.009774470514995907,-0.03616247052947028,0.03363959966924093,-0.0026199544077371,-0.1092292643806914,-0.09462478141338844,-0.07526202747339392,-0.04470799211284473,-0.0113017967811918,0.040044528619997626,0.008966245501726785,0.0012722298786242703,-0.023434769990740834,0.028982511915240875,0.05610973246273737,-0.011838114693389946,0.01847669206019817,-0.016505911443899447,-0.03202869254602966,-0.04571783565350576,-0.04813195377764609,0.003789788772331798,0.0009345939006067743,0.0692338697385324,-0.002329132222238876,0.01360290193069642,0.0010869126393486105,0.0014137618564740357,0.0306248947959612,0.017623120255500807,0.04355427953979234,-0.02393610382927734,0.025355186373463713,0.0030038449230416764,-0.011495233403644292,-0.005571502404835282,-0.045673855733360275,0.0035203409639153757,-0.02616370207500202,-0.008649583248750996,0.043723547497575815,0.04439540460930101,-0.0007881460946419924,-0.06137319947146422,-0.04480042846219581,-0.07361936033965188,-0.01792954408445834,0.03841786953755886,0.029055501734253364,-0.02771219746846914,0.009777696084094754,0.08516844523977976,0.10007092632363301,-0.0075510439815554406,0.07640674122995786,-0.031932125414785247,0.04984714820753232,-0.02018307767127977,0.10459516696411975,-0.15766765368803437,-0.004136551506112108,0.06745102769658066,0.0020039173004711072,-0.04378277481641911,-0.0559776977313383,0.07477181070944358,0.031218377187238595,-0.10871012757547728,0.3737639347093493,0.4244137402305835,-0.10569270672517803,-0.004605116278898452,-0.3284086134181011,-0.6178134154040652,0.175860037179484,-0.4930234445742473,-0.06346222783325503,0.4654149205860373,-0.45902321427975407,-0.6293067515398135
93.7718505859375,2.087799072265625,-0.5923438895688379,0.21791601147369977,-0.0974531067856394,-0.2624932789818326,-0.32039456154638046,-0.27174797879789003,-0.09764780503800906,0.13824172843123647,0.33903350543067245,-0.3550477805086786,0.03934284134875243,-0.011261002640224718,0.09093324970849366,-0.07267182221563759,-0.011509323082723394,0.020676032948381412,-0.01331751171397523,-0.07055641509999422,-0.03652284552898352,-0.0871927305314245,-0.166616905335584,0.0034206597899850873,0.14085299171554252,0.21937479317007685,-0.014073944094259348,-0.15915692962245773,0.0203622203182987,0.12951747559104929,-0.0014502454718762488,0.021307279415180843,0.0624072380664905,-0.010371303623143957,0.02342665266584028,-0.07068785809186628,-0.019105338645370423,0.006770361219211712,0.003503068433843501,0.050639695495608456,-0.04582281539092993,0.032280734411733035,0.032634044906015874,-0.013268583356623065,-0.07575555486764118,0.06052270374946191,0.03182644570977465,-0.004081690392066093,-0.014171661185844817,-0.04722806674988533,-0.033011457241879406,-0.001977222224132727,-0.0022015766312335296,-0.04072415029181144,-0.05895670589932829,-0.042186661460875574,-0.05035595112934242,-0.036232578441724256,-0.024948788022924204,0.041963790477116056,0.10315766825013858,-0.06822382944992736,0.02790052688028788,-0.057331722189121505,0.023752526115006445,0.06588020570948125,-0.0010366453326218232,0.04887966108977449,-0.024175406441711848,0.009433704846158679,0.0071264541275391086,0.0439081244951731,0.009286123606459327,0.024540356702936403,0.04548974652405458,-0.00542659872779281,0.021349519209012152,-0.012589311372220333,0.029800516373910776,0.02507308769010902,0.02368594184492952,0.0008185450165735658,-0.044467466805198926,0.0176768414155923,0.026268847716987412,-0.012982371706461503,0.04980056947114065,-0.02869880995440005,0.018105439079600077,0.034461920677807546,-0.2521983649825818,-0.14555866225345843,-0.1961954110555443,-0.4276399085685613,0.7114542335754117,0.28932045392387995,-0.3895303252231962,0.29234258881927994,-0.042228726271314104,-0.03465434227345433,0.1694151036467331,0.16377012237339034
97.89745330810547,1.0587997436523438,-0.4831459152873929,0.0077473082490804035,0.1258402247492964,0.0276069552048048,0.04259098847943774,-0.14316212747299176,0.01650257346300557,0.09073555784134908,-0.1262865818427299,-0.701770704171395,0.029544521552841874,-0.024259083799440775,-0.10551852108616888,-0.0018275318683371948,0.009825101525845212,-0.09767223852855744,0.059259555851925244,-0.015589876210721458,-0.021284066814765412,0.036229113325935196,0.020475598472559614,0.016785461631937382,-0.0053255795774093985,0.07554287947269132,-0.0034427497867664464,0.02603962531296363,0.01830358017743292,-0.051822630024540385,-0.0618800868614526,-0.043143543654759864,-0.002048555287928207,-0.030291271000008425,0.0030836170368626777,0.002349976794794478,-0.00625980515158284,0.027208110008778857,-0.09136172625048243,0.039975820506843576,-0.015674380555944598,0.040166562183029636,-0.0821406633677566,-0.026491257629234956,-0.0738615605169032,-0.05910544650466721,-0.024855921327731213,0.014156804512352576,-0.011172814583925252,-0.0500120753023089,-0.010928264375867119,-0.011062690520943452,0.0011007836047217676,0.018302136010992523,0.055833085882317876,-0.032374326320378614,-0.0003858435448027052,-0.042414239016183124,-0.05071631055019035,0.09232964476488648,0.050787502581322586,-0.023484957489989244,-0.011525888243509565,0.025275765084516504,-0.0021561576402617287,-0.0465231907392451,-0.04441356338493213,-0.048363384742845475,-0.028645236620866377,-0.057695972491277565,0.05718850710764253,0.011375291449589004,-0.00018080922281394718,0.031520915804916144,0.04183605902375439,-0.07554078859724012,-0.037579498513691835,0.0745119234166919,0.11227686406737458,-0.045536181326476084,-0.02807890399764375,0.04341530056817324,0.07122127444187838,-0.07348885117298928,-0.06255536074806788,0.10069625349943839,-0.02311128223465107,-0.027527523233822453,-0.10837149388835503,0.04902161145231338,0.03936932487365569,0.414257454152692,-0.08748970089675463,0.02701025189157257,0.13563081402608246,-0.4987739607574082,0.06707376569951141,-0.49623213335869043,0.5274568066360567,0.612924870826194,-0.21660148007259472,0.23534718545422317
98.95625305175781,1.008697509765625,0.2460201115035257,0.04940850802496906,0.013603077474746733,-0.15529647680972544,0.25386399245432717,-0.2794241865957713,-0.3355518969473092,0.13371553515907394,-0.037516173694633004,0.2483529617489815,-0.12086867986834451,-0.08091682927145574,-0.048871353522231285,-0.020328002742931235,0.023637249966078293,0.042795903148152056,-0.04561590720543025,-0.14907307336472542,-0.2747617748153431,-0.3288989031813798,-0.13788189622947042,-0.26527228227393423,0.027448872703828526,0.004378623804426731,0.003778829082831574,0.018478555004161363,-0.05188068638513482,0.049859446039072455,-0.021288552979981366,-0.013823579105469408,-0.00791108319210296,-0.03492978140510636,0.04401158026288779,0.0045882096606270194,-0.011472710343971848,-0.09434567259703017,-0.08581519237558126,0.011860964948247253,0.04533739474176135,0.02434236352873348,-0.016181647595890185,-0.05462277933818188,0.06649391922754537,-0.007924782300217748,-0.014660668581080998,0.012688130707125125,0.01230516490734642,-0.04286836969229216,0.038937272510675795,-0.009618552288209924,0.005343768052515102,0.057927124428673385,-0.02481623407442602,0.019944218276127808,-0.06549125002715067,0.05029028026917046,-0.019045128024444007,-0.03672873053067357,0.0036093933375548723,0.003853016376265944,-0.03057511168813751,0.03994508855308415,0.046734512620189184,-0.009267213662508544,0.002688672939348916,0.004592426913292431,-0.023859609672479826,0.023064122266088168,0.025030214794187534,-0.046563329226716806,-0.07934665097380184,-0.050774175315350716,-0.14207029612404437,-0.12514121569734712,-0.027083708999424763,-0.02866330687787935,-0.0204063752395668,-0.04386778625240227,0.052024132271845436,0.008773121419188068,0.04119738653822941,0.09472258246237722,-0.08596363917700724,-0.13797849911209498,0.041798486083621654,0.025068827764572713,0.010587668359863625,0.0073019721488055645,-0.001996112682693287,0.14300512802203785,-0.4214853931797345,-0.10780606959522411,0.05550005112063951,0.2044530733089826,-0.09063944376717312,0.1843985075485109,1.0069553929399142,-0.34275451648428984,-0.009115169517313212,-0.28110726569822053
