start,duration,0,1,2,3,4,5,6,7,8,9,10,11,12,13,14,15,16,17,18,19,20,21,22,23,24,25,26,27,28,29,30,31,32,33,34,35,36,37,38,39,40,41,42,43,44,45,46,47,48,49,50,51,52,53,54,55,56,57,58,59,60,61,62,63,64,65,66,67,68,69,70,71,72,73,74,75,76,77,78,79,80,81,82,83,84,85,86,87,88,89,90,91,92,93,94,95,96,97,98,99
6.357250213623047,1.0189995765686035,-1.46387381437959,-0.07190861008538225,-0.16158137990722643,0.1540013208237934,-1.3868103330330588,-1.5554064525188125,-0.7522396999092492,0.24526255745626716,-1.61485327321453,1.3015387619280174,0.1697133747134572,-0.7922410776836158,-0.11400843043497283,0.14746114913608271,0.05586193364593102,-0.2245157743805669,-0.12739660110010587,0.17628865819806086,0.6302179969965082,0.3486928618358528,-0.22897677245669323,0.11565333540107028,0.37361266903043605,0.26732077821658606,-0.16351067728355068,-0.12095385015682564,0.06726321874085223,-0.08382503545295832,0.09198859021763416,-0.40095612983400597,0.2873649317798623,0.06329832275576261,-0.025726698531105395,0.009006453349768921,-0.06428243080463618,0.13952182671781824,-0.03139645802354529,0.03290688696684298,0.025871808412084727,0.07412312261984635,0.14170057419395443,-0.22607839887157172,0.08785539800036592,0.24975961154373194,0.045448066407205986,0.10278413407451048,-0.06904169933630358,-0.12082809360004637,-0.37379419022963795,-0.3326095750212453,-0.20131582794339425,0.2591137302784792,-0.14653411716262116,-0.07185175664676606,0.21279038267293776,0.07776909339236839,0.08310481684505222,0.01613951618903726,0.036289977920391084,-0.03266442598882648,0.017193450138085334,-0.390591165993301,-0.7969950088322993,0.031049831384548365,0.11932367567351224,0.16112496200201942,0.13529778570885614,-0.15371130464111712,-0.25789807393015435,-0.03334713805119942,0.709486553690086,0.012972702673746214,-0.5333603387106413,0.19212624516521595,0.4853902939482478,-0.48465055320452133,-0.12576257640464097,-0.2596124797762751,0.14364610275530107,-0.08614640179649435,-0.36937366586297193,-0.22438820116014607,-0.0248378396043486,0.2972109702126384,0.5283554117273392,0.1446324523014316,-0.07362455731369538,-0.16396468868882985,-0.10734648539516103,-0.0912438881818246,0.9219339909244715,0.3296703608154087,-0.23765321829596828,0.4626273277962796,-0.23651351653900965,0.29240642146762014,-0.34920307916064725,-0.052909810447263325,0.09098406719413318,0.3698885291321663
7.37624979019165,1.0195002555847168,0.5695421658769955,0.7724933656615542,-0.023586041271212506,-0.9628182906803998,-0.41967292074330365,-2.081515966107182,-0.5991129863728802,0.07888855015321461,0.25217434742237577,0.28729414446153156,0.321354492689269,-0.25543919391880515,-0.3909153776902132,0.09994771449546863,-0.04358942652657191,-0.1242479107862946,-0.07793334020762901,0.03594505804915094,-0.00044179377831257244,0.08341226383129208,-0.048390263150304355,-0.06555731461356651,-0.03596678262430768,-0.07121752692500664,0.02902044566362857,0.03180988700264653,0.021079832138220674,0.08157325156035598,0.03641836610188333,-0.020861353966357805,0.03985515911855988,-0.07694092059352861,0.06159779139879562,0.06948320985505599,-0.031329499884733616,-0.11654962533831366,-0.19427159259169174,0.07156292642754017,0.12156774964629019,0.08162884534871442,0.19521609672299298,0.050489624135242286,-0.18213259486243408,-0.06951866409218725,-0.3286321112202866,-0.06685948024946141,0.03227210974750198,0.18867763181493047,0.17153602521313283,0.16372868440951843,-0.13249288835792142,0.09996974710449523,-0.35389232964891326,-0.05046032759623814,0.10244622335902899,-0.09911678407762792,0.03193188696598408,-0.0660188729050739,0.024212432292778044,-0.029413633839985697,0.1431578712330808,-0.16099395505905426,0.05952391294384515,-1.0802758045329512,-0.5086920149487892,0.03241368775691604,-0.10452771253450367,-0.06531806246315296,-0.4578280029341176,0.5115724169272879,0.5657070340067605,-0.115369638342174,0.43733085804399396,-0.057767160033606935,-0.5832916827854431,-0.6482278126975474,0.04005105325682437,0.36103329714969057,0.004839003255254937,0.1911437257782933,-0.2396382837838177,-0.1282399634757081,-0.033118387622151205,0.35518616445450546,-0.3893166506615807,-0.10215186268645822,0.32692114839777714,0.10387406961807208,0.21634723292121397,-0.3469690640708827,-0.8751299705320862,-0.028393973554526192,-0.03347020087664881,0.048281697461593415,-0.11598109825088941,0.29153851660166064,0.3345689884033619,0.20364311504556942,0.8162861020963563,-0.08783149667873869
8.395750045776367,1.019399642944336,-0.35647461760149834,1.707104630076007,1.491081568414155,1.578759439931547,-1.9908004643120716,-0.7385131280158346,0.4621722425726213,0.6893424906390943,-0.20398922997654845,-0.6861076556399293,-0.8898953407652481,0.4798272164009668,-0.0007618541582132196,0.08681157889513912,-0.056746797951159694,-0.24708766722470366,0.24349670963628525,0.036893193155606366,-0.009316495489563079,0.055108609143933146,-0.0586797995885697,-0.03747676609659494,0.09330430024111737,-0.027648936397621136,0.012960627319798574,0.02408590480443215,0.026219077295983568,-0.0863702041077789,0.025735452020937234,-0.08768712447732441,0.0027773231785878866,-0.07432324839485008,-0.004685055761852385,-0.004606683899639872,0.11541376533330752,-0.008023988192026703,-0.08389760120716747,0.057067648564021745,0.06645028958830151,-0.07294857824662697,0.01573525188535537,-0.04472586052239927,-0.20579314049305852,-0.26548252705499303,0.26152854587254876,-0.307119113399049,-0.21045112540742655,0.031349979753232435,-0.09278786503476927,-0.07631828865911085,0.31100403658667813,-0.09619339604525147,-0.03438107995589883,0.21510342096749063,0.1621339884330299,-0.10706038611911851,0.06393918603874027,-0.037636753213507165,0.015709604261397607,-0.06338526540752557,0.10237678592337911,0.6327116788693053,-0.9030765399433369,-0.33789199106229323,-0.10553563493834593,-0.09563347955257953,0.016296842157892146,-0.21611585704916464,-0.07328812296730529,0.4416111502523277,0.39437433586333515,-0.3317504211166343,0.10933697532215982,-0.4189305086494988,0.3086946599341154,-0.08693280420769114,-0.3244491190062881,0.13331337412131036,0.41142869794890913,0.6013598839474672,-0.047520482096384056,-0.11981791124918328,-0.10237251427972971,-0.19688814824458406,-0.028404140768620172,0.4638736473196166,-0.10822000917166281,-0.06311130019113172,0.01185850610749068,0.1076110715758833,0.684091216856213,-0.36973284347797575,-0.073794825752489,-0.1394053159624897,0.11264461661518504,-0.3944596592580149,-0.23146508124300108,-0.028722030114304298,-0.6196398535186687,0.6566176131782452
9.415149688720703,1.069000244140625,1.0176589439659078,0.7570735401845518,-2.1771447738927887,-0.2619771923906194,-0.4256608827629502,-0.7036031271585926,0.08317247302127687,-0.03413786907367471,-0.3064052542730135,0.07225100089894207,-1.1395792130016031,-0.17467195084993656,0.17325445944932194,-0.05761819191065232,-0.15260852027331634,-0.3532522845293385,-0.07433463709771364,-0.24803038192027468,-0.34670205181754926,0.11640091049482913,0.021621012868403282,0.014287756117123532,0.010738058979019721,-0.005036820833523286,0.042790602950109835,0.032121845428940914,-0.04709638447341835,0.007630098810327043,-0.08826756009068099,0.03761382554633732,0.05748123272431644,0.07370373264687496,0.2362086067362446,0.23223991787460935,-0.058943895994130815,0.08365109073951958,0.051742151795246265,0.006402664376659718,-0.09237501653244508,-0.011319081530892318,0.13618660259739968,0.01929459360443542,-0.32964625022172317,0.02289958177024833,-0.1437420082277982,-0.30356895380819443,-0.2701963376997093,-0.5983290080247464,-0.07246875759248321,0.018015886864846568,-0.1699426473264074,-0.062353654001909,0.13235834996404094,0.010821165553640023,-0.09451501944862513,0.051048969347683444,-0.05742082470365504,-0.007411798317916724,0.019612291086246212,-0.15501239170515893,0.05071795787245299,0.2789302347475975,-0.07299932602471959,-0.12969266929325507,-0.5140278374189446,0.13132970851939335,-0.24061052209692416,0.2914387525865897,0.12103786795531347,-0.20886117773000756,-0.2213405144657913,0.5542682146348605,0.09602612138963582,0.005842707602678698,-0.4731783044790421,0.5267895704149855,0.2686944319555455,-0.03444691469665269,0.3460796881443195,-0.35459335114929375,-0.30957326244805006,0.41718020678296963,-0.17971874421459377,0.13358903370790023,0.3709817923533428,-0.1327550611401937,-0.41484520127627594,-0.10888200145768082,-0.29342239770738526,0.2774698441997611,0.31375252558467936,-0.28082471265690356,0.3199683161817839,-0.07007868372238488,0.17126988782181832,-0.15498045193172588,-0.17329037388645602,0.19193448780868227,0.35121693204725346,-2.0706957521501597
10.484149932861328,1.1897001266479492,-1.1217081096664978,-2.0236982328421744,-0.8084569504388108,3.287083644197346,0.9807933167858697,0.5970690814974339,-0.09059628593691256,-0.009360481818979055,-0.8078176386922571,-1.2080465494317953,0.9012921293006582,-0.6947223592232373,-0.04563422005435219,0.12425813592708702,0.02054422219193999,0.0311551689983521,-0.013382710490821782,-0.0870277112380613,-0.07581246691155218,0.0946580547508011,0.18019834890470993,-0.03582089157995132,-0.00780551514640089,0.0011740303493828976,0.025105812758285342,-0.08534357504813668,-0.023393972530416498,0.047201957067883576,0.0022618997735015314,-0.012438103841546727,0.022602687784731595,-0.05104504463313586,0.07434863644742433,0.01358186766468373,0.006229469219258694,0.1733011200873417,0.029000903494466913,-0.015661248991406793,-0.108200316837278,-0.09301154528448449,-0.04385885189868086,-0.15191222927239545,-0.06303545550215044,-0.31396524787639557,-0.04656826306164533,-0.07901985864017241,-0.2408130209825613,-0.22793980214440906,-0.16718598442615226,-0.10529734702611694,0.05501831649130986,-0.005215653094771844,-0.17182773475887664,0.05703989259238635,-0.27537082775951055,-0.03496533500443962,0.04845261749400461,0.08719460068056642,0.03822381010931811,0.08676396267878068,0.12728114491231096,0.2908621355310762,-0.11516541167323414,-0.44786314559655216,0.3044752634758073,-0.042366759494021085,-0.15011435134560144,-0.05371199835667181,-0.04474564486584519,0.013970103797613608,-0.2025896677870743,0.039290457347403614,0.3626582039241849,-0.13511406767972683,0.21325390032765495,0.6287996121248473,-0.0142679208501325,-0.14036166696317973,-0.030946438064723917,-0.11342071157640138,0.21116350476786172,-0.23927346794184406,0.44562517752476344,0.5880617843972396,-0.00134652127564714,-0.11203172513160496,0.27858320928263464,0.023635386581459056,0.39680755859176337,0.016519826917030345,0.3805292180437777,-0.14617838674235345,-0.2378014503072151,-0.2132605176363608,-0.6743719420834196,0.3191693733383156,0.1435423125522658,-0.07689435489571425,0.8018298702626383,-0.0500743106290549
11.673850059509277,1.0892000198364258,-0.5682744192224858,-1.8265425962977524,-0.6913953180877104,0.03660650039517948,-0.5563192193488375,-0.3823059978689868,0.11666186952706599,-0.006082443640818931,-0.2546926834969712,0.18494967092178125,1.0718802042286852,-0.280375467025509,-0.0837781815079377,0.07212541477928758,0.14059926380646573,0.08386599845300294,-0.018000856329968118,-0.06791066502256772,-0.0724521746689893,0.008169275119903369,0.006523521520218968,-0.08110036253053676,-0.04217959079351759,-0.05773372076329778,-0.028715273097256685,0.02827805707522776,-0.047604031660726354,-0.04390649710301481,0.11176013390282946,-0.007554973705764901,-0.0061550702585654905,-0.034896283561018836,-0.03997703334182948,0.15335220987432308,-0.050172101910958986,0.1143907507913003,0.03861870902300513,0.04145273185918884,-0.05965722954555375,0.1119710233922361,0.0165827116613589,0.011017584872279402,0.011434275501546048,0.03458300557518732,0.07312729669519134,-0.1375940267706635,-0.13954678628969358,0.011308874493396825,0.11206473989024483,-0.022173761720522184,0.018220182909095856,-0.14770005147970003,0.06231848306116319,0.07705654468133787,-0.10578100878724966,-0.11591563403936474,0.18307601414220911,-0.09321018936490229,0.09967737694547842,-0.0011342063627696123,0.008391736283432517,0.04616620534497471,-0.04119139446030245,-0.3376592732725759,0.13027484455625465,-0.028567225374504464,-0.05571876968784262,0.24661032601918093,0.21859822277379673,-0.11696870970915155,0.1872706705484026,0.019855000171507518,-0.19387127409473975,0.03288098837766307,-0.09551714977546875,-0.20667918043645972,-0.11302758288173703,0.24827329902951456,0.14441523475109663,0.2638284996867068,0.26186069138725304,0.038853669565730484,-0.1715048181225029,0.14605501555751502,-0.015099400131419187,-0.423865101118902,-0.31015294646675357,0.005851739613020801,0.2087587549761745,-0.2034603621188498,-0.32369357265918597,0.0821013148156329,-0.13785281883083114,0.20749144278683243,-0.2525865564425514,0.5145019448194245,0.2046655667571928,-0.3266150736558711,-0.7064342514532215,-1.8090938221038475
12.763050079345703,1.069199562072754,-2.2320499264526923,-1.1192103081196974,0.20323937848999185,1.6875318645882276,2.0053516776644824,-0.3312194279698863,-0.024025849903261162,-0.13748778444420082,-0.0038094329864467678,0.0891410672672476,-0.28468747036344416,0.16454913463978849,0.2989556273491608,-0.12743742135052036,0.09629473446913922,-0.13694767550333592,0.13312545902373235,0.01093367694941337,-0.10150295852563886,-0.15782692456159747,0.050177998171374624,0.1352331795801751,-0.05396764183228234,-0.007216686574869351,0.052987242786154846,0.06357593452231035,-0.04928380498989467,0.05993527316479225,-0.03531032774629509,0.03411065531767459,0.133255804655686,0.016844252573060443,-0.05270270966621559,0.018669955111854417,-0.020788013771462603,-0.04471222371338146,0.10407285826276327,0.07272769147983994,-0.028318735886652013,-0.04707352341848805,-0.08594203255529283,-0.13828319511112722,0.17054269469791422,0.6839656892145407,0.38513629147575873,0.027113919132681824,0.21029074391223185,-0.04768671114854319,0.3181155787682146,-0.07388732420467573,0.09786553429732446,-0.05653689702419988,-0.0013003427910737008,0.060821890582431794,-0.06436619707716763,-0.13529033985632352,-0.12797091316945958,-0.1391196000432806,0.09846220111592274,-0.092406049993599,-0.01994115168921172,0.28604957309779017,-0.02840868878624657,0.21501811865468506,-0.3784445262606117,0.20293332596891864,-0.08606963585331763,-0.07771527890468678,-0.10759773864209207,-0.5092763565819104,0.49740532007633154,0.042609420154040095,0.12809277044832876,0.1496938357410479,-0.015745484252892197,-0.29873022279539824,0.5678395309192419,0.3717221314437115,-0.15304115178893887,0.013988335414792087,-0.017080065446203108,0.1869178787013662,0.2401924067539973,0.15023710634510817,-0.19463752081642519,0.09470667833741356,0.10952403008266122,0.2132746675565132,-0.25353603058716223,-0.061848684891133196,0.4609579742958907,-0.5642969403187229,-0.13032661109202306,-0.04983320954056129,-0.21373513059430244,-0.20925868224613256,-0.2488794036170011,-0.18871025024701343,0.20083911635517168,-0.3150943004735822
13.832249641418457,1.0490007400512695,0.10024396121957602,-1.7982934643043942,-0.869934752797522,1.3115373408244406,-0.16414889625603535,0.6182210037262807,-0.8812784525044708,-0.060096433628264015,0.8582185102006032,0.40793443533958296,-0.276723797308657,0.11109873533205285,-0.5360200408635888,-0.14121818262568184,-0.07083893988810804,0.17042430037096687,0.03943239221032808,-0.0003363231356937108,-0.06216831592657516,-0.029049177689172718,0.06640859065392936,-0.01309903905200476,-0.14806562148892033,-0.08714659305621547,-0.015377819260568236,-0.08913924571435322,-0.007976069857972789,0.009157575934689435,0.07448806912451283,-0.03843079827555216,0.02731321178619559,0.023442830420677505,-0.013576997103502063,-0.11913664495426646,0.018246087293579988,-0.03903975222704532,0.10427631522122863,0.018908212373305217,0.186661578046163,0.10212430650485842,-0.01610644011442089,0.029189336167802775,-0.0351830791266375,-0.23685764197240344,-0.011612832575026849,0.4093969291545442,0.2629497389941898,-0.10900645313153537,0.17981589553873414,-0.07382264264766163,0.10851343765992157,0.003487863625818966,-0.16617902163554962,0.16541683633766763,-0.026129011676231856,-0.14343916643311935,0.028784971232237326,-0.152833784632579,0.04156659573880364,0.0660923003749685,0.0009269004824437382,-0.44752976283038,0.7397411992381719,-1.0335024570287719,-0.13532134397432394,-0.056493910399859334,0.15596199208826017,-0.07474450569449567,0.25911238615780713,0.3753324393591743,-0.23653433691060152,0.10291033299786727,0.021666987031219928,0.780052608767682,0.39637238153349236,0.12948790058153958,0.2852661588639944,-0.028214540446100576,0.3364117840232542,-0.0006424869989671914,-0.024034263609981683,0.10944462016158696,-0.14912825643913133,0.17076368120211155,0.3582431713937494,0.05137478255347683,0.11920904964737787,0.015445315828349668,-0.16230311675673734,-0.16319286578836034,-0.3029619916327706,0.5699076874328379,0.26922474629314486,-0.07947917869280877,-0.25803900201148244,-0.13030921038584392,-0.1273852115265334,0.21886623306073558,1.4339543781014388,2.197317239987448
14.881250381469727,1.04949951171875,1.947868295415763,-0.9821168275741886,-1.4353816072173904,0.10923060308643197,-0.2193365437250009,-0.12937137243678562,-0.428097656140132,-0.11706565124160767,-0.039177638192236436,-0.018265246375524243,-0.019345334597690944,-0.09075772528794047,-0.15916543404645,0.08601268222568484,0.026159842134522562,0.09999892093834306,0.07859485314834251,-0.0040383656026207,0.04813429664176255,0.05853650157849927,0.03957466603134463,0.008064215485578289,-0.010970014169588427,0.09136205076558725,-0.005020770242800326,-0.004359838511246871,-0.02277869072781154,-0.03258047295446965,0.006155083378664664,0.06015735199852283,-0.06029108221253458,0.0003203063528920907,0.052804738268054006,0.0020231189750795986,-0.01659115149010627,0.011704489244849256,0.057305091289017715,0.1001441806331027,0.0171337531864391,0.07208665097104497,0.15215135734371116,0.11101730263426463,0.05977909809685136,0.3334543942587327,0.036445934753281825,-0.12208907626133592,0.7298482194667556,0.1311304581049068,0.22168506649011124,0.10969287417020791,-0.16386755519818863,-0.23774483880833122,0.5120258484510775,0.10282224023907288,0.07556977346153089,0.021412589881027493,-0.030684888054320156,0.08450948943726519,0.06398832549410012,0.010666850220001974,-0.09951226275259915,0.28106493779362207,0.3033421644109921,0.34496459000158414,0.4375102249852839,-0.12378883786941568,-0.06631255988160009,-0.029300105037642618,0.09101961781681006,0.18510398375991838,0.0632780103941397,0.05289127063729469,0.22468389144776435,0.21939680265513628,-0.44145824368874426,0.2666766971856538,0.11188429360515398,-0.3989202697403034,0.06953485533077308,0.7554864142346481,0.0819974557042602,0.026836393158954443,-0.18447804656645864,0.17375853043727593,-0.04992234491982435,0.11368095403854096,0.0735177700136429,0.13112914439710416,-0.17431099950545179,-0.12438773512172328,0.025770813638343132,0.20020151444237183,0.23728281869056167,-0.12349858282656587,-0.1086237602345353,-0.06271311522559,0.5825161764313019,-0.42908207245528557,-0.3482588098428461,0.27483566183511454
15.930749893188477,1.0394001007080078,-0.20291618017697605,-1.7102044074193614,-0.1278979802103051,-0.9014842443110458,-2.4534325526445544,0.35566199533256526,-0.026523053880201153,-0.017650082149539406,0.020100813986279043,0.4429218442365218,-0.12086073981247669,-0.8162225040663751,0.9178637711378201,0.08275115369665859,-0.11908836566414976,-0.15212969636058735,0.03209500772478936,-0.006217117964218313,-0.00943858095005288,-0.001146097270801225,-0.08098631344819415,0.20603522997713977,0.15379637724346376,-0.04421371497762671,-0.04348230607162979,0.002774760692660782,-0.0007744569641885603,-0.1078958804734933,0.0644169180426717,0.017794887543481103,0.0028206700242550497,-0.06400813021821823,0.07599361791510952,-0.016965244415676425,-0.04121795214179088,-0.24716907505731722,-0.10964747810011673,0.13497039627417617,0.08561982191169928,0.0534419286516305,0.032836934262379006,0.015815706107102576,0.03599404469082404,-0.15085769871181148,-0.03490006015302011,-0.13388417148983506,0.33316235719822385,-0.16536975226569722,-0.30856402451663384,-0.5563334043308679,-0.12843033811087243,0.7193165392388254,-0.25615351130614383,-0.2326973397835309,0.11263077095257318,-0.21159537020704536,0.010629395634780506,-0.011919121622602018,0.0025373520281186637,-0.007891862743349461,0.08673531795472844,-0.39405582709908105,0.4135700598141695,-0.6349127251041495,0.6310848211784668,0.5901412765996622,-0.4737758178543334,0.10861245661189889,-0.09570120936198523,-0.5427339381169906,-0.1336572297434862,0.07943356956555611,0.3457753145812366,-0.4560139472044322,-0.32556264891330866,0.4890036371863581,0.20039846869803912,-0.057289927106766725,0.05637074154215148,0.40621958598592917,-0.06722076811146394,-0.0881005101711696,0.22417600290405393,0.24721908266458054,-0.27860812227730847,0.47141672652445527,0.6909729727420296,-0.10468273667395683,-0.16640804758843553,0.16083317442767497,-0.01581134837780901,-0.13144911250749214,0.36521223811157105,-0.006601229036708223,-0.48339876148670513,0.6088889285594589,-0.012430685569480543,0.13659448393309478,-0.24401360613965833,0.5822549920124565
16.970149993896484,1.0492992401123047,0.3991493221808634,-0.5339329408301619,-0.32817560758596476,0.2800753344272241,-1.0946926591174346,-0.8202006910505403,-0.18078476173722677,-0.01538749244260508,-0.03692541448815112,0.0030047884194048247,-0.03285822834946756,-0.09839856665835577,-0.2720697756235981,-0.10490212064927668,-0.14731073329053343,-0.06604512549286254,0.06250466363756792,0.05061643717358527,-0.038450093156290964,-0.008478718458825267,0.02557425031563408,0.05636446500165543,-0.03290520400059034,-0.028455622984707107,-0.003840943646279467,-0.04893804416685741,-0.07122618702988326,-0.13046759597673502,0.040311794201220684,0.053260440499975636,0.01085750606498527,0.1648791717753648,-0.11712583297393596,-0.01441071979130652,0.027974483432960703,-0.023962305587607414,0.28853604636635705,0.03809362768081269,-0.1332729149644819,-0.1987949797412895,0.05996904172112947,0.06416824005040651,-0.5525525358340602,-0.029354341026532504,-0.13300190493254901,0.002719227972729072,-0.2864115067987135,-0.3554685933425961,-0.06782282372607736,-0.31006786372940387,0.3280647160812298,-0.011900134357001848,-0.08348276491878268,-0.1210686002360041,-0.04237804998332222,-0.11304244822785091,0.07504858891306027,-0.04615191301417361,0.03977752300831908,-0.08448651540256594,-0.38494046250769803,-0.19410091509958152,-0.23898619065500507,0.642458768898932,-0.13422802748755408,0.12095723113189702,-0.17338155674229455,0.0029651666597781123,-0.17452998634224748,-0.11324897655545854,-0.3139880925589381,-0.17431186194707032,0.12641411422492918,0.16660490364433636,-0.553452761377905,0.2569200694302173,-0.387916632909574,-0.10983159425224615,0.42796839247556157,0.4150057271751984,0.04685718128681527,-0.10131563259428394,-0.09874664009894449,-0.13320306970456708,0.025555284812077465,-0.6223009159134696,-0.06445011626427236,0.05827714946806674,-0.06048953227646289,-0.027420962627332533,-0.4366564694766584,0.1999714993807548,0.10371509661463461,-0.1431818492036208,0.14772341752709622,-0.28562517931880094,0.04875057969480511,0.767733267587614,-0.09013158512273883,-1.5781241481960855
18.01944923400879,1.1592998504638672,-0.856346371360653,-0.4893175507273896,-1.08126727511834,1.7228051803175992,0.9162482674753283,-1.1939377175860137,0.050471727340689915,-0.18218457034024904,0.15734088237057628,0.25585767258035175,-0.7473665430927765,0.19990842877084875,-0.10795026279141473,0.10828436577590277,0.1095250514050776,0.0931637110056413,0.012869950691902757,-0.01698292294600684,0.05182789184301277,0.11350271210593209,0.01966003258131845,-0.04623436639221229,0.08852811747983445,0.054626572535602116,0.01354689722186518,0.008126529530420718,-0.0005475350982689978,0.010070806439966884,0.1577992805394183,0.047479393073299465,0.054661852646648475,-0.01822633328330105,-0.15248145349252568,0.09728561597051025,0.07146618678957427,0.03880350186296712,0.024471593667379454,0.052310258845889246,0.04712041967533197,-0.00032736601963452225,-0.11361621851400967,0.006542284464107637,-0.09369380848528769,-0.003061811983406632,0.08165451052192883,0.22782262656329785,0.07924434214816162,-0.1377015614901146,-0.23092143501553128,-0.20726370423528725,-0.08921388387664693,-0.07054151501052358,-0.1362858423619354,0.03683920124694752,0.0877825919254027,-0.029920788442586763,0.01647725139729001,-0.02748479104133967,-0.004239722165195406,0.011971967645502742,0.07021422599502383,0.4003504210492632,-0.11551141989510061,-0.2046335879372843,-0.2607788409244969,-0.10688419947370434,0.12120576994963173,0.13817685581554567,0.06676077065303744,-0.12882499554245969,0.00966359652664715,0.02770393263527394,0.03823154340970586,0.1290801750849655,0.36359674206573744,0.556515112816152,0.4200288026438597,0.0890018037885477,0.10057744942109605,0.27989282284166744,-0.05030885320915469,0.3622151583268576,-0.1931714366386717,0.5508936366048068,0.24769743384122278,-0.4909517718471176,0.19938034602845817,0.10872206112274996,-0.0061832993207310005,0.4214394509522283,-0.002105250785861018,0.06245610648108757,-0.07312026228145212,0.34116800948697995,0.1214583653424576,-0.16289009152623454,-0.28360965239289515,-0.14158976386269806,0.11033748859584716,-0.04344939285620686
19.178749084472656,1.069101333618164,0.6536197333109651,1.475959307647071,-0.26274582226206955,0.57320721764512,-0.05493876851216989,-0.35843211841158107,0.09967439493851211,-0.09173325979922123,0.003438398559863651,-0.07233629617926383,-0.026865467682166057,-0.09333254229521089,-0.08911233568576032,0.10146035928548298,0.055656288914395564,-0.12310770402522239,-0.10525113520999055,-0.1312367961236562,-0.19415427836059762,0.10251532144260876,0.2095479328951884,0.11784892987338019,-0.2692393261822295,-0.0811774023241301,-0.14773507629596933,0.024875487560332088,-0.004970299222524118,0.016304270162177916,0.005245178792055855,-0.003019474271786095,0.048775560665875205,0.06489385659964814,0.009044314561219253,0.04788639106152647,-0.08063244012779641,-0.07214552211833142,-0.048343707776462234,-0.031067501944693487,-0.11443965226849291,-0.16484272161765348,-0.11466102418392816,-0.04952860792036318,-0.07004053601212926,-0.13581083808605182,0.10305672196542162,-0.03981016684002413,0.0210105127146476,0.013772355708602729,0.08333250197731103,0.14294030618594483,0.005019809111634921,-0.054283695502750966,0.11537323420414343,0.17256941253326588,0.4157107301228662,0.36882847186660994,-0.3062049582125029,0.0648582340179706,-0.22535639716607747,-0.000841405893060124,0.1972516644382241,-0.039374952831384966,0.01843217819595182,0.056393422894272224,0.07393191230815958,-0.012981381284533387,-0.0403809250356377,0.10672133499384968,-0.1590614383544164,0.32180318957353726,-0.3627517138803485,-0.18225690678162065,0.32786563250128575,-0.140194250072448,0.44803561511211326,-0.2533355170994129,-0.4675467118438156,-0.0635258103042152,0.6182334260483531,0.12156316515096827,-0.21336812786150156,-0.015441407047170749,0.39558195898072895,0.4452943906034619,-0.20110498613202749,-0.14222096671107437,0.3226222132767023,-0.18603873559508297,-0.060372335970372275,0.11451768559762862,0.2871598719122494,0.04611911688384756,-0.0656824413943529,-0.485577136401898,-0.3930211727588668,0.4634980321471986,1.0676853761980798,-0.4810731641075726,-0.9256128944353419,0.8714658020572407
20.24785041809082,1.0490989685058594,1.1725506261151022,1.8581162752549751,0.36496807493022315,-1.4336870876403185,-1.7865642970028381,-0.30978779547968205,-0.026308776866937292,-0.39920691929672614,-0.09096011549041277,0.0603521475791059,-0.5555937387617071,-0.5447457954931735,0.5935968833694925,0.2983867460210759,-0.385033648590709,0.21378560701505078,0.28002633407387867,0.13092788264256627,-0.37072808143534275,-0.2985187978156797,-0.1847130646227631,0.3212481392373032,0.15443544225751032,-0.004567853392895824,0.0374714496869043,0.03931608719223601,0.11395533327416148,0.033765855800542255,0.08231576092566875,0.34888159561720666,-0.05541860987304515,0.028138105890735843,0.08578767939270618,0.03227468107264598,-0.024152236301035367,0.024923045810752283,0.2838148159182861,-0.09541897971974074,-0.07766707464066995,-0.06488718253267539,0.29293506660367813,0.02808933828288318,0.24821060077664242,-0.5337195435762193,-0.425161685001533,-0.34957371510506163,-0.2379801054078958,-0.2743766532733077,0.6704974125879506,0.1467454164424914,1.1520606838833496,-0.17234059159169562,-0.14758639423735592,-0.0272075506971022,-0.04550880153488409,-0.213821722716538,0.17523073025013836,-0.04182985192377331,0.019418621690673918,0.01555770950062259,-0.21271300489118436,-0.2763943070514265,0.22009952036190752,-0.5015293539830625,0.2073435321016352,0.0497412070455437,0.013453667643360742,-0.31930350864235996,-0.028259155385567822,0.5375858678010589,-0.06929151854703348,0.04088775400429159,0.30434366035321847,-0.3011583440525262,-0.12249984660949868,0.4691411439725478,-0.6846839426210654,-0.22755518433424698,0.30710430112283504,-0.0881039120157577,-0.1686222247798989,0.30936650304162394,0.05378392911652011,-0.14286674698188243,-0.08453735709863353,-0.15136585464277572,0.3768517405875832,-0.012723922507609953,-0.0522062922643211,0.030327395373535113,0.2093617503459791,0.2128683375207127,-0.1516412184548825,-0.33166087188405446,-0.3416027476595456,-0.03553684012261087,-0.1596657671344611,0.46979758193613785,2.184624151362628,0.2932297092555156
21.29694938659668,1.0391998291015625,1.0247589733435603,-0.13775381360714303,-0.8954488739967562,0.13614610650994247,-1.5908776725106148,0.3583090972527384,0.8236901430672178,0.01983960019035462,-0.047741971592924946,0.8383014884358636,-0.08547860210388576,0.2755033913897281,0.0001634504248990143,-0.008685460943862498,-0.0856650214068747,-0.026073005236484245,0.0979403489842104,0.012802238018908703,0.07828376691796338,-0.09238853748307026,-0.3525662152065042,-0.09437559985959172,0.10903047821639339,0.0203535982670957,-0.012989652934217907,0.05534686713103923,0.06754823957084796,-0.018321196330610245,0.07192849407426342,-0.03688606554672101,0.12360540572902301,0.0003766595056286104,-0.08584119548341566,0.04653698736548437,0.011431390088055687,-0.08737631948742301,0.03131024560053934,0.14582434845627132,-0.14564313384390895,-0.1045381501981584,0.04596229289711529,-0.0071337995918846495,0.010240480705016578,-0.13332598983262187,-0.14815461649239367,0.3757657312463424,0.0070355218491769105,0.030348456313394424,-0.025200656275934586,-0.648298713245216,-0.3197344881284223,-0.03692830525341773,0.010122277887834714,0.13213814078526395,-0.09758292951073486,0.016001345775962975,-0.013838007480297676,-0.008408422159651055,0.03619010418149746,0.0065921949466655125,-0.06943186587136888,0.1257904569198886,-0.08302735680213018,-0.4929744146769387,0.27991770392265924,-0.409105437217207,0.09283279924540595,0.13942439330847617,0.024931577304196526,0.5791587082548078,0.12314225503499458,-0.2225003797048822,0.320723917175016,0.23716382419173557,0.1597452660324807,-0.006138547037135969,-0.31907504238361434,0.047744941095003,0.48604177210919347,0.30856771983347364,-0.04035261640884499,0.17198694299667117,-0.07725249367468127,0.27697571887797995,0.05438498133996885,-0.09786321502197955,-0.20193845797154764,-0.09745419235852978,-0.032866469398996734,0.15523142557819566,-0.4184347212374013,-0.4352105324253511,-0.44732818663410184,0.10796841344205334,0.6708288990170801,-0.189618152710411,0.5734962339615981,1.0434074428285036,0.5837260420052662,-0.23554696117748558
22.336149215698242,1.0194015502929688,-0.043155782630891815,-0.17182201880554349,-0.515766641219733,-0.564412982556027,-0.588944422162434,-1.2907217729015916,-0.7974423109563031,0.026645180829282238,-0.009584317361860252,0.16590286460992837,0.2500617826725668,1.0699662363941163,0.0701397011062113,-0.21164312562065565,0.12615202204039147,0.01119106104976173,0.060386670731012004,0.07326021195965707,-0.003096350805580594,0.0232062064128292,0.023499781891930572,0.09240064936884079,-0.004575467955408294,-0.08354770150103492,-0.020981330215913946,-0.08969028064773159,-0.038790950128513975,0.07644845112745668,-0.07388684184860979,0.09302794824453439,-0.008213834746445665,0.0009131693711057499,0.11772806274963113,-0.05230105567510982,-0.17062640719794595,-0.08563889064322747,0.09660873387901892,0.06522065565939542,-0.0934341777618528,0.0444579067736301,0.34404479960706724,0.2209579754522263,-0.12905097242093777,0.28237773051935255,0.014669042564384168,0.20147204458482404,0.03634125340216093,0.3025524596104571,-0.06336167347960772,-0.28517575692892766,-0.1618900848393012,0.07115787864692821,0.05465585896892952,-0.12861762547681901,0.063105172724182,0.05319227962691789,-0.04367084467811744,0.02789515740298575,-0.055215816793377386,0.09391976858726045,0.16045732865404258,0.2758767119820577,-0.3849838646888627,-0.8196397402639831,-0.017704834474726663,-0.3218267925346503,0.12107060375183311,0.05356806692462264,-0.11121009305825881,-0.3209401132838695,-0.2861954478545128,0.07302972088005444,0.17821332071329815,-0.0905134298450889,0.3904984048919967,-0.6807152947488928,0.04594607300674086,1.0461816990818373,-0.6066858205151563,0.26557387079597355,0.13507252645639414,0.1538342515178496,0.09223528565793288,0.09521801099179132,0.029934968283667103,-0.08955407768664624,0.11803449477942222,0.20879074831387207,-0.3130221378365841,0.19899029199767398,0.33818598493009405,-0.1379723614277271,-0.3933838493019591,0.5992787894503723,0.559039433934652,-0.17759665957835308,0.46534188503576773,-0.4443631186239521,-0.677517088651619,-1.7134130416898161
23.35555076599121,1.0096988677978516,-0.9374789953127414,0.07204208491749102,-0.8336780429966724,-1.0738086857942335,0.3440418488216847,-0.07173881683816774,-1.0346959365528163,-0.15238485829302706,0.11054743533525285,-0.20068272115336488,-1.6423991411427379,0.12956729997745314,-0.1782616418584868,0.1764313625102515,0.05155359904047507,0.08632986299721515,0.21010677706242645,0.07042452220502513,-0.009483338345034412,-0.014647514922041385,-0.043510749481804264,0.03341844655983117,-0.022279248058983854,0.023441359281040606,-0.005106625787550264,0.002423977252338635,0.023530336448520504,0.03615786186008393,0.036002063323636715,-0.0903449986084197,-0.029322505663294886,-0.05086414097848164,0.17726887723516632,0.07992144812093914,-0.1266111609707999,0.023596624433253208,-0.0967199517649169,0.07491413789966193,-0.005827885618610369,0.03231937284275959,-0.14810264094959374,0.16097271906402236,-0.08208766803998456,-0.13411035922466658,-0.16226330441228537,0.18678359118315707,-0.09078778920822703,0.30021963721721795,0.24366157852862674,-0.04931702523626156,-0.2388792428674489,-0.016333441755230882,-0.18196670850442295,0.4092908796805592,0.28265756532500563,0.1259574011806571,0.06538541406116533,-0.006383911092039673,0.03066749058565586,0.02492179139519149,0.34556332254640754,-0.047064339860937346,-0.834699729337632,0.31438042641144476,-0.27970454222883534,-0.08857383723789213,0.07799070526256156,0.21589798974382596,0.34806243474195775,-0.19361116047634105,-0.31920788091162944,0.17180628761525485,-0.2553172390511898,-0.14267871185433434,0.2940217200900829,0.06744639541910163,-0.8280681816562193,-0.37972308809997196,0.4599813116663238,-0.2514660841372719,-0.22181463070509885,0.15376134783695908,-0.10897420052736652,-0.060544520086467546,0.20348553100929226,0.13502433951346604,-0.03150448224828929,-0.06516714875046754,0.5444020096743788,0.2940022685227317,0.059177987363443284,0.43466160865405346,-0.29081178440831973,0.41739988078421886,0.429418802387983,-0.2482825654087034,0.6050913373099513,-0.31889419574659306,0.7872944913217985,1.4743730424739072
24.365249633789062,1.029001235961914,2.361555999080032,0.07393174645436071,-0.4540419838219116,0.20378156922573987,-0.9590749240499535,1.2064312248308855,0.37470039716695014,-0.37143976099566267,0.24961458476925538,0.12163964491395318,-0.03457808306262364,-0.34385332554930437,-0.06976506310566755,0.27992252493723435,-0.043754916727879616,-0.014614230539906667,0.028521897282373896,-0.013398940256076887,0.007689683097330332,-0.04210631078151434,-0.03974968737535882,0.01173088791100127,0.1045176333523918,0.07953420007521378,0.06151417032640126,0.016673679416773144,0.0012705881558296782,-0.01403148555625148,-0.05406878611159008,0.09809431776510422,0.023310884795783873,-0.11517194077517917,-0.3143848411985003,-0.09137207362710374,0.18336874328070618,0.06671393553232027,0.14095605652471416,0.14808741590159225,-0.13293991433243169,-0.05690619124636402,-0.09708547878689416,-0.03027399832350632,0.06095870938728776,-0.009154316527174458,0.16327308259488632,-0.35446487692178613,-0.37728124701204885,0.08892072422847226,-0.06750388858905758,-0.17065578875109713,-0.050286837369576676,-0.2590657995573971,-0.17295040650233975,-0.09957532747249417,-0.22054324161175543,-0.09778852941859753,0.0721881444174124,0.013083591967473739,-0.07304248061357332,0.013179723099364937,0.024249534057349587,-0.2058298825683809,-1.149127206605151,-0.5162968684575082,-0.04199476395544938,0.25892318604469977,0.1143255019557618,-0.0996023096537344,-0.22231206981488394,-0.03813072598653075,-0.03727695925205842,0.5837730444371027,-0.09217816566439449,-0.30916875484795703,-0.45388957821421233,0.04466347305627656,-0.7800332740010795,0.06044930551775894,-0.2536746331940559,0.10780929276083079,-0.2568690877392332,-0.37800734468151537,-0.021199527621887742,0.27620377799634066,0.04225136490766711,0.12538712985501269,-0.35544132236798753,0.09535218913205151,0.3303271077394841,-0.3145552880007748,-0.19297535830998883,0.051538656620200324,0.5133662032741011,-0.5578163663578791,-0.054944118776852194,0.06681231456667547,-0.30462512679868725,0.1702194757638887,0.5957250979978554,1.371873449276876
25.394250869750977,1.2495994567871094,1.544689768811217,0.4717240889366366,-0.2670767318398529,-2.061732445595732,0.21164511564840516,2.3874444907234227,-0.8460628934856563,0.006776893683113278,-0.10102048203052505,-0.3964248931342866,-0.1807701789849339,0.027971514490858263,1.0492106294865686,-0.03310942390259704,0.006525183941130654,-0.20892652043716825,-0.1625912926248141,-0.07756858931697609,0.02090036024501502,-0.008640814954644216,0.04385218160314738,0.020328454702833954,0.014076668663128712,-0.08894310325392425,-0.02377289531563595,-0.005067844226827819,-0.000948177070493383,-0.016519434503338162,0.00891110429451508,-0.008826070707281846,0.14532879656450562,-0.04562450971488158,-0.14918357474591926,-0.04687538888434123,0.057732349540487254,0.02951004843753429,0.035255740432156464,-0.09355419955657127,-0.23153710892804966,-0.03625801852651035,-0.14656759221568633,-0.04204183397504398,-0.04069474918834763,-0.06764011276610603,-0.398226840253475,-0.2506801402295233,-0.09048588801468012,-0.1785737126757003,-0.04635437302209989,-0.1597684834729202,-0.06809034350530623,0.0123215114960295,-0.02331067993577124,0.054302176002163006,-0.04969944162305588,0.0005324883255835196,-0.012985223683864271,-0.02035853223054326,-0.08537312678974429,0.16982811222803493,-0.049679341811950675,-0.04842325977448289,0.02347111762270472,0.19165697885015917,-0.2281293502568299,0.19916495990845232,0.006622674894651157,0.08089869176969111,0.1289471673503349,0.2846310374078938,0.21805602341075742,0.13182333939047985,-0.26047432117696906,0.16476670340478733,-0.23096824449047587,-0.1613852286987588,-0.46046984043908346,0.5414256519426791,-0.2702894365475583,-0.06662665919956462,-0.048818193705199284,-0.03856563367564448,-0.09207986919938717,0.5278395000874749,0.7181253145147043,0.07832433073548059,-0.08777461035426766,-0.018761304369170964,0.41049944815403366,0.28548724060865077,-0.1561868469407193,-0.04867900812690152,-0.01912996513846699,-0.5285227168766361,-0.28625096409092504,-0.09808215982330318,0.19187537187454495,-0.30797907326490837,-1.1391862257738803,0.20277634702611436
26.643850326538086,1.1189002990722656,-0.13403910003166875,0.7296931902935935,1.317941722708395,0.48778173272324493,0.3769524725611916,0.3646753122426131,0.06073514241874134,-0.05703193304982003,0.23588797945129034,0.8283910279256825,-0.058889096965580506,-0.03833002347291159,-0.07943044502206624,-0.022056265357723086,-0.026000076511445827,-0.08466926978210443,0.015409837142712036,0.056271256647832876,-0.02530464140090248,0.026849294785496126,0.10526756204745343,0.018017436911559492,-0.031565473492684556,-0.02678801062686016,0.05323887104192343,0.035849266766137464,0.10771947515468601,0.10915328078365108,0.025149568102858802,-0.04018953272143652,0.02285736890660782,0.108098839162866,-0.06763870840637247,-0.014488115021215331,-0.020520211258512222,-0.03262844709048673,0.02298391973619908,0.10513559651169403,0.10755922763061096,0.0024060502282079975,0.01991934648383337,0.002144587699685906,0.010245261840744257,-0.1740677787872968,0.19223014140951603,0.04537938870260262,-0.1666540344611623,0.02662250139529742,0.040592403821774634,-0.04839702720761565,-0.032595528825826614,-0.01961602584487826,0.023696632572889474,-0.025940867415752203,0.09720715598849329,-0.10468043473096769,-0.40816057371777964,0.05218848870578122,0.1270903091227922,0.13029085783186123,0.09118387800160734,0.029192105042850813,0.16505037142354337,0.28080478329312897,-0.013395029496489835,0.2337764971416326,-0.10141409516421607,-0.04151738535959712,-0.04661739147920697,-0.18017534686269415,-0.07789963341452555,-0.06569651339319163,-0.05487868910340254,-0.058867783730381616,0.19467282539209288,-0.026997023155588603,-0.11253640061972575,-0.04534152421323663,-0.10042155812715005,0.33659058791546215,0.08347276171147759,-0.04044000413411356,0.11295801623140701,0.044889983305873425,0.0037463701748372304,-0.12946912289752796,-0.19233956441592004,0.19829335476215923,-0.2188414761071208,0.014043740528645925,-0.35721814972879024,-0.873008389450852,-0.26353745465620293,0.8004396950765077,0.39364136179779524,-0.24214814215905134,-0.3869250421075149,-0.2886551422359843,-0.021267801250325846,-0.17572116992492104
27.76275062561035,1.0690994262695312,-0.4530910847019971,-0.3426789069856305,0.028029948582727886,-0.42628080648110284,-0.08047075139638935,0.4918878868807185,-0.15555070044824953,0.06092520667374667,-0.5774586929703951,-0.2085010645348423,0.06425612898931526,-0.197915186074132,0.004471810314480358,0.005591915002483475,-0.006249013887140865,0.23940055120668866,0.12292373733106617,0.06323680756819486,0.09811073984989782,-0.27139713902799,-0.1860761835487013,-0.24894202092604076,0.0024329829143658844,-0.11337120352516576,0.009047335410122821,-0.13502538482210022,-0.12896118284032262,-0.023017435275991024,-0.13189919748195608,0.03080599207285322,0.02066271185490391,-0.01417449065910335,0.017452166922534727,0.003663261885155077,-0.07923741888236613,-0.07961090566786191,0.08840134715512327,0.08692190551478468,-0.06913211010708355,-0.06525310875456468,0.013506860767219415,-0.04463426914950819,-0.21286017824000997,0.054406708202868144,0.11164509655799114,-0.06943589103222994,0.1894646461060944,-0.35474443243315285,0.37619743829075364,0.39435918409672893,0.14076358868590483,-0.02494395821947557,-0.29287203295765085,-0.07497902491945722,0.1963117430903102,0.01853444315989778,0.03566563935139367,-0.12275374239424074,0.03174029601860103,-0.1487004419736461,-0.6578620569882017,-0.40491316647427605,0.4401367469701103,-0.2290906349378017,-0.22410664949996062,0.235821059932892,0.1002282848460336,-0.057835043715464496,-0.12957075289533998,-0.09628064054573901,0.09840823881340521,0.0903795888614737,0.07911115427027679,-0.15570691428899866,-0.2733421358789389,0.4750560152318771,0.022900762733980756,0.28683860061618216,-0.2542138321859081,-0.557485863090977,0.027106095136658903,-0.05307372751127731,-0.3835932284819106,-0.3168843399806401,-0.14035383325961368,-0.06432856475156336,0.04720620183097311,-0.14231683483972102,0.12741723907250968,0.0553350183934897,-0.09748454589740012,0.2354521614295533,-0.132452140198285,-0.3007772879096931,0.15131043989846338,-0.2140912411284508,-0.3731110786727412,-0.3710613865944832,-0.9030121024506153,-1.1728626909228155
28.831850051879883,1.0695991516113281,-1.3301487450819263,-1.0293444850633118,0.6814375309928394,-1.1233102948544542,-1.9304430599708196,1.399524450524794,0.4780073798426044,-0.03221504089428706,-0.10080939249788656,0.18297912728774304,0.9558842445877909,-0.32786329469537334,-0.22544533842317657,-0.12510037642095032,0.03219100142088169,0.04566601072981241,0.028561081075498675,-0.00791026599737047,0.005524420099731832,-0.09892705205075172,0.015977594567591857,0.1554226118125685,0.0028478570058738033,-0.0429240934783985,-0.020495906012252985,0.023648912370731724,0.054657372062682105,0.23486750681386248,0.023977628495435888,-0.03426721891764611,-0.12373675891265971,0.014708811930295981,0.09047007855455075,-0.11104081662972926,-0.012721021316760384,-0.11427275454668254,-0.06777932234362477,0.01516027685554638,-0.0653534391334683,-0.2310689536444993,0.026063669985333007,0.0790763236525261,-0.00977909073631059,-0.12212101059569067,-0.09431553258325912,0.2780812209150839,-0.10922003908597551,-0.22692357877760305,0.16698602920820502,-0.3525032468183549,-0.024401170296091054,0.011390909722919545,0.004812026139679447,-0.008790832882380695,-0.029437511024057263,0.18645838246613017,-0.048049406291496496,-0.11699557407620724,0.04648911192204208,-0.04230465769979376,0.006746632601888255,0.42054846155676306,-0.19916100676800247,-0.6794464525455911,0.015630823339219165,-0.2597641984908819,-0.47616408610956185,0.10549614631902479,0.07404962512198462,-0.5810444737672611,-0.07910155845185615,-0.062042907716573996,-0.3390642542635308,0.12842309248722156,0.05045968806510345,0.1157334366212096,-0.06264605322212755,-0.043370829835810004,0.6104158917784068,0.25136354552961665,-0.02243687231523228,0.48687740464265633,0.1565419195419397,-0.06049785084084824,0.12263506902980664,0.11454462174957453,-0.40216795584192455,-0.0940118128852644,0.17251355754552472,-0.17683219429587213,-0.15096881169712892,-0.19260370617547054,0.15395053092735794,-0.04959802285191914,0.017786531050027247,0.2141256572317326,0.10723130700385823,0.14094980292132092,0.7624505817064893,0.9461927683349131
29.90144920349121,1.0594005584716797,1.4854248519484075,0.7699488968906436,-0.20583322079245744,-0.14789401117835727,0.24482282953656154,-0.8544739162420312,0.6719281202108606,0.13212039547410795,-0.03158031235257517,-0.21625447458877523,-0.31088021011720673,0.07747250429729503,-0.6257639015775769,0.1135213563531631,-0.02462286532456753,-0.19165837190954915,-0.021651668237593423,0.040165633292348256,0.032007394268584795,0.004029013952372231,-0.07470972817980016,0.0571290883391139,0.12325975075824636,-0.0018881684964356421,-0.07904014526826547,0.015277381826256466,0.0733381609039028,-0.009279343829520783,-0.010383787542441654,0.04395712836839264,-0.007316056822498671,-0.017326550208989284,0.013637300153596052,0.06163933150600873,-0.0711737096268166,-0.140681336670834,-0.12997651614641076,0.048539750012184434,0.09976290910380553,0.013861839588485617,0.19591281662431326,0.17604536616455177,-0.03132817350644672,-0.12669406274851455,-0.053473965856034894,-0.08850021144584998,0.05476407161872239,0.05718370545281263,0.0184773098295468,-0.22372251468823515,-0.0839435533038749,-0.15070118428215815,0.2870199898783878,-0.12156949678613188,-0.18629621096436694,0.07193564621158706,-0.0257122674441356,0.08988581019913498,0.01740167327280803,0.029257895896898485,-0.05253315923777363,-0.26041026772360343,0.15133265208752353,-0.18410326731572899,0.4385208243727201,0.24977110210738654,-0.2292150981732756,-0.30987200624447775,-0.18873227020789707,-0.012017655063965797,0.3461421725320663,-0.17991442588077802,0.10544750688870042,0.2860930709439419,0.392959870295107,0.2462055863096073,-0.5443980531043215,-0.05443483377295551,1.0669530784989971,0.2816790360536212,-0.02215673482203999,0.050801025875317936,-0.07672740965985465,-0.12108920547316553,0.18819069577430553,0.10549556148165037,0.015570906532671019,0.15553969772272203,0.18797136799023,-0.2665582793675639,-0.34797289193411207,0.7749612749731295,0.016799958456105796,-0.267794761934471,0.4878906341250286,0.34165691994573694,-0.009288455526853479,0.22665419355947192,-0.4659984027340508,0.879136980183195
30.96084976196289,1.0394020080566406,0.5510359496121923,0.2868284987844187,1.5266222171985366,-0.0638740242739634,0.15683046822063806,-0.914148872594441,-0.14090206157584095,0.12151659583575813,-0.029906276677161763,-0.509106902822586,0.5655682157264809,0.27242731451206553,-0.32495209966273764,0.14731199932066294,-0.04610860218719047,-0.019311211778978075,0.20390394701717762,-0.07368947081396644,-0.030904608744628883,0.04073154774232253,0.17452340744903222,0.050844710014206,-0.04066967313409112,0.04738841535048939,-0.015724117520442386,0.02581277505327099,-0.09344195484170892,0.01941317409965769,-0.04270783587896137,0.0847479150762753,-0.013895501602382536,0.06448586075442411,0.09362205326758889,0.04804072158497712,0.13969706432004678,0.04009994996369464,0.03512777057482988,-0.05076488232505325,0.015336853236956502,0.0009082157635568466,0.021018324894633962,0.35979381978821423,-0.04783719462998238,-0.09989845039385106,-0.14842561945277538,0.2711464850930506,0.07995724040392381,0.04148146484303551,0.26895609406817267,0.22495556165039907,-0.08233736977662125,0.10973843037125923,0.0734858951375216,0.0493543257879119,0.08244329542975834,0.017268581801948943,-0.05998621315255862,-0.08078084804371925,-0.005445139896542106,-0.011860583732427129,-0.20539171528541356,0.2453470990413764,-0.2060655320172295,-0.20398218640631355,-0.5790511219442467,0.04297077504006423,-0.0005006362499503959,-0.11732245668914919,0.19172617554008578,-0.4103226858739873,-0.7095488593839466,0.24003629379838076,0.1280532427103727,-0.1372718671975573,0.07593070042703132,0.4033712888965093,-0.2980002264530879,0.10768229720550702,-0.18780995148474025,-0.12547591991952145,0.09258264624698591,0.03480078174218741,0.23284021120510354,-0.08849294208014993,0.16574393320444714,0.33307198790051773,0.035281113911053985,0.00784887159364851,-0.07541062626046269,0.09652037352936331,0.18050269811397382,0.14677114322229215,-0.07459881097855754,-0.4046223613910195,0.2433589384618355,0.0911419116460673,0.3294147158973722,-0.10485248563133816,0.3152109961371927,-0.49638715731591765
32.00025177001953,1.0391998291015625,-0.21940894024513496,-0.38848473443886267,-0.7999114445618867,-0.8551142476946618,0.14441536211417288,0.48292653869296465,-0.11252393143112677,-0.06921640877625308,-0.0341341016412616,-0.5275666292190753,-0.37897182862913165,-0.26762876338146924,-0.18118731276327252,0.1133825086224517,0.13610092292276826,-0.050924873028828435,-0.008191276363910788,0.05520957489411424,0.14561375313048835,-0.008544312718448443,-0.0031054124668147415,-0.19505168911368706,0.08656238951901504,-0.037312796418108175,-0.052684822918485724,0.027345371739683304,-0.027523608870423873,-0.023115507059290104,-0.08693008640274381,-0.07836727490262516,0.08947331946914358,-0.014592907555205592,0.02238594446393151,0.013126384810022639,0.09683677554840296,0.1463197013288244,0.05837899245485301,-0.09409534759263385,0.07069332498940506,-0.004866155400988177,-0.15634503246192777,-0.11182939086685402,-0.036126898891527474,0.0920346699430579,0.17115894677765747,0.34654159489924646,0.007643135531206552,-0.04691671281814096,-0.08367120834905947,0.17649121176837396,-0.0202312516301865,0.03999588696799356,0.11585286703059888,-0.0820426092619045,0.018385714404555564,-0.028732881104942598,0.043116219037603126,-0.08340110014037844,0.05989034071034503,-0.012887419529014586,0.023715249493268274,-0.13271936770216283,0.21439683312177263,-0.32998020662545796,0.5028348923336646,0.07318319848248969,0.42818271988234086,-0.35967811284334805,0.0801589387000053,-0.05530444605428587,-0.3061986409924485,0.3541877137121249,-0.3115517413105543,-0.4116927406350227,0.06051424512106003,0.10032806310485015,-0.39929083353675565,0.2801364185863137,-0.30065807236490677,0.1621868156397501,0.11561224327672315,-0.11192302934287753,-0.057602216983969244,0.022721576709638237,-0.0679973539684825,0.08219548825841118,-0.12683788565070273,-0.09581123174443983,-0.18689831400173243,-0.2930378605264254,-0.07864919391933252,-0.6162194662424609,-0.53418837807286,0.41799504580576724,0.05637926262310901,0.23510771213193293,-0.13319104792126904,0.016706976253760913,0.524492300204604,3.6079267933957846
33.039451599121094,1.0793991088867188,3.0721769575890097,1.5360669397707527,-0.6515671055729467,-0.21123055094717572,-0.12972412192260027,0.056992525828740814,-0.055983968489568714,-0.027175306713888264,-0.16650009214283942,-0.24508318922442607,-0.462180543386181,-0.42184049921550476,-0.07630056933883897,-0.06622449310343602,0.03664115837118483,0.15475183566686773,0.020983431025174144,0.08906076739053086,0.1276643821133443,-0.01142059316751759,-0.06474266322920627,0.021952672461620346,0.025097552269993797,0.003142251408391186,0.0031428160724131958,0.023922031809970688,-0.052763197621033237,-0.057258598212176444,-0.08281789446127302,-0.012153299858183742,0.02843803708708078,0.04908511530945066,-0.12323326636363667,0.06721742699460354,0.03498025609259963,-0.0017629833213543273,0.026889696466675064,-0.11118896691864076,0.07306025166354377,-0.005026021375480184,0.08349485439570116,0.3430590432890327,0.05245531696801314,-0.008745926604717423,-0.05715780372979018,0.04850797670423963,0.018074692463959808,-0.04368646441312995,-0.00586452330702375,-0.1659663341836378,-0.0596813450037585,-0.2734569161674492,-0.07254975159720123,0.044021456226648534,-0.1424140132584158,0.08508537249320448,0.02710714695016968,0.017941874146897407,0.017247851910888793,-0.06117600052350853,0.2042447249873016,0.008252040262410082,0.31462223088583835,-0.18876108090075944,-0.44118792018478487,-0.04692982906368973,0.054832352635797735,-0.07805465783637992,0.27709016143283843,-0.5394994024101587,-0.39372542166164126,0.03880388575313368,-0.0039727668420663186,-0.27362257509254134,-0.23119344657257482,-0.2280776734576252,-0.03159907172477906,-0.024713914904077622,0.018950349950674378,0.07585948958068328,-0.10153133146254957,-0.19463214928118694,-0.19820403411393223,-0.1838041574451188,0.033376619290970716,0.02513339116546405,0.5440568775869878,0.06150102350638971,-0.13618154236087246,0.11859576218862274,0.11528119655146905,-0.06600061378839066,0.00891398309218605,-0.2723538099959695,-0.1952082215752976,-0.2864282634678045,-0.1798584192121687,-0.27178868919968846,-0.16637135452919197,-1.2905469563794607
37.43674850463867,1.0291023254394531,0.4431835004636221,1.2669657550005946,0.842734982468237,0.5099311291205193,0.26352143008286916,0.28564420271533303,-0.4360615502510095,0.03290224486087669,-0.01034818708221837,-0.6923937221997288,-0.1965170657539697,-0.4529888812867784,-0.4467715553793248,0.10362732071702592,-0.0332778107769535,-0.002585118277273559,-0.06651798931971444,0.10300601602516407,-0.03607165403642149,0.03159635934080306,-0.054089843838582084,-0.03070201611819443,-0.1322201883707083,0.0006380501959973237,0.029093241306785103,0.00216816379725737,0.04617312425020064,-0.053215647564587805,-0.038267011800281546,0.029693766270500303,0.0813911457790093,0.0370292597592341,-0.03900395740515241,0.032260664494082984,0.023796441329980027,-0.014062021331623514,0.07854837890506187,-0.22910245238196053,0.12009158858244401,0.19583772439961333,-0.005847357794128472,-0.6489061361946912,-0.24127856678123408,0.017006788095823594,-0.21277540912346282,-0.11973048314840012,0.29781471131281856,0.09058769922469438,0.06980966789205773,-0.21011684046862947,-0.021736000982030435,-0.018648358461553632,0.05449587542184065,-0.14262186490189235,0.03017131442653191,0.00043283190999000506,-0.015220213073601833,0.02809659024995779,-0.06736053975368371,-0.11533786114820485,0.03430069930908301,-0.34294713797298876,0.04934826255211336,0.019510563260472687,-0.5723878983687881,-0.20495393157250247,0.28786112497238114,-0.2572898232733243,0.4017046885612564,-0.01985357376074531,-0.18452535459621838,-0.24100639402710344,0.2063813393994503,-0.4316503675809466,0.22811772869196156,0.6605445730090267,-0.4708557436601652,0.3419025283766234,0.002840340587210489,0.5339872771498402,0.3897266303848268,-0.6596002617887216,-0.020823914742217335,-0.20052734622182844,-0.21380582037650445,-0.30347503234778606,0.2205011419748063,-0.8138961204781083,0.04026969029876257,0.1895938678123167,-0.28287899756051127,-0.06487590202429935,0.2493837267375676,-0.7462360634418392,-0.3731510014381655,0.6625272102386129,0.8611407824741861,-0.6829459120289797,-0.09272527404286998,-1.2935724775418511
38.465850830078125,1.0192985534667969,-1.1104179484163614,-3.1192179637765727,0.7607290044276823,1.8914056545330282,3.3866492200175347,-2.074564209457774,-0.5602257597287328,0.12372638981761054,0.10341912075044232,-0.02290318554558618,0.06992048283486997,0.006179474620183854,-0.022928878851826123,-0.01656464908665031,0.10521242815970204,-0.06712566470310403,-0.004927144410487532,0.07679734117531092,0.04210814364948675,-0.008373595627479111,0.010290644988883144,0.043391435626640946,-0.012769280877535094,0.10807932836683366,0.0791265463428648,-0.058406848539295335,-0.0742809251973524,0.017209616418609245,-0.0878764815145672,-0.049247242678548846,0.026172545818677517,0.2624326497744019,-0.001498133920867126,-0.06220796520364981,-0.022138126544119043,0.004226232790385602,0.049809384306989654,-0.10349489835040358,-0.06695374431382602,-0.07879820601001053,-0.018212396675320822,-0.274390720504637,0.11315328750866271,-0.05066717962298484,0.26661403114378596,0.10893034703835004,-0.34509975837744317,-0.16942734228125195,0.3605489923586793,0.18609494166780352,-0.3222295429728818,0.11119062009409522,-0.1500755041022819,-0.23853937583212384,0.010703952114994373,-0.01902020276624014,-0.048076420479266135,-0.07497157477182462,-0.07032439285529583,-0.05066430831141451,-0.03067822337606887,-0.13562717405338098,0.07740514384959837,0.07495399003716921,0.14379167567726758,0.17654682619273845,-0.29634424974474094,0.1877060216189478,0.11029335371133761,0.22528248623649508,0.20366001024274594,0.036630067035307315,0.4982248138016139,-0.023880529879292317,-0.3366381858856413,0.20109668360382835,0.5174375996348999,-0.3472794262610707,-0.4822918751565391,-0.32902023171297895,-0.03308553116760897,0.40257373015278886,-0.1617010730632542,0.1492571084704357,-0.05256639663403109,-0.4985095874224543,-0.05153343463840096,0.597820516717494,-0.2550296105253315,0.23507082744891594,0.18713123904004014,-0.09543321713295687,0.24689249989506806,-0.008410812446015851,0.07121847853871016,1.0030718963477168,0.46690792970272565,-1.1506000433887948,-0.045355050495263546,-0.2693556875324967
39.48514938354492,1.0391006469726562,-0.469036910776845,0.09451038281368454,-0.9700029417610743,0.3313802852258579,1.6452343601445132,1.7293686574503935,-0.5024660077283982,-0.22772274504438783,-0.06566877984792496,0.5066867188382245,-0.5722808487468224,-0.6312920415742364,0.05793383476478742,0.029831761730601692,0.1360596974488286,0.036952893696743934,-0.014505757037068245,0.01063592505271392,-0.0164215359208713,-0.03810291237896293,-0.04915982712085169,0.02360814613385091,0.047710160089334465,0.02399970153915105,0.02387296046544465,-0.1143861179376297,0.037705287984166835,-0.024092431383687687,-0.038059609399186574,0.008818964513131503,0.05078613998183513,0.03642393462945428,0.0016639551283880727,-0.0730342827381388,-0.025483990993760267,0.06042551696933001,0.057291777960944826,0.16823616692457571,-0.059851239651541766,-0.035171037477502914,0.07865735280377513,-0.009827786942628166,-0.07152994525616084,0.010372191590231991,0.028058544036353338,-0.26917020290464916,0.1987751649610802,0.07972016415963686,-0.059934693157843805,-0.09906221660690465,-0.10989140201527267,0.12387489049389415,-0.07991056177830624,-0.16283331608360177,-0.13318569578006106,-0.06196968268369804,0.018723454340531367,-0.07163257027349379,-0.051987331435915586,-0.101585902101905,0.020983540309939985,-0.4068622434219265,-0.2643776637195077,0.9565087633507069,-0.13152792524812618,-0.3443009695516576,-0.11287574288846011,-0.20987923289710858,0.026582715116471048,-0.31125507595908625,-0.04719420279403,-0.03182969855722369,0.059595229999470686,0.3896965613266596,-0.07986555433128471,-0.7177861372090503,0.6981248264492385,-0.6714241995090352,0.39258375610026697,0.13698683381647936,-0.02960632964160611,-0.0026284356492505562,-0.022711397657234393,-0.2780876896152723,0.0038240568743049303,-0.008575554755840334,-0.15086540413180888,0.4312829773398337,0.02729799826901634,-0.2315870642299745,0.18244003667438613,0.17885876647697543,-0.5316907253792291,-0.3913169744251142,-0.5394288574121084,-0.12403660909507011,0.0897847783443272,-0.06354839547609939,-0.8696066147341317,0.39736385158962195
40.52425003051758,1.099700927734375,-0.5639140207064426,1.0489811929636526,-0.2724798180193877,-0.5678189664785653,-0.6280156368856079,-0.0378651332272556,0.05802416971527952,-0.0019164980551069494,0.03247199375654102,0.2330260670860862,-0.8900006507282037,-0.25784336764741905,0.07308945985130874,-0.13540412291458717,0.1093872057994391,-0.07225700096853263,0.006303967224128085,-0.08470227909714402,-0.1467058138357417,-0.15996393530098563,-0.07933299960695908,0.1534047527564603,0.10361748028769056,-0.020544114530909575,0.00584354691828257,-0.027499242272370467,0.01937622274100551,0.15727216052193654,-0.10251304117246841,-0.023271030028141036,-0.10746804632788412,0.003336987673030397,0.10851474823589316,-0.08920641164654283,-0.05181002632335316,-0.15945558611365665,-0.16312082024227334,-0.11776498857321889,-0.12816314351340682,-0.1274353986866057,-0.18253344182381326,-0.10724415128193589,-0.3384752467230273,0.18121452423854706,0.12028312237972545,-0.020428548028790513,0.015605175894421099,-0.09825922066892814,0.18234642522145375,0.01822426517328718,0.010816714707347755,-0.21192717780525322,0.12649111384658873,0.38744446462433224,-0.07852379282014083,0.19380473220547556,0.04292312823942745,-0.05675161064665789,0.00492436561666428,0.10415278504777711,-0.5077064125336663,0.23374586370522588,0.5793967554676659,0.5218854983300999,-0.3587258852883211,0.2699830823888084,0.10991289283393099,-0.2778263926659628,-0.21212007956886397,0.5981280655612548,-0.19777346763680165,-0.4222468317270782,0.09971463299090975,-0.10756770533381474,-0.3723035462434205,0.037518813673725705,-0.07768021489542189,-0.30276966225558677,-0.24352246450224152,-0.0903495874745315,-0.09228313161043063,0.12546440093441108,-0.34691729163691987,-0.2986249263663157,0.1966495983977843,0.23427553214386032,-0.16080692057507806,-0.05733364320825435,0.3097523223423299,-0.06479610404260998,-0.0607179905815064,-0.5016354055060817,-0.4605642266544646,0.05676457667862517,0.504465411909465,-0.002438268551217267,-0.36594046325463137,-0.41946577879317126,-1.9687986841771963,-0.3143093825759855
45.08155059814453,1.039398193359375,-0.7151840428841422,0.5303646952093104,0.7047409792956629,-1.3588933715262816,-1.8391354616086533,0.7780218762081987,-0.46525451874436535,-0.3738935103364569,-0.1808956955768828,-0.26159935747327834,0.13437886575154653,-0.9028967820626469,-0.08242953249367187,-0.03273652213164163,-0.5935667945462484,-0.008345684994179668,-0.002498747090344689,-0.12906316520455696,-0.26635095441388795,-0.11552215080605842,0.07014179121926645,-0.06354301446153257,0.10995554564850973,0.06909606173547082,-0.0015424014445228037,0.012589934674298406,0.05796241781784077,-0.05337316900490274,0.0006054371474221406,-0.0016073540406759943,-0.06344718195422944,0.09040301955592846,0.09984343083491154,-0.129797389253282,-0.08159733689494195,0.07927905357278339,-0.001330742605838738,0.022347765906285406,0.20128450506841117,0.05043790268637839,0.1473410981072043,-0.07455417765648337,-0.05608410360110178,-0.1661311249080976,-0.08487301078944212,0.020301046700247453,-0.1987673756825809,0.1966850493094295,-0.05103109782768303,-0.4294605932831102,-0.47899924007015715,0.24293143761008465,-0.22853363804185245,-0.2944092505592945,-0.13988319121392337,0.07707911464723981,-0.20718802850415194,0.012721938511684096,-0.0004212351426615339,0.00147262198464318,-0.005173061040683465,0.07805256884234392,-0.42326757207085075,-0.3404584915098087,-0.24642875200566186,0.02372398829157503,-0.24153518959964085,0.0022161629425170026,0.2402912099405561,-0.3646819994314374,0.08362353443815493,0.5115901302313204,-0.0548254880978851,-0.08017377825315936,0.5005207044729274,-0.13265556519721808,-0.029981510650040705,0.06694534280713446,-0.0530557854938357,-0.0570724264163262,-0.18765231392431014,-0.10825463170610536,-0.14131337536250538,0.1767868680717745,0.1615055621246878,-0.05079989435167411,0.4458816828659169,-0.19608110978041685,-0.6286885927973995,0.3824448200275991,0.32687170832126766,-0.3207791278817013,0.3603961164253181,-0.06623267790802233,-0.3902025623857727,0.46926855782129834,0.22524609456986977,-0.6189016740658895,-0.4788289616787398,-0.13057325770073663
46.120948791503906,1.0489006042480469,0.09099447199744934,-0.1698977717251688,-0.5541539107906193,-1.3873045281761263,2.2801499426319976,-1.076472403376739,-0.4514890214531027,-0.3510105499803229,0.5812549714005324,0.0011749217349249184,-0.28088720901409897,1.301230024105092,0.05235515661951586,-0.19707872853113137,0.04601901348415996,0.15144323752239394,-0.12055161414231033,-0.0900229425623856,-0.16445422638164334,-0.16322282562796386,0.275726643635285,0.03443731456341763,-0.11746114323213211,-0.03646837398574013,-0.013040559078071133,0.023137420440546588,0.021454800914581292,0.02576105144442032,0.09860822939336926,0.0005464999747407859,0.01694145230416199,0.0514373111261974,-0.009422428917143316,0.052680849249127845,0.007723517297658016,-0.06732771131424471,0.03138136770954812,-0.029146938651578722,0.09010489237084558,-0.04891382709561508,-0.06085668761409238,-0.06614413349130373,0.1518498912613794,0.2880476240985376,-0.045804447488301925,-0.01226225451483659,0.059915789408936805,0.18220589736149864,0.2327766567325648,0.34283282890138367,0.36901698074891714,0.12236243192575175,-0.15236445205122412,-0.023948435091221063,-0.04878069743429197,-0.019095974351131462,0.0914120061971506,-0.09176560110817678,0.09754438262405249,-0.0072175791727330674,-0.0632793252714098,-0.1671731319855992,0.14336934354865194,-0.8098007305184837,-0.06939596930469555,-0.23006573478016146,-0.08739091931935737,0.039664562305454634,0.1524794564440033,-0.31424937565156696,0.33416300461859705,-0.2541267680691103,0.06480548150774625,-0.04789457758181123,-0.24219817582807657,0.1754355387710082,0.045455984282643164,0.1694488229927416,0.049058783386352695,0.022659489247081874,0.051081669877632616,-0.1937546543383026,0.2855992629676739,0.10738014012166276,-0.14674294250687298,0.14049619367973162,0.13415148163656854,-0.01002788151074598,0.19030645794764683,0.16559313764190994,-0.4166568608489515,-0.1943554989012247,-0.30806931632655826,0.13908301501652598,0.01634272376063376,-0.6065420796537622,-0.5440360739787731,-0.2289553561951195,-0.300009077347907,0.9989924046383938
47.16984939575195,1.0792999267578125,0.4563243609026051,0.06507336312368686,1.2633033180363442,1.6827952575975176,-0.8437212717548568,-0.13474121597396427,-0.11015234256727671,0.17661904791399055,-0.30162396935892044,-0.18100273507093323,0.9811740415607354,-0.8447161066762684,0.10831518362636924,0.02012952682016618,0.0026992718491819067,-0.0762741385262038,0.08785918559613849,0.02785213440921447,0.016680903254222605,0.09278161679166454,0.05155677057549837,0.017529396073599032,-0.08990625958748628,0.023660280565058672,-0.13692019482081963,0.02745030030101578,-0.06142366674591588,-0.017942747016630456,0.04920037728021999,0.01096664245890551,-0.011316118540411268,-0.21068815878891956,-0.0624171046077697,0.09906730319459832,-0.13312665050882538,-0.14331965493957602,-0.09749655291714591,0.03805834427066271,0.01526181649814315,0.020511348138398354,-0.14217931837215816,-0.24339908237720675,-0.19201395542167998,-0.12702720092379743,-0.25936865920219376,0.16993362315168378,-0.012975377311061919,-0.29195046136150576,0.06666476446649104,0.1779507891055229,-0.3841856349224335,-0.1193161438865549,-0.22161534065954452,0.1551723987447735,-0.008816975693448068,0.060179127776903124,0.08290869904785915,-0.013114405425597518,0.04578533891481977,-0.03182573714904516,-0.04187695884959071,0.15147057549789902,-0.5275300184279073,0.3045418072199214,0.08395502579266584,0.17198607117380912,0.17327584979994662,0.04244563278748377,-0.0037775104341934984,-0.2766503046109868,-0.11836008068720802,0.24398979491328912,0.46375560642329616,-0.2768590900371688,-0.25558977342715705,0.2608501416733115,-0.10915502710357683,-0.03864916619511445,0.16685698023190404,-0.08010260950617505,-0.026050164473356736,0.09058559597483573,-0.07453673887383257,0.0027385390424157635,0.18717680809874568,-0.19816316037377266,-0.06180004582676594,-0.0659102649274508,0.3464554661221148,0.1775458897360699,0.13585234006983465,-0.19699824216405024,-0.06066344549448818,0.07116808833377371,0.23241714274947825,-0.375521890520756,-0.4993893340425051,0.32853919201119797,0.6034593385672327,1.4600095746190425
48.249149322509766,1.1395988464355469,0.7299390782243356,0.7028385400299415,-0.4370310057254566,1.4010883909301841,-0.4046778891101385,0.26785966876743217,0.3526676814659823,0.012638713628121703,-0.6259433361609956,0.1278970495850661,0.4085240385261846,0.6332009834881414,-0.017642125335437575,-0.0189496473399018,-0.07294175390702604,-0.028199782719861365,0.0012497865459033808,0.032838542597452156,-0.0007467638040781808,0.06336072470638131,0.03303695931161413,0.08015854682292024,0.14324580725376757,-0.09857673003278092,0.0813879623150639,0.0975085552804125,-0.17022733998492987,-0.10780947825611048,0.04749810447674601,0.11269201155029683,-0.049624718811510496,0.010960474599983647,0.036804732138081095,-0.0006918203110629004,-0.10570010727220308,0.015732840125228815,0.116491691139851,0.1798943752672121,-0.22249898440360383,-0.12414642636054564,0.00823313262359892,-0.04406929303788976,-0.07558469034291183,-0.03262659625105435,0.07003352588547068,0.2780288789927142,0.06649181892900961,0.036420608378742995,0.017549152640605477,-0.278255789142133,-0.16010955428340717,-0.18000670933606794,-0.28666449531795724,-0.014162844794135853,-0.23454942162145234,-0.06965273316962571,0.03815411675191758,-0.020397357364690567,0.12655206878025743,-0.017245767156427748,0.27205314394822394,-0.03581366856871207,-0.024566880626169157,-0.08339841667996624,0.016621733366244347,0.14460960230671885,0.20697683710051418,-0.10596679619371133,-0.09956561881221908,0.3175548432171756,-0.08446637677205523,-0.0718631683949677,0.09498734558610063,-0.5160314713435671,0.1416205020978488,0.055396311043081486,-0.091717613138208,0.07374985196027893,-0.13516626407268248,-0.5245177279802019,-0.4415300713000828,-0.32706111161664286,0.10728050625979316,-0.12308646617005004,-0.3676487786291164,0.26011713274886356,-0.11553914385171556,-0.3666061513318512,0.1253793534317284,-0.2894731061708416,-0.6370730001690821,-0.07528924263014929,0.2969616158942295,-0.15885354797014362,-0.7170636972422761,0.15286243975010888,0.6457806874589036,0.3511273101540822,-0.2515351907717691,-1.0261860443463489
52.87644958496094,1.0391998291015625,0.0766096460432577,0.5732335520925242,0.6026340630103262,-0.08069438825809619,-0.24330009217710208,0.027603402092231166,0.09967483429308328,0.27867416045911125,0.19106924356224192,1.056929286669161,0.4085999381187589,-0.500652875514036,-0.053553316310282505,-0.09448483191017489,-0.0020824898128370614,-0.13058384316289964,-0.0017687284196201067,-0.005334139092919178,-0.00021233142328501312,-0.0016726871680289791,-0.11680732314155308,-0.0026409152089411853,-0.07703136113936009,0.013452518763667124,0.0587464368815393,-0.01469101977960185,-0.018471995945167824,-0.03132812140497522,-0.03724579976523683,0.06189401079902015,0.024133951331686932,0.09425532032235798,0.00494222940383994,-0.1899889297965954,0.06713392984248666,0.15755778767583345,0.05803837233655778,0.12941303393012635,-0.11595758321943025,0.07072252775786206,0.003790115549776235,-0.09327454579587956,-0.3251617375046891,-0.2847498606143638,0.05347118049776464,0.2557835612459174,0.17015989786512048,-0.2534023518514877,0.1522011996243505,0.1354057309041031,0.03882414222125395,-0.02990418762231018,0.018427806657066365,0.08277409383319506,-0.17335756288366097,-0.04838697697601707,-0.06454575752755828,-0.030397749737140864,0.01230033219486461,0.04342732785707517,-0.01203258068662869,0.16006894095271187,-0.3782127690177208,0.9955326769527115,0.4165978499183145,-0.15392825019236622,0.05427899319183692,0.07186450845962146,0.1718027104819618,0.08254835938217267,-0.517234075363663,0.3770273388527418,0.06442150003006107,-0.1668677606829844,0.12210021523825247,-0.1300833963099872,-0.587726574358352,0.29207121499293237,0.4229639018927071,0.06949397034221212,-0.3201806174372619,0.09622648841575568,0.12462123667396316,-0.16229749340540478,-0.04145729666507804,-0.017587590910215806,-0.09031571692313377,-0.07913218067531047,-0.36979183495794804,-0.25353621556520883,0.22465294951184464,0.02315241717177554,0.003128115624475583,0.2246757867784584,-0.07544292904188668,-0.47125843959418695,0.330703753833203,-0.4387960892946477,0.1273184115086236,0.141235630564728
53.9156494140625,1.0391006469726562,-0.6865524715154376,0.31820569460825143,-1.8267646145977923,-2.7322211846098656,-0.6008368047135397,0.489681642381828,-0.047442902723610875,0.04624488589610866,0.1778494273304818,0.24119851527027253,0.4514747153026082,-0.09586529114197875,0.7077512425406618,0.17474689465485108,-0.012400636108986403,-0.0005037217912967074,-0.06338007200663133,0.0009446142211027761,0.10942042884580652,0.05333546199366902,-0.062370822128327494,0.04571670416606621,0.06355705143047695,-0.0494623302585232,0.05694998320182509,-0.045565003950142256,0.006176265782182476,-0.044760972927902064,-0.012193090851361386,0.018833107957333346,0.00039135855833288824,0.1191180193192021,0.010848405940338658,-0.042218503027252684,0.08852412139515366,-0.04962798290765146,-0.008018595508740525,0.08994243117208854,0.21363449926992006,0.02998213791363222,-0.013848587131707897,0.3492511812682814,-0.37641612568924593,-0.259998931664721,0.028137082041588265,-0.06288579258785382,-0.25209172249118283,-0.21051604070540572,-0.28289500773864823,-0.04257715663313883,0.1247343669585066,0.1225480263590284,0.10344403978569632,-0.07332233229836432,0.0015092154619047746,0.05828164521885432,-0.004940567649808043,-0.0046339232643551696,0.03222021681961765,-0.03583725801405075,-0.031240050665202464,0.017113369948945037,-0.023983205094891304,0.5736801378568975,0.5758160892301567,-0.5420312876828005,-0.32156084594651185,0.17559310368647374,-0.1186820560852397,0.11930178411988789,-0.036207028143490104,0.23777492931633665,-0.00356600657778397,-0.24759313519630183,-0.5794726167868116,0.9447403087064832,0.3274015027548917,0.014400274126932542,0.5683366266924103,-0.12760219931758057,0.059145814056772675,-0.06197397186784636,-0.054839206951976596,-0.23737068427451552,-0.06809062423413578,-0.2054519494210745,-0.2087360853560518,0.20032008668701762,-0.08930984269997927,0.1253425846781931,0.03352494052778353,-0.16014963391856152,0.15674685250542253,0.03330299958274978,0.37779929647613364,-0.0023890911238846797,-0.21649720275365783,-0.46410847378585374,-1.0518994311688483,0.4355065058871024
54.954750061035156,1.0295982360839844,-0.29613381828860086,0.4065556511675954,-0.08865030129210039,-0.39400698259679934,-0.09317578650533137,-1.5443354910613725,0.1055487027374116,0.045932881685283464,-0.06372581337482155,-0.11777619452485369,0.9122901004669665,1.5543006213638926,-0.11050089713416936,0.1042325211437884,0.10119947266158534,-0.006674976874243731,0.019419187119787382,0.04908175764520761,0.04713042268457826,0.04789373505980298,-0.01593033553318085,-0.0775618715253349,0.1109475596708233,-0.03293628836057436,0.03807644811039631,-0.08367797810081344,0.07780197123197191,-0.05271980225457642,-0.03316634213466288,-0.0016020326818258095,0.01153988540849293,0.016755368421843036,-0.04439014991187862,-0.011326315541517269,-0.10895069925001652,0.0012010605966184112,0.009032389385797606,0.06634488942672656,0.09675482810313506,0.018475093978881998,-0.13488369685966486,0.1626517773919621,-0.051344994119426925,-0.10279058271927802,0.059261144524491785,0.11086548228145007,0.00024806633124676517,-6.177844003743549e-05,-0.30362133283210524,0.047085971332063284,0.5143054957638094,-0.10756743704893704,0.040071339977821724,0.1291064789613525,-0.17174084430733008,0.028132077897944172,-0.03543453684207842,0.05439627638847938,-0.03291155642334156,0.057096281463337575,-0.04651976093145077,0.12134275299470976,0.10121728328125613,-0.06680806123650906,1.2307441684667437,0.006452872482680991,-0.19948767687495156,-0.1267686096622993,0.4695933434405044,-0.02903053528293378,-0.02550401301977724,0.2522992202838181,-0.31551720792095655,-0.020489332811994193,0.055264634158391085,-0.12501343629432693,-0.11851358993127407,-0.08357220796281227,0.28422775533637645,0.01411267024992631,-0.15887190054926986,0.15264190124888263,-0.33309864433912734,0.1535471265023566,-0.1917641885168549,-0.2156217236427332,0.018821914201829104,-0.14099567877466324,-0.1007279576095728,0.42637016677273615,0.1812757230819707,-0.05111901161791363,0.4285372155455156,0.05089456594626993,-0.12935851573702,0.2977919452209274,0.6816878512419489,-0.10679091050201098,0.10665469311077311,0.9033258872501483
55.98434829711914,1.0792007446289062,0.8237189648718131,0.303077363800266,-1.712650455393923,-1.919404966402476,1.7525569866971868,1.376917267688347,0.25748351674453296,0.12063274594771657,-0.11138697909878212,0.1328653380876182,-0.22861402218244564,0.4182751942767054,0.2893762379984539,-0.2635262498816535,0.07401430159007419,0.030322988790474403,-0.042781048883567326,-0.0038895116703129146,0.013025440285570747,-0.025052100591076883,-0.01630121317940788,0.010586453332884611,0.0043124200598651866,0.05825475244900333,0.021734640702558178,1.9905737560360626e-06,0.07335026597483887,-0.03189353929428773,0.008701214243040689,-0.047288167339388745,-0.052150804067508424,-0.1804309767165629,-0.06002108334542412,-0.0678318981703577,0.05346037204627903,-0.004209181455209617,-0.12611505163078246,-0.10078938012738899,-0.012123338698919139,-0.007845524106216691,-0.008347202629463087,0.01371433332371433,-0.013831641772254575,-0.14275203212032012,-0.1347194665792931,-0.06308169373959063,-0.21475157449627943,-0.054126293001654474,-0.1481839572193742,-0.2518979798594514,0.017249719161939105,-0.09711136654169059,-0.16145510893361664,0.2967616963883051,-0.04613777858266342,0.06770496687766965,0.006353013542477914,-0.0034420329237237236,0.008321478751752088,0.010533209919288406,-0.04330341154675252,0.03697036010009643,-0.008416087262379482,0.31622609904343135,0.3111578587688954,-0.013966628358580022,-0.2718955412645936,0.22952431805035522,0.10170537996751244,-0.03857368912915241,0.051838549321092484,0.0003415777082110896,0.3534096963685271,0.28187749129696815,-0.5621723917333943,0.25117696714220417,0.4031867633945465,-0.15827632229250987,0.28231683955289855,-0.3121961703778594,-0.45394373260387505,0.36173568603232475,-0.24094718153663897,-0.6233858040182215,-0.16340185338881497,0.0004075148450310151,0.0966838033929712,0.17546132777538231,-0.3240803798320634,-0.28123233758084654,-0.19054921936499616,-0.3007324381866332,-0.2725816792435696,-0.20917410355602487,-0.3897374380660296,0.3227994800774136,-0.05608427070657565,-0.08591652393482094,0.402320088223597,-1.2926510833477278
60.551151275634766,1.04949951171875,-0.12885544457872367,1.6416384481204571,1.5050174067936049,0.35838486478774384,-0.003373988560287748,-0.4528313701496842,0.638790803884767,0.18173641921815925,-0.03959617957350048,-0.3112697837433823,-0.09762359891859108,-0.39812488511182176,0.563346174432413,0.02902131721024663,-0.1512131240566177,-0.09565393904696556,0.023531717921651332,0.03019451826404259,0.022410226160251227,-0.14612666477203856,0.18524021773750446,0.03339373536215595,-0.005712300532327576,0.0470425806828467,-0.07479212073529949,-0.09142094962944924,-0.20924561004270137,0.015906257388676955,-0.006363735567600849,-0.08864121677133274,-0.02989647213820128,0.015157306683221586,0.03861934190350877,-0.24421165180287782,0.22521252386481203,-0.03181637367852938,0.021589002552445637,0.029179889956165397,0.058809888153546735,0.11729905987007191,0.045094224372650135,0.2653152475870662,0.05227008270531801,0.13032741863990266,-0.014423792918279728,-0.4067210225935592,-0.1548802894627006,-0.0778286201241933,0.3731581341688842,0.13500271228970717,-0.2011754118675553,0.16577001962143373,0.051642194115874035,0.028866970460058518,0.0984633986996409,-0.07650662866758126,-0.07139598932818231,0.031813533582262604,-0.010825188283918792,-0.04513822924386618,0.029743180299848987,0.09268377362814895,0.4843853569143717,-0.87942604774126,0.6367393262042063,-0.07326072140587091,-0.38523053086836906,0.06051951047336067,-0.23836185832247828,-0.6380363009940976,0.01996614558685013,-0.11593153809517459,-0.08950772836068271,-0.17596161113317743,0.13828761189361227,0.4135432056721351,-0.28018132204871804,-0.04191533075185418,0.3358367246942251,0.11102013612032897,0.14228681027535775,-0.3893734978557965,0.2808181466321977,0.4287050501762711,-0.11076311696741414,-0.14817965282641912,-0.027515263520264583,0.17643022665287791,0.38425037501995557,0.20331699214138843,-0.03916879538225643,-0.2714308667757131,-0.24613546838617417,0.04993528749252876,-0.37183058374042255,-0.03492913546615348,-0.6829494886162581,-0.15557696845939217,-1.2377973556481796,-0.9710991954775419
61.600650787353516,1.0191001892089844,-1.2940396101601432,-0.2131645783095762,0.012850847467116577,-0.5034825973625238,0.14197839772667387,0.1641185372942744,0.35237969111437023,0.017207258705468093,0.09703867100624006,0.4482487203800515,0.6454281835400796,0.061988741609819493,0.15050032348668058,0.03247217567398501,-0.0915239734311156,-0.0003627446899907614,0.02095857925136185,0.0527426324354504,-0.028827536941708004,-0.011100216138619917,-0.03759411154936253,0.07928226514437214,-0.04752317932768693,0.07571811727902363,0.07456145903134893,-0.023989049113467577,-0.0013413829960029502,-0.040165023925818374,0.05073809821483208,-0.07460577384737829,-0.04826825340713603,-0.012456095456006996,0.052502407371502524,-0.05030611546522629,-0.06036459983677262,-0.06661166949138148,-0.005644745430304637,-0.16706159476620086,-0.06913389007444236,0.06256414731396963,0.25448232253329156,0.4448360315443457,0.24235141061675902,0.029772202854381213,-0.09897201045455314,0.15338941847044257,-0.03189716792995516,0.1274253313905128,0.16513671150072923,-0.20482489695416906,0.26309789878953066,-0.18053787994524229,-0.12605672470275944,-0.01768562224694431,-0.049811665601980644,-0.032077341310932504,0.014097477009086675,0.04886123549783488,-0.0753008638594381,0.04056944905333366,-0.15070265271996597,0.05851729295386654,-0.3741220923118774,0.34243384561032075,1.5284847590560748,-0.670509227875642,-0.18172185300143595,0.23654826312713675,-0.04187119292627044,-0.42119954108919133,0.10095261262558189,0.6338933948960057,0.19054130245777234,-0.18349982199278733,-0.7340502543204882,-0.02465807098544187,1.1089086820311098,-0.33133968883594933,-1.1098721677548755,-0.38098188431464913,0.21046266879673578,0.3509450038341844,-0.021137416327749937,0.025109740827878917,0.03791985026539364,-0.20833377130521832,0.060648697391339296,-0.031704045918159646,0.16718849856160242,0.4572949304999841,-0.16693895054394348,0.15324925350772417,0.5192254266877577,-0.12973295711235414,-0.19575391776544307,-0.00030420574603677586,-0.7975138526861125,-0.14169475264733705,-0.10835508429561212,-1.0340886543388008
62.6197509765625,1.0389976501464844,-1.4605261495620725,0.1324460811642358,0.19408860029198305,0.2704609720988647,-1.3462896534369708,-0.48864119253546695,0.17030072499384846,0.06121969211999288,-0.047028137710857947,-0.08847322484406545,0.11283833763149713,0.6275584499453271,0.07760573643382519,0.06367854933144478,0.08288953650271687,-0.1452808931532865,-0.07620772220571419,0.13595755386863703,0.07189954928942242,0.0013266350722193386,0.17524996226264278,0.02365999694931813,0.010901191269256927,0.001321530959191714,0.0350709172682856,0.0808662120190781,0.0095672869814067,0.07873417969451134,-0.017651192517070622,0.0034301366824688075,-0.015971931948868902,-0.003504113825351869,-0.03024717609278136,-0.07018025930922117,0.07893793046956898,0.09266207046490846,0.039225616127187994,-0.017403835236070336,0.09331151343127253,0.1451051355886875,-0.07599291332363946,0.2060489699797354,-0.06203411336669197,-0.09549782128432502,0.17958576029282883,0.5500924015787851,-0.4531534342961778,0.3937249350874263,-0.011857490409268756,-0.12497801577976368,0.005796672642108202,-0.28664585126442876,0.00441705641432058,0.09656706586708681,0.08128090745979341,0.027958541086370997,-0.0030081714871861287,0.026953444988139064,-0.018523611052516077,0.11326753750057005,-0.18116995684255865,0.0989530789820582,-0.006288005716494776,0.5809060275189266,0.35377406534249833,-0.35982262335556464,-0.024085143510684512,-0.11949134778672743,0.08383380198367404,-0.3873646504320087,0.5445965860571251,0.22025251018019582,0.15585725935494635,0.04901576424093571,0.22883188998577392,-0.24896549413982466,0.3395760202086877,0.26845436199914585,-0.21756704017027834,-0.5601804838477645,0.11726083408799344,-0.17195396866108603,6.841347941898368e-06,0.24346943460618592,0.18550616796533106,-0.25500926345678304,-0.15541340154066915,0.11665248510571628,0.05837576425046532,0.07741786830851828,0.18791971617487457,0.5796085944363839,0.0710694438312168,-0.042587774446749105,-0.16866590873859774,-0.06731127299485326,0.7748477664863828,0.07749269590398855,0.00770983880332134,-0.9628014023407099
63.658748626708984,1.1194038391113281,-1.486060757300174,-0.26765070234583554,2.0477846020291697,0.9563203346364477,-0.9224572231130819,-0.6185230585280774,-1.1475338777914166,0.11334131227818438,-0.13024011648784767,0.08841340057337915,0.27080858562182913,0.38530891191347694,0.06418011243210413,-0.06862658002584833,0.019826167830315305,0.18543458594495776,-0.0263070451723824,-0.1320446208610804,-0.10993448942673294,-0.011898299923828659,0.0018810117470043854,-0.09197875649567787,0.12208162424068,3.0477661380146992e-05,-0.10093335914721915,0.03715163652769063,-0.0025931806305385984,-0.04352914825432431,-0.042493424265149043,-0.039394296792499124,0.16184219930332444,0.06150469513410983,-0.07437139744031676,-0.09975482785604183,0.02048852857989733,-0.021338081635916367,0.011166119046052789,0.06542942943595924,-0.03275833024069294,0.043509347984071946,0.09993429868348644,0.023142964755481363,0.010744551115614306,0.07722941093681719,-0.022561637483629868,0.05059513057218005,0.12527949812294722,0.13256325190444865,-0.20488099817103264,0.39850905156546945,0.08872349212782468,-0.025825620896213028,-0.14955662681599075,-0.21768253073630162,0.08274906641342722,-0.01067053245702547,0.038628434306309696,0.028368189491824673,0.02940806828876341,-0.07323660550752567,0.04203857299589547,0.1090385451989011,-1.091503864304016,0.611618651636396,0.07261954943914478,-0.10462353572199774,0.31537996446038374,0.0075149730678811255,-0.29849677620448073,0.06468772284007748,-0.19578920057254057,-0.22932034866757262,0.23512001041761724,-0.008414851179273777,0.1571787358667367,0.7959335593331417,-0.15515506244640492,-0.3844004077436534,-0.11311519230325437,0.216170427762731,0.18158780802895425,0.3327138391108551,-0.32248231791520193,-0.11019112762111664,0.1372331120346306,-0.2539862352485091,-0.28278496779530193,-0.45856864654173013,-0.21795569372659818,0.35820133204249066,-0.5027283850342532,0.19387682565969708,-0.998732242607122,-0.2726577552276281,-0.6184759841608815,-1.3075596581892222,-0.1445953688250045,-0.6212813193730008,0.2258811956306811,1.0967766425243413
68.0958480834961,1.0298995971679688,-0.9154499922667912,1.3309731534612226,-1.425320886774591,1.458278415496396,-0.5381040762839421,-1.0882550727979374,0.3717142037336789,0.08618173689178128,0.34279127798991366,0.34560872613606647,-0.40842050875322977,-0.2811142612724484,-0.2120240938910551,-0.15305816690551374,-0.02608252808925545,-0.1055851598927931,-0.015015425755025784,0.12790155812897233,0.12111498133539032,0.0891189149636511,0.08959290877822522,-0.1560346296276182,-0.057248687465019016,-0.04507368463823592,0.1485437549505111,0.11612227989678797,-0.09494455278094947,0.04678122283012196,0.043864846279725804,0.01639597257821363,-0.003484327073978164,0.006796282120862191,-0.07217205235875593,0.054612614963789864,-0.005571253534416308,0.14099050569403107,-0.023038997786319154,0.057018499128773936,-0.03546393245919323,-0.02969047298867676,-0.10283384484940447,-0.05529446558499757,0.08716607872395349,-0.25053016093744357,-0.05636449202701793,0.0722308501053491,-0.14411227412962396,-0.14629446081217434,-0.07599975525871967,-0.019001271728277674,0.473699883353591,0.257887709536613,-0.04571709136147527,-0.013798093210815706,-0.013521792734471403,-0.037201954925189934,-0.10992755433145036,-0.08814798976529559,0.0025095697582659263,0.07638322732334901,0.021437792566757076,0.04871095880047806,0.6634889199221959,-0.9148125311430814,-0.4676485488114367,0.32227853897077563,0.569103038813271,-0.03456838908791422,-0.3154233945615268,0.21561740625542655,0.7570023277915996,-0.13033888692602943,-0.3110924516462762,-0.18534434778564318,0.4619109022024861,-0.321926184423246,-0.5577152954080236,0.5328764165054374,-0.700776550846562,0.02683029738555618,-0.07908557016509281,-0.14940414931841145,0.31825854669132003,-0.21130011706517696,-0.2050697377631889,-0.2604796927523067,-0.6132993163291441,-0.43222565001409513,0.13323710032778613,0.011874724593731185,0.04840111929786589,-0.4478558422960946,0.03935561442807661,0.3484963633949333,-0.3161084305207137,-0.34806594985608863,0.4921290569479164,0.07634609481885107,-1.5326458869226847,-0.3531682891765078
69.12574768066406,1.0388031005859375,-0.7154478718871914,0.6576349852681884,0.4473432021105482,2.1389419340966542,-0.05637459471335811,0.6375211050393184,0.3207407632908541,0.003478776526570646,0.2832750619773954,0.1791486148050913,-0.4574603855449118,-0.19140284597601223,0.011370616300226932,-0.16212120324855958,-0.10442437474622067,-0.05167152596595663,0.21819050516441688,0.037291865577237925,-0.0862792135334716,-0.10069867496105073,-0.06756002662434082,-0.014623423250183685,0.04256071272766366,-0.0530024115681739,-0.02539147651954766,-0.028825267347841868,0.10121038049595384,0.11747952000885029,-0.09943189624430825,-0.09443428802421058,-0.009679425508788794,-0.13597031622134173,-0.023632929609663005,0.033528305136896926,0.09298623518219407,0.040761422239378224,0.09015849658017099,-0.1730154078764546,0.29426705140654164,0.2833210385075547,-0.13164268636346577,-0.12691382682050067,-0.03879198704104936,-0.030224457980473074,-0.10328083854694212,0.2894477594142331,-0.030123356077769003,-0.51086040015296,-0.15627035592791377,0.02729119256162494,-0.008752640814859897,0.08684995802465882,0.4012917834534365,0.2444343521564339,0.16503152858840764,-0.0707037574503394,0.031842132319034475,0.05121256054012162,-0.030547781863359685,0.032416113010098,0.00777054535965295,0.06375274248380439,0.08963903777012146,-0.6701289207847441,0.6879410800725849,-0.3793340223244938,-0.47255088459103367,-0.003358991603892471,0.06328722873505202,-0.16267575575736942,0.28184057546194463,0.050145419099534856,0.10349829458320652,-0.6075680574413515,-0.5544620988511325,0.5763128933508024,0.2660861453223056,-0.05915861838926534,-0.2145806434522329,0.011019182053046608,0.2410966367264028,0.11406808898273842,-0.11833046003504993,-0.10765640821732791,0.21170963378237528,0.007510740025953904,0.3403924658752839,0.07173596442208628,0.06045818045107352,0.07522606875005364,0.15952271125951417,0.07288199193149998,0.054089915451603875,0.5749875632798738,-0.1633789895181115,0.05308315195749919,-0.05250663936787334,-0.2716112001716783,0.12431024742506838,-0.313934784276761
70.16455078125,1.0591964721679688,-0.9833417013746011,0.3104048764712948,1.114489152809248,2.9371711683139705,-1.4073752154196746,-1.08944311740544,0.4365697930458007,0.03400557557671222,0.07018837809204415,-0.01594756531124756,0.057250668292398756,0.0724495732987927,0.05255032201833621,-0.029159627952351937,-0.036533600958376204,-0.057475123452442385,-0.09052068822828346,0.05857997355038398,0.052870841297037195,-0.003101108158923093,-0.005088246943910975,0.03636005339691522,-0.02174348560895903,-0.11807697303086126,-0.06532006696879668,0.046878410958905645,0.029247134285861176,-0.01492924043033475,-0.0013946948997732786,-0.00046778774913869953,0.04833688187807609,-0.010350811678691866,-0.11969653361869795,-0.0031747902751805557,-0.03024077139554108,0.05141692829521964,-0.08324599619858628,-0.08980860558432102,0.09945043979272887,-0.2767168708514132,-0.007725434251267903,0.18438055598590047,-0.1566104542683542,-0.3576520387528938,-0.1271222092927433,-0.09647628462201625,0.11040115825334167,0.012206475069239503,-0.2887783100966621,-0.395057107104674,0.25678388839656346,-0.162605301006212,-0.23314564476007205,0.05054156407526543,-0.2106469010545885,0.0499139029213529,-0.08729242945251128,0.0015870345942525011,-0.01561088890361607,-0.026036262407656028,-0.008153148290789529,-0.11393067529327294,0.27709896190367994,-0.27401094692149736,-0.12572204666867243,-0.20139688955167068,0.24714351449860833,-0.08216940112067556,-0.08661857149356496,-0.19658439112192722,0.5536530126372774,-0.012754976727628889,-0.5240568434305538,0.17230464957241104,-0.19113989754084937,-0.43829368381196576,0.052161811251332124,-0.786956784683054,-0.011950996123271343,0.13218986202683308,-0.4227584871923971,-0.07189474967537735,0.1915204169297787,-0.2600181009511789,0.09039923008794343,-0.039918219371396106,-0.09361175424752141,0.07283535042825662,-0.2908272156791045,-0.5903424543689126,0.20645115252195573,0.017992093235517523,-0.2556091353693652,-0.2606523171617111,-0.3980774915177585,-0.22417853311311467,-0.3238913272065802,0.2695753980454883,-1.251604465161543,0.20046376639796365
71.22374725341797,1.09930419921875,-0.09319181596517895,1.874528056216151,-2.219690594118592,-0.12484829499411984,-0.2858317430370173,0.8923293160038943,-0.45426259660934454,-0.1086797498537746,0.1510769135216835,1.3269020540604963,-0.8354372210559591,-0.8860377802070781,0.008876653963324654,-0.0415801676954681,0.07488532758865132,0.03067439084242203,0.10241423970409282,-0.009081116176238649,0.010243047279446763,-0.0038917281699743208,0.03971249679116402,0.056934398541010525,0.04375821714385627,-0.08034262740964983,0.06819847589422631,0.03871030459785791,0.08447383300229486,-0.004220278501985969,0.04933677133131306,-0.06945177475307011,0.10895193960203657,-0.07796799844403816,-0.06835836050101372,0.044947575835192946,-0.051879287476571966,0.12255776538594892,0.029406343736545285,0.1341412887795939,0.1325401759215762,0.13273044399110492,-0.21877926295040306,0.11706412903011648,0.03061354553042772,0.22462598199454287,0.18348283676698726,-0.0775725857356681,-0.1168029733168391,0.1134764145370025,0.12504379617712144,-0.311547094762837,-0.431453940096317,0.060598317052199126,0.1840106169258829,0.29728433381411873,0.31326697416913624,-0.08162354454101865,-0.000779153427061645,0.02213594304058119,0.030669299657500742,-0.0011065565174705762,0.08411168214617681,0.3030209120280203,-0.48502225289421025,-0.23980133014225144,-0.009558101683157367,-0.04840955949217847,0.20705191851138774,0.23106370072467933,-0.13244285146961535,0.5660660254927422,-0.2762988604062687,-0.03396217675186088,-0.04819501101174545,0.1833090714315849,-0.19155959425123134,0.07310816602526177,0.5877832430785582,-0.4416546956717967,0.12103974402479573,0.2994052749906183,0.04785258035166693,0.21353099292405756,0.0549180766662131,-0.19232781714426775,0.36181253654207424,0.2754152671412832,-0.13212483581232956,0.33502838198410595,0.49636441963242517,-0.4763442396839415,-0.49172930328450326,-0.027248592903204562,0.0110394481330498,-0.21266453905496457,0.3235672033810564,0.01636612859524887,0.7909623440240388,1.196263494255285,-0.8576995168029289,-1.1557771597266584
75.83114624023438,1.0789031982421875,0.016996880163978212,0.2955059182071611,-0.9423352972594478,-0.5002148313492505,-0.4330757356781305,1.2766458247442862,-0.24905014891667243,-0.03350652284088023,-0.02744606081091692,0.024185344116492043,0.2091707018678363,-0.1850144144972042,-0.13921343080701445,-0.09725930487880959,0.06982465870369849,-0.042877912191121824,0.028084863088185478,0.05264379262053835,0.04012890567604044,0.05404980892459363,-0.03817968846486887,-0.013095247907843874,-0.0008645686394396343,0.00797695715860965,0.002234571670323599,0.019324530647943806,0.002576501077037278,0.022970906413419784,-0.05847026681968405,-0.05598998445548737,-0.05843080467549286,0.03239987221863036,-0.06328710182749364,-0.036749156008520134,0.06230154590138891,0.013437378692848648,0.1501081015323832,-0.14971604695749166,-0.12887865953929467,-0.16190507311012717,-0.21941642648996693,0.03454771794149182,-0.1762746404535096,-0.2873032561249463,-0.13344091937117275,-0.07691762576546286,-0.02275691921665445,0.07229762320755982,0.05777149037232601,-0.114688542658889,0.14163966491995414,0.01922770813034504,-0.05798621178861697,0.05510154616730468,-0.13574449089719853,0.11536489977497048,0.09051492642832738,-0.058346829776531925,-0.07137560274486775,-0.008249387863960594,-0.05643341846852799,-0.06919144740078377,0.13576622929327342,-0.282672496752836,-0.46087201945808665,0.19134272266869912,-0.4278178295794521,0.0748534159325421,-0.25516914032017535,-0.06670362006982847,-0.010884927219970641,0.18707190420098369,0.1768725492621087,0.24012415703116965,-0.03753035277438926,-0.1321380217557661,-0.46518387277911105,0.06991803810816763,-0.43697424333895024,-0.3697041739650431,0.1811879063247338,0.36669895296539795,-0.07008393241918845,-0.17252659153589955,0.05169015285766933,0.03484182370281605,0.13992829275701396,-0.10973068923602512,-0.14970024546946234,-0.04020311909762951,0.4389971734039052,-0.056963427034326976,0.14578060019333275,0.23827248198572007,0.07858555056880395,0.3413588550401973,0.5084988028341921,0.8516078842091456,0.14273803020312603,-0.5386856083455223
76.91004943847656,1.0695037841796875,-0.48969164677913046,-0.6728570700273763,0.0775578872396257,0.09939087898327384,-1.0936392939835402,0.402646869532589,-0.19205054031574192,0.2209630927516764,0.22938768124580813,-0.017970243813399567,0.015673813424769846,-0.1340820586930296,-0.005708011597679948,-0.010071669894267013,0.08529628979983078,-0.12996665861740334,0.04865712809311516,-0.016743665809933486,-0.05113811113147933,0.014621895970920794,0.02646861307812227,-0.02213198599691244,0.0660461957066167,-0.04341253258267247,0.07386618390349423,-0.02809615362268531,-0.0009729017872908434,-0.00017720443497756046,0.0019308605860065367,0.019365650601826802,-0.059623258338557084,-0.02853604612070179,0.02208001801049146,-0.014594514316049764,-0.023206990605034537,0.10969518518643565,0.04036681376188528,0.08227809400511034,0.09525811486344948,-0.08126219891255686,0.14122848730708346,-0.05412004181253528,0.01303512239565821,-0.027232196002916716,-0.18935907228650375,0.0812438352411874,0.27909203251999654,0.11161940094697329,0.15861980862020789,-0.13598765952422026,-0.07607058038321399,-0.12415614803699787,-0.10885044877372901,-0.22549435824708097,0.11007684731554032,-0.03670377869181449,0.011275202857721676,0.014405478118590248,-0.01917073017095309,0.028704575407713928,-0.04720234964722791,0.04576513657663928,-0.5102330490070198,-0.06142016563181624,0.09850769958172285,0.15434014287614387,-0.07069754104069448,0.007102624002804626,0.08149568261629409,-0.2992133647797002,0.33853563607953346,0.08601359531942071,-0.15795127722287702,0.22612037142575928,0.7399325351385885,0.13701832014955506,-0.06512441939952152,-0.39745371715088385,0.036411578854187165,-0.14289215271253386,-0.1404779852013606,-0.010251031352225104,0.16342121690497083,0.07966310762123464,0.11030517344970735,0.26869321093411636,0.0567059723313217,0.12550728647817178,0.1722640715164523,-0.0863942441520686,-0.04403152693243811,1.0271059255925752e-05,0.023489006844641933,-0.5550641282152018,-0.17251364180934897,0.3538488523009274,0.23618246938993037,-0.3299329648289773,0.1731285207564518,-1.002260184645737
77.97955322265625,1.0895004272460938,-0.43096573919612924,-0.8026752336222696,0.42834278319859187,1.005895455201701,0.4264661785337019,-0.4574635314790818,-0.14815283557168518,0.11748447233257037,-0.06595281569612395,-0.18165128279052875,-0.1386579508264545,0.12282124522588302,-0.06184753151351826,-0.08162226119206074,0.015137930983061907,-0.013095411283616333,0.04774849601431348,0.07716441022762466,0.048318008706563,-0.08774848718528674,-0.008530034408659815,0.03408162150021442,-0.11589176763949414,-0.011434064046359651,0.004968762993316448,0.00933053810628881,-0.09727794866080179,-0.0755145673032948,-0.0738977244726323,-0.024516343403865812,0.0428270265656879,0.00490679915214173,-0.08288690637136564,0.04743652849393215,0.0238944987569462,0.054916583034220715,0.04916580563960703,-0.06393378933154466,0.03815130312896686,0.25708634920098256,0.05595283449086634,0.0005185504766154585,0.1051006951145039,-0.040495972356721914,-0.13544051071388685,0.2634268432125919,0.26551249795771587,-0.04799395084462732,0.24190209095321785,0.13559446234871486,0.28703520259790655,0.2156456787364249,-0.03851640684951963,-0.09834995390364265,0.257860892876476,-0.024148724691105444,-0.04284115730778868,0.07276509989521447,0.02849067271650912,0.006189869159738591,-0.01487907600331638,0.04253104309438647,-0.3178019629796003,-0.13400720760832746,-0.29180503412980635,0.10975587415736836,0.0007089148090828612,0.18246466128481229,-0.20318355182216977,0.29296706201441125,0.33052580302772183,-0.02146252567681932,-0.21609782171305136,-0.4442418683061427,0.1844117021014586,0.04086467237814069,0.09299114674064025,-0.13004876474030236,-0.16986352446626213,0.362265748054974,-0.16661929633142505,-0.10205733103143426,-0.11328220026262807,0.1401883975162219,-0.25996033652088973,-0.011849681636498237,0.026449578181580953,-0.030569575612531055,-0.03189357629476717,0.13929702535619937,0.026073600582568385,-0.04570347971658867,0.2142086390424901,-0.41765623278439235,-0.25370686722711283,0.6010031894680851,-0.08949513198879984,0.05670796099086478,-0.4629003466055678,-0.5260304435556068
79.06905364990234,1.088897705078125,-0.34059156480489994,-1.1520417445723732,-0.5822918530228859,-1.4412848154677855,0.37935687139355856,-1.0516222881015436,-0.05778745085616925,0.22296873322537272,-0.1459963581918003,0.07609193132419698,0.02811819335805979,-0.10014029274521194,-0.11072326413074965,0.025981639529515425,-0.11199522596414979,-0.009449448880529432,0.06970114570282238,-0.0007510405612425371,-0.02379545082294726,-0.012702573460127558,-0.03185054645334781,-0.0821610431665548,-0.0802022589157494,-0.009117882627773119,0.02466160885364571,0.02687044156015173,0.05820734919231175,-0.01793025533568016,-0.006952662219541892,-0.0004159623849668561,0.01883326626579005,0.03132649200498359,0.012578534907145944,-0.009879777306016182,0.016898377046709226,-0.0804757346876971,-0.046466342591230295,0.031174441872417726,0.14996852446199327,0.07454311252124259,-0.18792630084460252,0.16150721540117774,-0.010855228632736372,-0.038213489142769064,0.11028830471310891,-0.2556068566843792,-0.10738963492039935,0.09180609472136687,-0.090810717183931,0.18074973063641356,0.16213796978797085,0.09536923317304956,-0.058805313913011824,-0.00463249051584811,-0.05329291871667516,0.18842160586747478,0.07049085842276141,0.01925952391730149,-0.0049969122077073635,0.0266672998706795,0.08691188588738755,-0.01698631720085908,-0.08483421198301197,0.38770235395686564,-0.19809552976115866,-0.22886087941726946,0.5814593234459305,0.19479901797410135,0.03480970119149497,-0.3335302998259178,-0.04361385179121057,0.3058666647520648,-0.000548862828784781,0.0939626236987949,0.179856723108546,0.07994902629949412,-0.6741988766301228,-0.191235776133635,-0.2232970481408502,-0.03238966690326754,-0.03660029566369495,0.09682831391789984,-0.015851269365444967,0.0907014314647658,-0.0528231832271463,-0.21052067464997637,-0.8592076022199874,-0.1159618824915725,0.6185429613921213,0.4303333193837933,-0.09709392524805227,0.05888224850727331,0.07992444303218893,0.018554563375436914,0.015310127959140052,-0.5543922116607222,-0.6424357411160629,0.6802060555697321,1.9226881059753713,0.8271887770909773
80.15795135498047,1.249298095703125,0.5501566443553502,0.9059263407772473,-0.12233825192254878,0.977618814390053,0.04450087792872409,-0.03512652696743897,0.043932130322721114,-0.03599213474103797,-0.050371833362238896,0.2963985713383438,-0.3018163413232307,0.06941954599443101,-0.02400018411040472,0.07041944122764375,-0.06863438051956101,-0.08193027314080079,0.016468078552427736,0.008869288567178385,0.006470370288898771,-0.07079134122092519,-0.07234930449667203,0.0488618508850528,-0.06826603050579318,-0.006929989005523475,-0.04085983906211034,-0.025739648932029444,-0.09500023904993363,0.05953933896611025,0.12445021071635995,0.011646895507966302,0.0370738713475336,-0.04784809593592861,-0.10186074230706683,0.38319039381678055,0.11585571067372516,-0.053096537141139995,0.017770480974940175,-0.001245100908520967,0.03445547513892044,0.14292715229440534,0.002605290825969688,0.017167239108472343,0.12569002860051656,0.05552061852924527,0.09363395712712319,0.03845242232642917,0.0852913510193917,0.1457610137218102,0.01905394846938756,0.19595817928068396,0.0768014620295414,0.049847704657762,-0.06567766832069914,0.038512509730090815,-0.1630378438723154,-0.022166385650646082,0.1818471342208856,0.05809983317297428,0.006945325891797004,0.06254289057849358,-0.09174839163126722,-0.23840298983685038,-0.018513540798877515,0.162610199886339,0.1851001864059362,-0.23516455818919857,-0.03759182038759493,0.13195189062632548,-0.22139422532624717,0.0033125147888157973,0.07527392108190627,0.0706610851107759,-0.27255008928668684,0.21133158926908774,0.3507679078078337,-0.036295537589290855,-0.02723002532944302,0.07723309264347496,0.856826164823813,-0.02356075022720864,-0.13818623938864208,-0.08201262405902517,0.0931129547192769,-0.07299468891049923,0.13646683524411762,0.3656814706515765,-0.19151229266807165,0.18680256156505148,0.2958135008024084,-0.055610794373166225,0.11329549421605958,0.343946017275618,0.176340390091884,0.48347312895397665,0.7545435975066069,-0.2757892842850487,-0.5083176816185931,0.5176949548628051,0.8590119608962281,1.005178840074239
81.4072494506836,1.0994033813476562,1.462980931540654,-1.0665931985699555,-1.5892817036443831,-1.052750359392484,0.13625685130654808,-0.07200102714262803,-0.054191588989057,-0.047978385696345105,0.025671300496334443,0.08376744783684978,0.01134443413327008,0.02055194188806121,-0.06667898494323068,-0.05968517556550915,-0.0013912348865407838,-0.128089644672934,-0.0028763823623309806,0.05453642915271518,-0.012738332807000666,0.09081182304434354,0.035807133661464915,-0.06944457001922975,0.01585614593691633,0.0767162436536768,-0.02487515657505289,-0.10163935860400827,-0.004878169749823968,-0.05405721486971875,-0.19157272246945842,-0.05068603991535609,0.07702931084783372,-0.14896379427597004,0.009127532120790179,-0.02194945644076054,-0.005141116946063001,-0.04649096656543465,0.03721923472354621,-0.13456255808644288,-0.05747856173998201,-0.1496247212618038,0.10018710509727363,0.04756480359265702,-0.006123918100152221,-0.002387462514537899,0.1615428918106846,0.051905933508602745,-0.00523856682566369,0.00551106876401935,-0.14604483747915226,0.04703215705190099,-0.05783976687252919,0.0016747325183473077,-0.15248400505082563,-0.42286573494857765,-0.599999237762469,-0.20126001970526508,0.18162829714602888,0.015430831301713813,-0.1045948527356734,-0.0379965036249401,0.013834634000411829,-0.11228964368336608,-0.19618198220905572,-0.1762956665616335,-0.04376084388534351,0.027346209062112152,-0.0455976237838331,-0.2048959499681071,-0.014093924783740905,0.24431344053410473,-0.520899219631864,-0.15940786099341758,-0.03879049944247852,0.10712533679733864,-0.14659874389271033,-0.0010860773586528014,0.046083478467819045,-0.1257144132836568,0.1415331075218164,-0.19869034415848832,-0.07343279221659683,0.141276456942695,0.01035076727436711,-0.2549764362357694,-0.0030356992896777564,0.3001212015445176,0.26342115153633255,0.5732490867150859,1.0403965949263334,0.02964525529686778,0.11613517098938696,0.2993269208254533,0.31873212369994297,-0.19360173042216228,0.009854051810391704,0.6072737788067941,0.8269403385445552,0.14382725247299963,0.1490212298336982,-0.7094253239803825
82.50665283203125,1.069000244140625,-0.47124886184260495,0.2747751463803062,1.6007594207813312,1.446290764875299,-0.5695808516489316,0.5156922197031437,0.27090460455034315,0.1496747272479287,-0.289524355480159,-1.56826512395843,0.48835369043548377,0.11020121420466647,0.007786379240759197,-0.005778655387146695,0.06771666031556094,0.043813828822700525,-0.08531655405031804,0.04139966594193871,0.01813987030762168,0.011835373198683288,0.1710229325832978,-0.023430093474696465,0.02437408338318427,-0.07561504493794281,0.016466382927437448,-0.04256196976458133,-0.03763963079238523,0.06664456276085115,-0.23387001954039208,-0.04342830140406968,0.13681982566939138,0.05023897704086475,0.05009573127446222,0.11712157999386677,-0.1100337140802199,-0.07913142253575059,0.03773937245859975,0.06728420499446353,-0.00902165637683948,-0.10282024176575306,0.1025170851639886,0.1224732755800682,0.06042316616732312,0.065731256772517,0.055022386896799134,0.0514230194260107,-0.13868922539908018,0.416156509547045,-0.5379206280689469,-0.08850098798673706,-0.13962030118525684,-0.01671168646941664,0.010275881144713749,0.10889915705794471,0.08939193328573193,-0.07945142242496463,-0.040817812769506814,-0.02422428159926535,0.008962719238092571,0.005714730510522203,-0.08095938204871628,-0.009662785214108252,-0.25079518990450356,1.1316164074288568,1.0221713853736134,-0.004333541045081234,-0.2976632444879816,-0.1802532966255408,-0.06304208217514451,-1.0679122230871392,0.30008910040533016,0.230976968816118,0.10753741937110543,0.4622934954794233,0.5852546483689758,-0.16077928594846397,-0.20988845148214472,-0.05431229123339981,0.937151595475739,-0.2629141877436628,-0.00399261116436622,0.047199016682324596,0.02079105758019253,-0.09114027617966793,0.04687213434639112,0.014224183292384625,0.20784829255810067,0.009121768514793037,-0.24733199046925106,-0.14848298389015205,-0.29012058280725056,-0.1405557980948895,-0.37034820169984817,-0.09075287687368669,0.39188618678975856,-0.22304447424620896,-0.3583430884852005,0.25454692262411943,0.04438693656446921,-0.6328173087443965
83.57565307617188,1.0495986938476562,-0.4182816270038618,0.20740038856321485,-0.045214336539931524,0.5331519406402778,0.4019140100848101,0.10010284085851046,-0.46260205967420853,-0.14401121038814463,0.17007313185823475,-0.045429240544222614,-0.5910751217976106,-0.2837201342450518,0.0749491294327335,-0.09091557038478658,0.02497761619527899,0.04742221043954582,0.0066077911101810605,-0.0327111117449366,0.01590664595659358,0.013351223065331813,0.040939208187455625,0.09094235021500323,-0.005959220003839989,-0.021367390767213706,-0.031525346401537285,-0.025162944635232366,-0.0018178140545353201,0.0047998735048877346,-0.11202219236936438,-0.002570409466811488,0.014059073858506112,-0.009185472655921054,-0.10237808002618365,-0.0646628768580256,-0.057240691787773315,0.033341812062799264,0.0001964711338575051,-0.03432974015423286,0.030814280314218675,-0.014640271878317474,0.006081545735150828,-0.0005870805709629057,0.11711270640195333,-0.0858888795124277,-0.18155541775902226,-0.19635729833610777,0.016785324672910103,0.023978559723237286,0.07155630956524174,-0.12551220801517513,-0.09540499597182873,-0.1061932659598809,-0.12754271523503422,0.11187039798505977,-0.016356057252746643,0.00816351920690827,0.08015758272689227,0.010883955696490939,-0.03775406910577148,-0.011007569197017258,0.000782493082558003,0.08251877329384698,-0.27232053219380453,0.13354247272309852,-0.036023898072185034,-0.31884912899735024,-0.1829358097864806,0.24047469149325668,-0.2267625837559531,-0.10690338343332896,-0.17183358726440665,0.17417738698664445,0.0548346989415364,0.2615063952447659,-0.23782818441698086,-0.4465318013766481,0.20576639584785378,0.07834006693472445,-0.15998530872690286,0.5647881033099955,-0.6705834110789521,-0.20930647610834097,0.1990495511637063,-0.13274976565282226,-0.07525270463756463,0.3233408214862534,-0.5797431577707489,-0.30354403315698886,-0.10011918396850367,-0.20365359981905468,0.13562727745742764,0.2034511005604974,-0.1394932678460613,-0.12241648112702849,0.350167062299549,-0.023740942276082283,0.051539550649983605,0.6490963225199068,-0.6039367867953341,0.8429007011481345
84.62525177001953,1.0493011474609375,0.618986000614239,1.038643708171788,0.6433874984316356,-0.6585910784111945,1.3215660431449816,1.1793203081489136,0.09004578936579505,0.0632628825383575,0.11834795782598229,-0.05372148918273894,-0.43756229127431706,0.060462003154209944,-0.16986147727543446,-0.08269330915074341,0.07887057219935373,0.008868725040583636,0.019667153889977147,0.0239272675796015,0.0038601573433702735,-0.0483046627956261,-0.003930123721164758,0.029828507141092322,-0.034696224391082414,-0.053990713059156925,-0.03503593888851433,-0.020973579976372156,-0.06924577765473162,-0.001393486187309792,-0.0062745982913299005,-0.00023654730443555216,-0.11764981341125323,-0.07908384519755676,-0.030638567588093992,0.020358914302796707,0.009790366560903917,-0.11533766498761974,0.009713092423557253,-0.0833993383708647,0.19339981809919693,-0.13878668423666402,-0.014852610970511534,-0.0054731017831025335,0.15371975796223356,0.005132656058448323,-0.02254554640246713,0.1398392717742939,0.4419771892157245,-0.13017308053200735,-0.008704896980992194,-0.27472251256116675,-0.08504605278323835,0.055275351890692256,0.13886714286797228,0.07589008134507096,-0.12551116648464522,0.1037587576273871,0.15101609338899308,-0.06582198130942583,-0.0006085236343666839,0.08688768680511326,-0.06198642481021366,0.12051478657451568,0.13246165631109583,0.33716863578601425,0.16387107558661354,-0.003990120022997836,0.056094769666631995,-0.06360425825859459,0.4338249293488576,0.32610195400845854,-0.15231885811813722,0.043652790400863145,0.1109601258141074,0.4423656166807018,-0.5208440040395911,-0.1813259659214256,0.2654934048231119,-0.012441667429534148,0.32711330901067526,0.15837024106483064,-0.1771253859277269,-0.6167497182429895,-0.1411489145806806,-0.01174120853120467,-0.1585435000620109,-0.11706908975177761,0.22361568962269013,-0.08456406432151377,0.07948307884842146,-0.03445271007827701,-0.1301665113155397,-0.23528685937141497,0.017317166873907375,-0.12578705861339284,0.36189985914787937,-0.14649395519532177,-0.15189358192067504,-0.37217063000737727,1.6308287360293032,-0.6181810769000351
85.67455291748047,1.0293960571289062,-0.5649451142458347,0.6793603705781969,1.0513042959677812,-0.8441200851820397,1.6975180782225299,0.27693966593015207,-0.5576780446505278,-0.2170946340812066,0.04476672272736793,-0.10366400993643492,-0.025601164571404628,-0.04528187816091492,-0.10139826045490558,-0.0653887136431391,0.07151906157918618,-0.05514558793431708,0.052871816415913285,0.06285573639775147,0.026683532191195073,0.10896504153641878,0.003591267355776022,0.09898212604071277,0.04180679854729677,-0.09700820621742591,-0.0543364929004206,0.026226283446577243,0.002741382633407155,-0.05141073034142988,-0.01610237164593337,0.05137310795664417,0.06081616926582597,-0.008342140185371862,0.0125524162911062,0.05205861650997903,0.015290187410474498,-0.09149874282188011,0.17982649886491014,0.007758998612447762,-0.050649605591061936,0.1478618907068317,0.2206564770887179,0.13149435311572527,-0.038836455435859306,-0.7624981068841106,-0.2213499277930255,0.11385025231781754,0.22997141219636244,-0.02653420766490997,0.5480615821997846,0.4561669299156311,-0.014071107790246215,0.0235551092401205,0.06763799819566432,-0.01993730523590696,0.15912453128623116,0.10529283891319693,-0.09004160548223598,0.01227648627321338,0.0643210113824424,0.025977069771190592,0.021014049042182334,0.2632479818449677,0.2093261066234328,-0.37922123599924495,0.23578451379236215,-0.3473201356199289,0.1973983949697328,-0.20435008334394142,-0.36449623303512846,-0.09631927525880409,0.4602319246953312,0.04231964993724978,0.1432135579593177,-0.14024178971837423,-0.07199879109718645,0.5679195399657205,-0.16235530271405457,-0.43005122215904906,0.6942893278630778,-0.07073782362484157,0.25669126894254635,-0.07923746153921696,-0.16477174253684612,-0.09341053340448913,-0.06258690330454374,0.14588865492980543,0.28386550605590555,-0.07107627342214443,0.06771223638132363,0.17482187142670938,0.07252151440861704,-0.16284392999862635,-0.04201283749318746,0.4396821276346381,-0.021170575113956223,0.41986008197989727,0.23661742979966377,-0.2569765750120989,-1.0027621827107338,-0.05016295804063109
86.70394897460938,1.0294036865234375,-1.0998192169952008,0.8648008343382811,0.7553389511168943,0.8048085746612927,-0.05478854092682994,-0.6606434558436796,-0.10477060781314512,0.03277902777707149,-0.02883943659389481,0.037323271463276075,-0.21230484723822712,-0.10953693799844016,0.3086168160432795,-0.026275422328906242,-0.02529816502580624,-0.00980742994988219,-0.03196502413918628,-0.02283921413090956,0.20572846509958786,-0.01367418304028494,-0.14215258084839477,-0.004043568257416516,0.010363892550160857,0.027752797681575014,0.026882070072214766,0.05251977288982105,0.10792026819172627,0.0043075852216985285,0.1621038965434814,-0.12108275045845332,-0.08163133344382202,-0.014581848000855338,-0.10827047693497169,0.11995469136918004,-0.03166973927427103,-0.11193156401895185,0.2326939132234437,0.12275879864995641,-0.07897751915861237,0.054337990679191775,-0.0635567962457347,0.3603997047790126,-0.10317121681639796,-0.0002836880311153974,-0.04792253728252924,-0.07206067983081652,-0.027689221832824098,-0.03963100651727086,-0.02765118621594566,-0.28147963698558737,-0.07973938750088111,-0.016590337237318984,0.030612946731706947,0.2625343100548666,0.09895612709764415,0.05730842742750075,0.06804481696605189,0.025009987131301963,-0.0015011622016000395,0.050818571461251724,0.12365440765177697,-0.3841576109094028,-0.243122998725059,0.9658310922159606,-0.3695279923409525,0.16767874358487095,0.014361434681327402,-0.2717769709465814,-0.024718559052295874,-0.3791471287666178,0.3147824726530347,-0.025088142619623513,-0.2890049640004544,0.14032645231845137,0.0001402091486630147,-0.2184050411796461,-0.2775459368032991,0.07621133690761006,0.3137581089508761,0.06345618700494557,-0.019679335636884954,-0.13724793827659185,0.11125250638425362,0.2889043096161226,0.19036957451459607,-0.045133855021248934,-0.1906154620882665,0.06851206663592009,0.2568599576029583,-0.36087622650922824,-0.7337634023249217,-0.19204776027701742,-0.0352286785301382,0.4953345109131523,0.5234492145980847,-0.38075576631529995,0.06265199907551217,0.45368007486157025,0.4508025375678132,-0.5605875765980252
