start,duration,0,1,2,3,4,5,6,7,8,9,10,11,12,13,14,15,16,17,18,19,20,21,22,23,24,25,26,27,28,29,30,31,32,33,34,35,36,37,38,39,40,41,42,43,44,45,46,47,48,49,50,51,52,53,54,55,56,57,58,59,60,61,62,63,64,65,66,67,68,69,70,71,72,73,74,75,76,77,78,79,80,81,82,83,84,85,86,87,88,89,90,91,92,93,94,95,96,97,98,99
116.12989807128906,1.3897018432617188,-0.06585115883656545,-0.009929230852632068,-0.3329832473754051,-0.2642542395953814,-0.16958557497812363,-0.06254397698783024,-0.26684153150581963,-0.10950341688408995,-0.04747549033539456,-0.012173260934873788,0.03212625436815046,0.012368736023682238,-0.004098692479329674,-0.09225942090353231,-0.1672936057260245,-0.10076596077642147,0.032352093247129225,-0.10492802129666173,0.10269116161331215,0.0004888483409342311,0.04645440914910583,-0.0737101571543282,0.09591036294403735,-0.025322748803437344,0.1328467075307123,0.04092264163280844,0.07154033719453401,-0.005519955195660687,0.11051565616274903,-0.009492269590568156,0.18225559016107065,-0.07215822994738777,0.040624164923287256,0.016442625621677875,0.18382612713125623,0.02072937588937176,0.12467602794229575,0.056792399718745015,0.14514119033718278,-0.046980492537385156,0.10797770628394565,-0.12508424024921172,0.05706018692551029,0.008797791202142344,0.10331989527311465,-0.016439281239338178,0.11709545681722892,0.021936250752382157,0.18853844478726162,0.0142373754992774,0.06835489983216352,-0.021204534628798715,0.12396986350901133,0.023191799667349692,0.14662283541852494,0.012621312830723468,0.04814109172971289,0.006962030500734355,0.02412459011824203,-0.005175111117769586,0.09104321810904777,-0.0007920284131173467,0.06651383215866877,-0.046592342547027,0.05839480616281969,0.01579550014355653,0.07718048590721506,0.025803039355295557,0.03130580830412434,-0.11969049940630459,-0.04327457629889932,-0.009121615566708804,-0.02073713739518534,0.0009994050489760316,-0.06533721230117011,-0.03884118074894258,0.0548910751386227,-0.05758985245058489,0.00842447160675068,-0.0807378111982191,0.016051968780672866,-0.05079256151014027,0.010855477811425814,-0.054066221260728894,-0.0027103943408350456,0.09313318002939966,0.0032971782309279183,0.0008846154384690061,-0.0977648254935426,0.020007795783028096,-0.05225839538305785,-0.11669838737842757,0.1212287690774093,0.09949296741046745,0.023442071874176306,-0.014667122523518008,-0.05874169978628058,0.03267411936892186,0.07697335770882925,0.017413757968305882
117.51959991455078,1.4397964477539062,0.01838516151292917,-0.07856121951616783,-0.3575056406187731,0.10081502353616131,0.6254437038578129,-0.5487459189009818,-0.15125355396592888,-0.11441236139876919,-0.18440127410918414,-0.06143296755880593,-0.03861864099386082,-0.08189226003737794,-0.05278548732689715,0.027922448303540418,0.029978727088789348,0.0775455596427565,-0.109340942937629,0.0459173341350765,0.034236666488206266,-0.08123350446622926,-0.09718093332043423,0.053332573088763977,0.020985952192199463,0.0037737812700415064,-0.06252966861070677,-0.006848569560491612,0.18634380933275052,-0.03568123404784703,0.003380689834363104,-0.2122905282370509,0.016003295310528253,0.1772793293613122,0.001896376671799047,0.03814363952672799,-0.07666286852458305,-0.04739612261413775,0.09555887659418696,-0.038699545991487505,-0.01414904377629452,-0.0006676313231970472,0.02917628623180758,0.0642588297610534,-0.015480100946624803,0.0022785572850658117,0.015744488138957742,0.03741046557137874,0.0462726835802592,0.03379883182146145,0.05610156389868809,-0.08101531760172892,-0.03572547084686193,0.0016895119967702404,0.0404560191076876,0.0864867122012313,0.009086378765632189,-0.07952628373725214,0.0013807378956220708,-0.04134658801613565,0.014931516409548398,-0.01246971370881755,-0.018462164527175782,-0.016626342697561015,0.002970534839921806,0.20618425675242444,0.0004320625344718657,-0.03124075382175283,-0.11395146504898422,-0.013379106575163849,0.1421809970762438,-0.0005866151887438456,0.005733449822940887,-0.0016046863418600827,0.017813004180888152,0.08401995511060284,0.034742233700869374,-0.052738105483004026,-0.11265910656828336,-0.015714936987324287,-0.024077718489331042,-0.11427651188191387,0.1260914910555245,-0.07163108850917473,0.00783798925448629,0.11496583696526899,-0.1354998003736118,-0.05612926866030485,-0.07194903862344618,0.1179920878346959,0.01548964443102127,0.14298763745375012,-0.0939577999644199,0.021160426583740365,-0.05202347214279469,-0.03514186993216928,0.11125876353969737,0.06998635647858852,0.07524469539323772,0.010196915689367226,0.202192585112334,0.02274403887723453
118.95939636230469,1.45989990234375,0.15569245588038477,-0.030244328815439425,-0.3197837217970126,-0.020133744108338555,-0.16878486362390593,-0.005300915554319505,-0.08071758461790339,0.12144422794079661,0.07467859752423359,-0.025461238675909468,0.028185691866117645,0.023084244936254227,0.05439742678785359,0.008178126780180437,0.06750064485030112,-0.020239372129585136,0.0745839674766598,-0.019947548975223394,-0.004166752606448254,-0.016328502838520963,0.011379567967354608,-0.09127515626627397,-0.04329956169664102,0.001623800083020266,-0.057285786644150856,-0.020896448215126408,0.020117221943097802,0.05733592350600325,0.0028303790134316656,0.06643365949932391,0.021839074598500468,0.04576505818328071,-0.0812853498141721,-0.03529649288584368,-0.09504700316659727,0.0027478002394447504,0.06980343233390728,-0.0002566504428480529,0.09217113223640166,0.0036074765730147217,0.05119979649995561,-0.009680891355666214,-0.001172526730226108,0.006897616512673135,-0.0036916248080236585,-0.06079712969012753,0.041447709150341155,-0.0257758456761157,0.02802078529641056,0.005824243764506243,-0.01662107284623195,0.1068563504508968,-0.02648075732107767,-0.03741120064298292,-0.03579464597657316,0.0005967397837309907,-0.11048790322698412,-0.04208820680268977,-0.045571047683845706,0.0154734382654655,0.002686901401348905,-0.04352629007630556,0.2183192115996451,-0.018874149228299785,0.010933306712849781,-0.08827900160554075,-0.04961010938239363,-0.07635935974653527,-0.007110645572074867,-0.08239739666888214,0.05662315668142504,-0.04267054495324139,0.0024111240630376118,0.21277473913655132,0.17712325728182549,0.04150558486184958,-0.0469565724002953,0.004675678947913001,-0.02594570298126603,-0.011002595975240212,-0.1017438517679946,-0.005907500170086344,-0.05296959000503921,-0.02496685309757372,0.005359819545587153,-0.07300353751863126,-0.1751852187943767,0.0006901606552821241,-0.005272680061435664,0.03538595208533214,-0.018999722790958556,-0.02516628126141409,-0.07806205308339892,-0.11424699710643826,-0.13243522667721133,0.046773201031171475,-0.10000639799297417,0.09292998211984772,-0.019707097398953433,-0.15916348276164008
120.41929626464844,1.3996047973632812,-0.16418991765016971,-0.48838279311155003,-0.008619322493060785,0.11168549584274277,0.18676849362834122,0.282494448105579,0.011570550367468986,0.06948175447378635,0.07868511201541036,0.11105934430819789,0.03264832584201733,0.011407055551319673,0.0022515943566687527,-0.11982407118932598,-0.13354404461932362,0.08160274393337733,0.007315974951754928,-0.03766209775361712,-0.016759978622752414,0.127779617060417,-0.023904598765753324,0.20163788745643288,0.0070560232552976335,0.054175234838324544,-0.06993181006907222,0.030487336699448513,0.001911883501878184,0.01650050415687121,-0.0167725339077822,-0.040705040424661915,-0.0198002992829217,-0.03598913656333819,-0.05853159647271721,0.05896848779089856,-0.1031614177985056,0.024433078248059847,0.012777685456519243,-0.016721883461479542,0.0359270501145341,-0.03517114015516678,0.0031149846272385817,-0.04154646329255558,0.17906990230169778,0.010905460191511939,0.0955051843166502,-0.01525706807118975,0.06035489090185741,0.040818440264601075,0.014149283049015809,-0.006109157626481894,-0.03505171093563834,0.0010872091800751284,0.11756958186881716,-0.06769716680939072,0.02987413215574021,-0.11646704959609323,0.013214911364800085,-0.0949842460281292,-0.019313758052272582,-0.014694441968572123,0.013811240885643398,-0.0259648780821415,0.014154670600862576,0.060768487493708626,0.022847962536324293,0.13014997274679513,0.04031686972470977,0.06195921960186741,-0.023185251474864874,0.045622583674660516,-0.056585433361622375,0.06637552938138587,-0.01348137067425794,-0.04753921547734509,-0.04945640110407913,-0.002418675981093666,-0.09440504944851848,0.026105830538205525,-0.14016997319025382,-0.013847481641945207,-0.06191686763032869,-0.029165725802112442,0.03905529011720633,-0.011193479925720952,0.004504879643151487,0.022375820845981286,0.09373812358193301,0.0009821682011672658,0.16138163847167478,-0.007870417045583228,-0.24041079806542134,0.19521835253858572,0.0197446774710212,-0.23250277068736191,0.18848050514331022,-0.15166990251317558,-0.054135657738097316,-0.1228521472299855,0.011445848861382793,-0.3589731769777488
121.81890106201172,1.5098953247070312,-0.2244993907990209,-0.24882202063996045,-0.014014001501937143,0.08631637421443773,0.31041042545663694,0.29026912009523376,-0.0033028314981402404,-0.10721754144375864,0.034233478345670226,0.09251542421618648,0.03693248945941037,0.039055019661659425,-0.003820727724501892,-0.00391347256703779,-0.0003946351248915683,-0.004215401080979365,0.041826105775359786,0.004867161394324928,0.006016794924657612,-0.13351182314906845,0.02485170137046348,0.11821533274160909,0.02547200429683495,-0.034130914760672273,-0.02173797966436511,-0.061117222619536435,0.022978590238967804,0.019672820145507593,0.011813331529719336,0.011066145443957044,0.00029271426310446087,-0.14314534497825337,0.0008064650777664213,0.12118848543740804,-0.01979633019709358,-0.035440461016542885,-0.06675081593645364,0.042351473048416514,0.0018510744211087994,0.0022516030064550887,0.014329474015180916,-0.023603099715175907,0.010670258593616339,-0.0674237887212562,0.00992469131324535,0.2142517562990566,-0.0031724636975452775,0.011159941452682478,-0.0007824967608436179,0.09714766740778376,-0.02031586528765511,0.013677896742957411,-0.02081620005740526,0.04452171706420862,0.018086307811635133,-0.1395722353867026,0.00945852286771439,0.10887101966182168,0.010045669362744637,-0.09023961011661273,-0.1469415700843516,0.03586071144141542,0.0786142628349066,0.0032486376425853096,0.035406847789757875,-0.014479044027868518,0.0002554452400937721,-0.030323571706471396,-0.03091996754201519,0.15965410079665512,-0.041507037838094674,0.013122079539395051,-0.01610331409027431,-0.04026850470516963,-0.02863590191100357,-0.09445108269270373,0.047144522456437764,0.015400707987927345,0.02328038175134782,-0.019587373960405885,0.04362256353120752,0.10641784510034587,0.021684461888499883,0.014356190523634646,0.03474511061421045,0.07434389031262921,-0.022980522373473405,-0.2332513659203063,0.20517338460407883,-0.10941363729113487,0.04697818927261214,-0.06158866673974704,-0.042504762793582486,-0.01589919893697947,-0.04708327886907221,0.07409677082754525,0.10025459218336938,0.005309201825629664,-0.0014183003691685958,-0.13245165964120867
123.32879638671875,1.69940185546875,-0.2678920028115907,0.16246233751328104,-0.20000996533572724,0.08525224615202746,-0.3949424119398062,0.17477756763209368,0.03332134154083161,0.16474023716078356,-0.030383844809380743,-0.11615161832498715,0.0011104275915922307,-0.025545666218724755,-0.014263410846309785,0.037509676237825994,-0.0007181207768314716,-0.0287628594022824,0.13791544817351636,-0.008473655601613679,0.13525096942184806,0.012681744142905304,0.03576706628387482,0.035168006764717374,-0.05761922395152866,-0.012420088066427158,-0.04881106088692586,0.027133144303049545,-0.11003862990824215,-0.00012383437662869884,-0.00423654368223868,0.0041222051507543295,-0.08266896004708583,-0.01039734511110325,-0.0856962576247021,0.035405869905888857,-0.06698699631255732,0.22747028076502676,-0.011874039956514301,0.012672577317871594,-0.006636605254055583,0.0855907762317504,0.08619215908665415,-0.113215828036929,-0.0551280232240857,-0.015124310123045886,0.02027064648296187,-0.03563688546223717,-0.011323684623328173,0.01296747484929129,0.02922309768994495,-0.014675256851834554,0.021666552625302645,0.00135986406975266,0.11946016550379353,-0.0752045939238111,0.07830111804016923,-0.015383041651566056,-0.009627584461237706,-0.011772901356851518,-0.08371239193201241,-0.007145142208799939,-0.13249772593754858,0.010409826581437352,0.005771042114759262,0.001810075971376906,-0.0539181044368901,-0.07270392416555276,-0.009629704391607583,0.031785759556584185,0.012914776915446513,-0.020220445742917127,-0.027249696133428567,0.17377506671899315,-0.04310369821013625,0.08616831046461064,-0.007676151537101529,-0.11601587896981899,0.15179074159868658,-0.039188562748538526,0.052466478808380665,-0.08323493529271991,-0.10849082188373033,-0.026758296142092998,-0.026273285152556752,0.14002955748497156,0.006507889485811685,-0.032117068730781136,0.047520771010424935,-0.19640933262118504,0.13265572981785537,0.01195730894842087,0.0183797276547681,0.10348914125130705,0.015602431211478711,0.027854171673187964,-0.133638130561764,0.07797515654899231,-0.06792148636148472,-0.07684914036568138,0.04478284863137573,0.05566321870635065
129.45790100097656,1.389801025390625,-0.03224855837099592,-0.4949746802262302,-0.42410976941376227,0.22512978075630147,0.0918205066832426,-0.08779294140244501,-0.030261304600877052,0.448880819135081,0.1096108438767963,0.24324845018955762,-0.04429478816728436,0.012828741540598251,-0.11807597593873491,-0.23990570210622342,-0.005964289745637988,-0.306386652798111,0.23211875913460706,0.07256588195400704,0.04714366197471105,-0.01725637529295751,0.014148354785153392,-0.036306440513730734,0.0672920321393602,0.056318903673234236,0.07563357901829676,-0.002831586742229904,-0.07943973340351995,-0.0008690728709528882,-0.012537927308525657,-0.030576579427946435,-0.007683501688336822,0.10816180871226602,0.053402887399003084,-0.01885647905261295,-0.022260405904376526,-0.01790462061008149,-0.10592738371419935,-0.0352903522461299,0.10316816303158971,0.04140366133352205,-0.05340704927632128,-0.013924028835583562,-0.004088148885263536,-0.06836429961913662,0.006196740627059701,0.11697751489059485,0.01970591908674396,-0.012118691071362868,-0.07413676227952586,-0.00013202681290542932,-0.02858855586575941,0.008855416255664758,0.1434230721565867,-0.12328128694068857,0.00986333782237757,-0.0016170286267762927,-0.05957747756193167,-0.07426976886233666,-0.033263325756311246,0.18743304526560867,-0.003312368049170203,0.03789155424989134,-0.12100669127215125,0.0052076609505593025,-0.015911368880653625,-0.10491496618733302,0.060479060643375326,-0.04158567787141641,0.05303962316049236,-0.1211308503417885,-0.01967086129983784,-0.0543307146872814,-0.0056977282973772305,0.04542097182597855,-0.04906417232781918,0.031026754474879226,-0.1008699589173912,-0.047250496165309915,0.03645812818870971,0.023830699613992527,0.04225720396742294,0.01864638185253718,0.00038839152121319075,-0.05252337584069052,0.02513028121785913,0.01934584515991185,0.061875249107145314,0.04005199998728298,-0.031149956285922903,-0.12510777588787586,-0.019256284208103186,-0.052493558571362245,-0.02005630130579228,0.11919382685771161,0.18992496151464267,-0.07638322414151878,-0.031255214876085784,-0.12539329517720813,-0.03784564789793332,0.18877139365522416
130.8477020263672,1.379791259765625,0.19346500939977132,-0.04529973339190862,0.16904240141973087,-0.009565129548117845,-0.2381634486229111,-0.32058373741828494,-0.48571678789757883,0.24131724334386143,-0.016159625624767,-0.025666878433631978,-0.02929659212894272,0.05328298408453388,0.17403030353776136,-0.021436956304182783,0.2531612841278385,0.07646794973002169,-0.0756446563365777,0.10372819625832402,-0.016861484834540356,0.3640366345248109,-0.10898301840918792,-0.22131500343550026,0.2581653391114985,0.23621846473734937,0.1676497617953346,-0.06418856067418036,0.017117937398361614,0.0867092849692463,-0.018076413744154016,0.008534749162176244,-0.0916137489631402,0.01272504347866359,0.05784646441671184,0.02368479921882054,0.031216207985428693,0.018516442732042466,-0.00406986905284106,-0.06022604190458067,-0.02695802453440376,0.04343202709186055,0.0007449000057238014,-0.02458406191667792,-0.03912892032362813,0.015938880882455556,0.1277764198313153,-0.043777997200279126,-0.056194967581649484,-0.1490465114091529,0.009825886709552721,0.19127202528970497,-0.03103848784197283,-0.025124529400141184,-0.08637887735962999,0.008324041036099164,0.11194029992580959,0.00014207339526777516,0.03241113857632798,-0.025187881963661087,0.05537874306293395,0.0019280648757566913,-0.002654221623132401,-0.03198109600716665,-0.014902894270269067,-0.03682504303831671,-0.0071445276472037605,0.06884800092274222,0.007933697469894706,0.03020677785556429,-0.029000898158879972,0.05096350418261838,-0.08581513793155801,0.01205722598643387,-0.045175613860981415,0.02004921596987863,-0.2073577896966503,0.008248760579514933,0.15888546208005616,-0.06522676544773255,0.0064075635395847725,-0.06695981771505762,0.005815271972235678,0.11185221332425392,0.1000254933869415,0.017818889170371277,-0.10987886486156698,-0.027571015953102164,0.1421333649542417,-0.03354126370325412,-0.020243007403327403,-0.02428398788922251,-0.015275323748916488,0.058347606535422925,0.030884575818340733,0.043763441217294044,-0.05654867932364831,0.0616310350865219,0.21656185320761653,-0.09634644689453213,-0.4059045059319814,0.07395235897263946
132.2274932861328,1.3498077392578125,0.06460671790543052,-0.032799058684325214,0.13332413143740907,0.27437914393722307,-0.08101467104311992,-0.10725329154275244,-0.33383496180199224,0.2385161677563037,0.18905454522091142,0.10922032501139096,-0.10385741424651812,0.06001269687196984,-0.08536625699429058,0.0217565035174207,-0.07342401925930941,-0.06786763155177913,-0.18296247628847695,0.030759885382234536,0.0216491747159369,0.09153469442366495,-0.034864648495159016,-0.08451165770014156,-0.019536827116312487,0.07914689664001882,-0.10434930467390292,0.049523411225480464,-0.0031841636898325993,0.07206981505822378,0.007301371131838846,-0.07221887401941801,-0.046521735339817114,-0.01860899670946936,-0.010212194815015008,-0.03130211174508942,0.04043747979968814,-0.005407102058794444,-0.05284852415753152,0.04085789204737664,-0.005522114570024259,-0.04022815812338469,-0.05756788595780182,0.03150013181977414,0.027675186936065632,0.0011312445216628154,-0.04025928794262428,-0.11359614987656143,-0.013997450359844081,0.18329610449061456,-0.014267763069176341,-0.02753725113822962,-0.10133591851094319,0.008389165193315189,0.07619236249067891,-0.00600185943423271,-0.008014899166511916,-0.07186379304532717,0.028139230051221886,0.1845965591197472,-0.028990029210103685,-0.012200669536944798,-0.05180152715228367,0.024565111355247644,0.11988997225228128,-0.029094936858685878,-0.03341903389941661,-0.05096827997177767,-0.004940173750627306,0.08993121105581056,-0.001745563396071178,-0.049774222180946,-0.005315243066408122,0.06314632307672739,0.02434275170990468,0.008712691160370755,-0.06324352738937726,0.06400789250399602,-0.05886317277837123,0.030952735664523338,0.07443944796920188,-0.0696434412510257,0.0002666719939990875,-0.07219927360722027,0.0768046799640303,0.19720067587790838,0.19993821127470496,0.020708333727347445,0.0027973729932609386,0.023745497080611022,-0.15183024167466042,-0.0788562997264342,0.07473852791709411,-0.12226921982582056,-0.042310254188803895,-0.13577268614632668,0.06295936362021831,0.020196156797481823,-0.02229862798127521,-0.007488044727999026,0.06505060578284298,-0.2079020681161317
133.57730102539062,1.3997955322265625,-0.18520464449342552,-0.05843677921588823,-0.10069176387905324,-0.023364829185376218,0.034989241901580787,-0.13732655816477596,0.1487218011276568,0.41913711561022476,0.6995671712832356,0.07974398237074064,-0.22238923972058905,0.06656990687127773,0.0611505559167874,-0.0169127846853711,-0.01950220740516875,-0.12427874309648122,0.056740613165520114,0.07512717272440254,-0.07890876886176547,-0.015631202273682834,0.21898146375177227,0.027493492620462627,-0.05604230147750215,0.052056829353998454,-0.06501295831573543,-0.023234459314315566,-0.10011402886586745,0.018519881710001577,0.04534534751767392,0.022361126912728402,-0.06216788780762271,0.053157695647884876,-0.04497857442646542,-0.007387728990356154,-0.03594101631829165,-0.014376208043590343,-0.023705492216201763,-0.12505896237801883,-0.08494253541121102,-0.006792048362381122,0.019950435831105798,0.051617070445253634,0.06304379360150819,0.05323022759190553,-0.023774183694469635,-0.04257347799591845,0.005477578034568911,-0.027673474376365068,-0.08119188188631715,-0.003952876130767953,0.04969465683349388,-0.0015577541784429624,0.0007951469498098091,0.03645569181021985,0.0020463902292033797,0.05899814341808114,-0.06497263008356205,-0.03073434029490911,-0.02120287282797214,-0.11979395491754774,0.005521541523834003,0.11128933821898178,-0.022191668091975855,0.013708088442702722,0.04632880120322623,0.011854569129415043,0.03533285499679695,-0.10199947168825921,0.020793439802763145,0.032637029681158045,-0.08587153503861152,0.018436331722378862,0.11336546289125897,-0.0029448164621696284,-0.049876317924402544,0.04687861730917406,-0.021121898002009667,-0.03527946863501079,-0.07095154329616743,-0.030071577025549735,0.05817975738755609,-0.012136947234871699,-0.010607681848735409,0.05635174252949224,-0.08932252157147293,-0.023788091782795007,0.0038212326225599627,-0.1300946214876872,-0.11507690869584512,-0.20292228814163452,-0.02487972688320168,0.21916489375545925,-0.09024360650956348,-0.10537639585584725,0.05687424999254091,-0.04417965050317375,-0.02867542626361566,0.05818917631568979,-0.035559803209935466,0.0660510186020746
134.9770965576172,1.3397064208984375,0.03363955798762325,-0.14043042830243968,-0.05505195991571811,-0.31775571713661854,-0.21495564881175702,-0.1330262850831089,-0.2797651091339707,0.10015003009581941,-0.06395781362784177,0.09072037976919968,0.012781611804082979,0.05865727231563778,0.09536510857626851,-0.007999849079546748,0.08328930890589475,-0.09796163398316457,0.01785365249036891,0.047131886677392376,-0.06880428222396423,-0.005619897490584084,0.05979813396199223,0.008899982548636807,0.02113350331338964,-0.020314578200666206,0.041975392666239696,-0.03338154210557272,-0.018988686443974435,-0.14476553094011607,0.10210393263343531,0.10303101347223141,-0.026839716249098453,0.012391459426101092,0.04465807923959764,0.030697736183455674,0.036136231466709925,0.02158759042319409,0.09683674572348243,-0.03867949414623886,-0.05179945122653823,-0.08653760938630872,0.025214005871876805,0.053078784452795194,0.05141986305410398,-0.08654546046611833,-0.013798365023600401,-0.04931621237589899,-0.0001320047656741324,-0.05120112262885737,0.030083104370046392,-0.023752024030715177,0.010908409314830442,-0.1314446701185508,0.018738359230570517,0.11896502105845766,-0.05649738690834891,-4.764032768145342e-05,-0.061186636480578316,0.06275358518714566,0.013392641537876053,-0.029753610623502597,0.10797574289785349,0.0007262669085892903,-0.018706464396793725,-0.07227554762898994,0.037935988497276966,0.1888184922447105,0.06743955914416183,-0.07721632958871917,-0.07832097922091372,-0.012914645634669555,0.06575263284371272,0.018849172069040878,0.04000646753649674,-0.08178350728485106,0.09242653456641634,-0.13502274965190633,-0.0003748830716504947,0.1117821396705593,-0.017013630285882538,-0.0115697232727319,-0.05085967480196801,0.005670571575977163,0.012967435730008253,-0.0009142373522677623,0.1032235317003202,0.14622352483918027,-0.0077985694663288575,0.11068092941001205,-0.0065114985082546685,0.07073976730287462,0.24909201213631593,0.05033542860846836,-0.10658222772051983,-0.07091459936223529,0.019998450230801424,0.09732465640333614,-0.038513900991368206,-0.1526233871476004,0.07727780429206108,0.11647578297466485
140.7758026123047,1.3701934814453125,0.012233372116810151,-0.023241721028802467,0.04508079227862685,0.019279910001342035,-0.0878379662432983,-0.20148913017520237,-0.1795830672528958,-0.15285305103747351,0.08399906749116631,-0.030550861913517743,0.023740733406362343,0.06309292008308381,-0.1285948042984008,-0.016963540965626127,0.025179855586498184,-0.012635793725396473,-0.037150091425377244,0.003931309877015177,0.06348363341565216,-0.03723813328968629,0.022495850955290754,0.07500680311307684,-0.023133235750382498,-0.021642285524112004,-0.08480804358181616,-0.008897856367147282,-0.015511204623033736,0.014316751264918229,0.13619494168490445,0.0482725246610498,-0.035693538564023415,-0.00798710198283056,0.013111051341264602,-0.026546473450123065,-0.040180301191510504,0.1361801098794118,0.039428310183102055,0.07370076576866277,-0.018941665317143447,-0.060995883282170614,0.0014962675884518748,0.04972676095962834,0.10768231313225443,0.06498354302688857,0.07571903082162967,-0.01968522774650326,0.013797390038186322,0.026026989917304438,0.0010982957762034461,0.06390197545880405,0.03702876301517239,0.06778298294688145,-0.10275710382302278,0.013794792045519966,0.025811073434513,0.026748897662604302,0.02241798597014933,-0.04863150633739535,0.00912662214651309,-0.08889067373133643,-0.013373066451670869,0.0006462628323211772,0.002136390437283069,0.07993747960603613,-0.02798067933496984,0.005452800982259906,-0.07758333404754936,0.0024496924911008603,0.04705404884319754,0.016925208196586945,-0.032684162544337335,0.09018097993108727,-0.1499671520110667,-0.1893460343555174,0.037503575110073316,0.0560876361261757,-0.005354692931096623,-0.008206142903335725,0.05616835763818605,0.014068983128193515,-0.032231032940161386,-0.004947376085012292,0.06810727193783736,-0.04364489117694816,-0.06806236872424519,-0.053609992487581394,-0.09517917724609717,-0.28453165561852933,0.030155697916121355,0.09741431099530343,-0.01557991974824119,-0.06360308071829669,0.06963999753277562,0.08343478304216462,-0.05533159874671608,-0.2289571049741945,0.10131816056327038,-0.0062877304548887465,-0.27828653538791864,-0.5659554455562034
142.14599609375,1.3798980712890625,-0.4305552369393229,0.0019516699892367512,0.47693219473470627,-0.11663554549849804,-0.35938682240132414,-0.4154252712085268,-0.4591825888423462,-0.3858569660716191,-0.010909739183005857,0.046308051335903246,-0.019504909290147966,0.03391365775202887,0.1273654803343295,-0.0508255931451647,0.035249769051166904,-0.022008025300854925,0.03067683659049198,0.013772434799077804,0.008787200245626634,0.06009793503123437,0.04121737769754361,-0.007171082023479627,-0.04609503330940971,-0.11760285034717743,-0.02419643993373792,0.10292803180281926,-0.114220757349775,-0.013669609033325467,-0.1291457790208872,-0.04875294662194094,0.06131682611479459,0.04485063709506961,-0.017349942531674892,0.0010879556906329868,0.0350109681619207,0.014725528516317851,0.006525826320137188,0.025919761999828796,0.0558040821107391,0.01612091629991568,-0.07362817777056019,-0.11360909163952862,0.02610298757518589,0.13871924847647527,-0.05609985785295685,-0.04248509991810637,-0.05478726777878774,-0.012412705835943836,0.03087173852345977,-0.029055531182003297,-0.00776375801515635,0.04116173555896134,0.025831927713412837,-0.06301778638389939,-0.1138510172311711,0.012224464420526606,0.09461753341405334,-0.003946315733616264,-0.021289761739706217,-0.03706062618080554,0.09099217071727692,0.09476693654930717,-0.03491966293738501,0.0006700582729419896,0.04394688027220847,0.01694500149387841,-0.03074155808922914,-0.003337741636001774,0.04079243811413493,0.12687483992140736,0.03155541684607144,-0.0018584672391186682,-0.1379088646301882,-0.015027511267513585,0.12036263858259763,-0.05269432119914787,-0.05064549525593555,0.07290844162493795,-0.010967148238931858,0.01546924456337869,-0.024252901496269727,0.002413509464374427,0.10312118368387532,0.0796516844383158,0.04556894080584482,0.07632520689948415,-0.05521730492434225,0.24009017495412568,0.0005075970756032028,-0.08535218370673613,0.023837519587522685,-0.03249921242090419,-0.051939924060399566,-0.09265349835695341,0.0369002544808467,0.063458514208427,0.07805428524222463,0.4639666216572934,-0.023569154691249955,0.021682591472818202
143.52589416503906,1.3798065185546875,-0.10279260578120711,0.10573630104730534,0.09013105052878279,0.2699208478907607,0.20336555538432544,-0.6540322897039644,0.15431325219511965,0.04791710873393684,-0.1250352453933851,-0.1516666863114165,-0.011221616872115554,0.0729335539004575,0.05263382765318912,-0.05919445017640508,-0.10471992316557227,0.0296961985770833,0.13271812849934114,-0.06278344979091677,-0.026196742599560507,-0.06849087630769315,0.047322036762167174,0.20886985362773053,-0.0346814012744392,-0.038830298333697784,-0.09707599158003499,-0.014741121627350745,0.21641275626692036,0.03721532549697472,0.039491837450871814,-0.0771750615624515,-0.034100598650531354,0.1094877883636992,-0.006561733576003072,-0.013466624637511682,-0.07486197312059903,-0.00232136444188141,0.046901103316426926,-0.09048215653294124,-0.06961787320826635,0.01237620660116033,-0.014942380904603335,0.025878263422167633,0.009797775527078584,0.014149543822926826,0.023134189579450862,-0.05803972798001949,0.018202706137624234,0.021665093054912397,-0.02266464339723693,-0.004673989873388226,0.0007045431233994315,0.056222874149458785,-0.08049812993577056,0.06081481527841364,0.10776557264916999,-0.061374746204486186,0.03808732878927984,0.013282363703171197,-0.011203044665134079,0.10638451650352299,-0.035356466203082075,-0.009518726357071692,-0.11532063022096786,-0.017481730944218333,0.1042032183566665,-0.009482775556594714,0.029599623760437798,-0.034369900647841164,0.09824698943439117,0.10111517141298204,0.03201043329403651,0.01102042818542677,-0.06127757941709643,0.029003771915181276,0.12657470243291022,-0.004133308473498966,0.0008201679618916324,-0.0794998738514718,0.007865683030079514,0.1483159978246808,0.01259001194841308,-0.018296569524781668,-0.11224829311049649,0.013203714950281423,0.11725803996468216,-0.06904822588375464,-0.08120720624330832,-0.03613366975745796,-0.10098551523614702,-0.10205050716818038,0.041998652462512547,-0.06202819407107811,0.047882892272177596,-0.14197434916717566,-0.049334963579805435,-0.21746933218616263,-0.07518879846149402,-0.22977210225918737,0.06581954272124563,-0.018653903002896904
144.90570068359375,1.3892974853515625,0.13151177057287813,0.05730838020304618,-0.2790354861606278,-0.270655725161933,-0.7689322904062217,0.08446282654861983,-0.11052853856288955,-0.4416527185740452,-0.18228025954818922,0.04217888504299884,0.008428037877757373,0.02170816988588971,0.01027725322921573,-0.03656257266058429,-0.05817256619764446,-0.011955055566218911,0.03446273867679825,0.04472049668354473,-0.05563805333262845,0.024848155323155322,0.0188846389606117,-0.023970163879269646,0.00799132346266824,0.08733892918698015,0.06290456302314043,-0.027914503708538818,-0.050344660287582284,-0.009993504172477647,0.029231044869764966,0.010500533208467592,0.052449259555080584,-0.13155044609626856,-0.0009618269642077959,0.055446421557748954,-0.01490075563836472,-0.08911391007488106,-0.18317786413312695,0.01836909284156244,0.10202274879961004,0.0034480567053560467,-0.034497899771729464,-0.1314797277367587,-0.03371363516080829,0.14918332127865624,-0.019877082623486794,0.04354696385983626,-0.07170466773626843,-0.055242442319021895,0.07156240306145505,-0.01009604575835187,-0.0058996656092690815,-0.14319292350581128,0.02240988326038542,0.03511045824599231,0.0004285268164761932,0.02309913975399257,-0.03690052670917878,0.007541196962844487,-0.008500050493347504,-0.08258362064609506,0.054142607051367767,-0.023602120367005916,0.011788011955857824,0.08674514325401353,-0.00041572113424270416,0.002882277028883412,0.04037550441942253,-0.052211105319021796,0.007228964696919433,-0.016112410962006326,-0.0156452517903617,-0.042907673014447784,-0.018959237677267392,0.06849677395171312,-0.0529065593718271,0.016425910355453086,0.07685425416516654,-0.030685578149887243,-0.06387239648710016,0.01542241952303576,-0.01251786899644193,0.07859998975266977,0.00643843926997683,-0.06000904686421221,0.015200774587302623,0.016876742441391448,0.13000563870693163,-0.037239793028858534,0.06437521629100952,0.0058502816529060475,-0.1630212937070662,0.23696204284700756,-0.1694985849658694,-0.007037174258825896,-0.08304445962351281,-0.07568432182679592,0.09004410536948175,-0.20835861573161607,-0.015897596901064348,-0.16423999849593698
146.2949981689453,3.16009521484375,-0.03332926455529269,-0.007461854170711028,-0.04597863040592672,0.09253527490702496,0.19133616262453246,0.01580189376637746,-0.04907809003719643,-0.1370235096502658,-0.24545365934513425,-0.32240594206818446,0.026115215221822374,0.013764707376077046,0.07808589588078672,0.012553134358087168,0.014473858858873376,-0.03464211390795886,0.009607720644602158,-0.058928130121463605,0.08133054912225886,0.0513637124253366,0.04051547513792998,-0.0017890017714614573,-0.03649932806080073,-0.011437743561953623,0.12816387739585167,-0.08196196979401987,-0.07308463646924811,-0.15445326085328343,0.05312122566431635,0.12612496767890038,0.027453813887037964,0.09781219944362032,-0.15029742938971113,-0.0016542212441295252,0.1315122617604841,-0.017656088591451128,0.0032465040218034244,-0.1321951246550344,0.08153597267143968,0.007551222232770122,-0.06973791556812774,-0.009177927181046066,-0.0004006640975803555,-0.03879491053562202,2.2154816765549574e-05,0.009692607269550851,-0.07466907321301536,-0.005303164528305995,0.014404323937717185,-0.017305069062980953,0.062410068548552966,0.01671735162041496,0.056064286238320264,0.03877569623470813,-0.0795724739086762,-0.03755669968063988,0.13519211850875015,-0.08969801868454541,0.011763175587149111,-0.06944726562742778,0.03322493059886122,0.18508718330328858,-0.0482145237909241,-0.0216755965104045,-0.04926119285873887,-0.0031972973306697555,0.16941990721585537,0.055256900424398236,0.04537672252669159,-0.07800296383045566,0.003114447049934159,0.08588520254880339,0.17365776457573467,-0.033283588686173836,-0.07428757112852936,0.06911016123705002,0.023074697406049737,-0.017201573042661046,-0.05806089750061455,-0.004595166654267312,-0.0015699164453891465,-0.014702813871496176,0.00939190073133872,0.12900782723618975,0.08912106621021385,0.10548609285984557,0.09641482278809518,0.03679805852725001,-0.03182724718345975,0.0016222036807183459,-0.06896112960469171,-0.1590003052475688,0.0019332479529506018,0.16269917606206374,-0.1337745321136755,0.10537885220985212,0.09520375856725971,0.24582588676567624,0.29914180310264765,-0.015586414678682992
152.3144989013672,1.3397979736328125,0.14169929026123584,0.1488453944077385,0.27512360597157826,-0.24962520108998373,-0.07628369370695316,-0.11102612065692274,0.1787391776447014,-0.14880994689473762,-0.29299520169143917,-0.003540467700479874,-0.10959398913742287,0.07424101182890512,0.004686895873348178,0.14447513460946018,-0.07094358183751376,-0.009154243219784258,-0.11575837166213243,-0.019083854521678732,-0.04582312008678998,0.0616827734979607,0.1270492811963293,-0.011593715619946529,0.0007068896435794151,-0.09921323094232752,0.0178238088907227,-0.029931447331269644,-0.031027302288123688,0.13112823872220897,-0.012946724989001037,0.022114060672818837,-0.043117556872206454,-0.039402007763458265,0.0130194479444787,0.012558958480898191,0.12014327766224904,-0.007186040221762401,-0.08856891653880004,-0.04594544312899232,-0.007955082474465858,0.03362430009026912,-0.05386300691240337,0.11157462845699018,0.027025322825102054,-0.06869159140970658,-0.12828913572222483,-0.0212709825433172,-0.0020514709763025806,-0.02408030294132724,-0.021967463178493997,-0.02419779463600423,0.05123830759177604,-0.0516705181879818,-0.025829335341145794,-0.012358166301805112,-0.0025201262429473915,0.018062891830358207,-0.00619421176988634,0.033227666048083145,-0.1451523401720499,0.013487161287613608,0.02923252273743339,-0.01861492679939145,-0.010951556249492317,-0.01720997758331689,0.0005590753632536971,-0.012491533489837975,-0.010105197353837136,0.013333099728735726,-0.005737673635801639,-0.08336911468923061,-0.006302578925153427,0.023654818049783866,-0.10256957779933615,-0.06561653692243888,0.07333902550943078,-0.034661112891040666,-0.045653534836737855,-0.04851431404629598,-0.014158730667460559,-0.0552353052050328,0.004386319043652712,0.12384697013727632,0.027381818320805534,-0.0591031798905035,-0.12900031429610986,0.004520992910150108,-0.10374819403929128,-0.12996072010393428,0.15684324264460753,-0.04705657395459006,-0.002062969049477986,-0.02895932607731999,0.016079453880812774,-0.02190876452151734,0.02103274481998725,0.2206011177931812,-0.008761039223560658,-0.1536349136658926,0.024546656280586415,0.21077445956092133
153.654296875,1.3899078369140625,0.07577007625784096,0.4293803199838703,-0.43132696177474183,-0.026389080337112403,0.3396390187177847,-0.2633859123854375,-0.3891285042012108,-0.3341444825526719,0.013493227246567648,0.15948485132740123,0.04396171594692778,0.006220437295444804,0.07363492733193024,0.06975647198042015,-0.004978016629308243,0.03715483975999951,-0.14033548612664343,-0.043777047410512374,-0.1438070996058055,0.06542764661669126,0.012986458298374592,-0.1510221462870845,0.00869699474299902,-0.03459180277095188,0.029838770465755414,0.00045879913026533375,0.15481312392115448,-0.02161083879256407,-0.0009098570129121651,-0.006028884604545426,-0.040361832776664025,0.05061155287136271,0.0067050847672128705,-0.0068519632607615885,-0.05953856082478764,-0.13344561871963365,-0.04426085828630157,0.0018123884569987807,-0.07986264380913582,-0.007302367002131816,0.17486593955757174,-0.05766279940076863,-0.004513071614354031,0.06831261264760856,-0.0057227965015147885,0.011554301880457647,0.07640256673487106,0.06280090434317678,-0.015108882308831848,-0.15712057997445592,-0.019616287794132336,0.01347918364297146,0.023862023662185743,-0.008087991021141333,0.1348440206557178,-0.028253498725495586,0.005442129292080443,0.12485062522713465,0.04574328797843791,-0.0031917398241278266,-0.01781495406244478,0.05979645548334009,-0.030992008949886386,-0.022555090573268828,0.08123355286761788,0.0389304716665198,-0.042740411188365926,0.0046990330110977885,0.028771142396564177,0.04488329613775203,0.004159764954219824,0.17795215587762686,-0.0002513083273700486,-0.04582043252744002,0.07735668657107983,-0.07052568354742769,-0.0008234631560411339,0.0683306630177166,0.03538634913857798,-0.043631761187595965,-0.12168246986469364,0.09722086588687362,-0.007896542680717966,-0.0344916961943618,0.0035012152507597873,0.18121582946609635,-0.07753490025106984,-0.14011098365154226,-0.11658844859528553,0.0009821219925115108,-0.16086321733730038,0.35468531413318344,-0.14204567911915914,0.270861051404351,-0.02368422778938323,0.2834541425362511,-0.006810427740032319,-0.08429961276869088,-0.049532874164389326,0.2738680851899074
155.04420471191406,1.349700927734375,0.38949516910465953,-0.0018503964374483877,-0.057386669398041996,-0.10213825507138094,0.033898256392890055,0.08744693782388979,-0.0328867360099239,-0.09497346637373112,-0.02770110179231903,0.03127697175916502,-0.05241166421836973,0.04070785717662521,-0.017094448632424222,-0.056486918001274776,0.015601277850515656,0.0024129995319018506,-0.1167048305081366,-0.08794373291622849,0.09796172365703007,0.03802412314730794,0.0032270963200009377,0.0026266876775341242,0.004693581597484196,0.0020270453614803507,0.02518274235964623,-0.13693787981858643,-0.013304776307697315,0.03832921032043246,0.0059496345650623,0.060244140155040794,-0.12628041561671696,0.022763118824749726,0.06508311744291301,-0.015158926780820673,0.014301690203285006,-0.07042619028842476,0.0009621777201940832,0.00016957317636451773,0.00808921376336962,-0.010104894439598163,-0.10533039605278643,-0.0016440120661904978,0.003330809766372982,-0.024258141762025898,0.09467128329186592,0.0002666776470021852,0.03754541474972191,0.045847067427269204,-0.05994413195164508,0.06761714585837827,-0.05478163304976493,-0.025377532455629362,-0.06748684702308624,0.036312069606791814,0.0457606252328522,-0.023195227064464766,0.01891638309136337,-0.09066253406044887,0.002412151135877283,0.15688319070529294,0.08331419807205008,-0.002031409693888102,-0.09462800618825701,0.06437218544001867,0.06054227524489657,-0.05008863067091536,0.016032160623796237,-0.10739971811284961,-0.0073142520011724495,0.05814298808766622,0.005652426189063873,0.0028840234143110684,-0.13114213277392495,-0.009268110840459746,0.04567914259386518,0.037719039684141586,-0.0028300562843509365,-0.10511248424591434,0.01183400832079489,-0.0633637416977347,0.0055660111373111165,0.007417647651444213,3.696586105999481e-05,-0.03676389268180091,-0.16175609119568385,0.021124871233263225,0.1976333228351623,-0.044238174290068225,0.011263793783056354,-0.19186093859209316,0.05501724751014298,0.18451474011528496,-0.28928683330805377,0.19469139432694435,-0.14490003856790734,-0.12573472031563604,-0.06554106623244389,-0.3061249294905674,-0.0336805176624444,-0.3641480422202084
156.39390563964844,1.32989501953125,-0.37694705841918125,0.036177522485207135,0.18391740593125194,0.09489767248846628,0.8096054000448798,0.19277826820732613,-0.1481485191409558,-0.03664468149067,-0.016681520810449282,0.04392888008442164,0.10911954478422929,-0.015424492082639771,-0.032279827733737554,0.08473274705427221,0.0009635628629728245,-0.02503490501454678,0.037693989483486436,0.08326797030205636,0.006825296476125904,-0.025867534135258025,0.0017415636204629326,0.14607001136489775,0.06300686506257275,-0.18942848949868724,-0.08972420720693282,0.07302620573946098,0.0074422379404718315,-0.10826638925189574,-0.028307506149923264,-0.052194745392182954,-0.06204690577056322,-0.005219726857695249,0.05816187970987858,0.02527797049054957,0.007154923856196564,0.1134830531666235,0.03303461865260447,0.0276063219991623,-0.07379065780725244,-0.0022438690777484725,0.041939461555499526,-0.10956443364655655,-0.00525026987986979,0.09771416701571616,0.051971239073308834,0.02985194909419342,-0.003911705064538647,-0.05686142616480908,0.027313582647995563,-0.0723384845034507,0.04426185754778982,0.0672155751863066,-0.016594247507231374,0.0016338408414452365,0.0480739382068916,-0.03391483464418187,-0.0571726939161779,-0.04427360610764239,0.0032745509766242045,0.005304057936637289,-0.15933309829328907,-0.02811480807577323,0.1587872047069152,-0.009536281305384975,-0.02582076772786726,0.10759446987575427,-0.021536390214453298,-0.019847102374553276,-0.05425336000118709,0.02378790219668205,-0.03776368810287556,-0.02785426394989347,-0.02471133891835095,0.14312107458114043,0.06976119353159917,0.03197210134205841,-0.03799140363756994,-0.028555928740435655,-0.0427155655988941,-0.08597650365715054,0.03440509780837024,0.07275140165734337,-0.03375270958951436,-0.00727806071964283,0.24049750681896467,-0.02679927905092283,0.04832332007275862,-0.024954736990663244,-0.28932628213675327,-0.016384776649713093,-0.228281255593329,-0.05275806400962446,0.1108100915505759,-0.07615835414262606,-0.016155785918289315,0.029707022665060447,-0.06385792297082418,0.004372577320577854,-0.004927202485119219,0.14710973001199057
157.7238006591797,1.4197998046875,0.13397892855803836,-0.05220680653153376,-0.5049501513017338,-0.1404712936695529,-0.018287031486402698,0.06369887647525116,-0.1688074852492404,0.19401503889390212,0.0654634717628035,-0.03874358256180524,0.06698997353940939,-0.029443462041866413,-0.034457444871178376,0.04550280382930402,0.0031132147320051718,0.022435380017766817,0.035705727299961416,-0.014394871824834048,0.012558856444149488,-0.020110475958094124,-0.034285416082081924,-0.017272684156470316,-0.06817924194021689,-0.008183713874997516,0.02558584275331804,-0.020735361871636035,-0.013134436540668778,0.03480783974306943,-0.02438406341493507,0.008596204851289431,-0.07000986158849581,-0.036462803501489595,0.019922936226926615,0.08806981542416864,-0.02001647366256485,-0.0051426399628475075,0.11771739576108405,-0.047967914777531845,-0.021966563745474135,0.09033934842378755,-0.02388693169907802,-0.023798195096320245,0.06202437758610585,-0.03166698576244846,0.048917920072725614,0.06812836758694356,0.0018289811601413203,0.047510735812439794,-0.03857552688393153,0.0403721427889097,-0.11091411705773789,-0.05635197455625207,-0.0074304045226270075,-0.03029443693020034,-0.1098286164046499,-0.005400737936521913,0.018553242742651015,-0.1011342312041646,-0.030190080268062407,0.04178321475755866,-0.0014086890110688588,0.01773051400944191,0.15970633686120816,0.028687116262648426,-0.016470288646420864,0.19885572881214544,-0.009929706468884497,0.012744502593432494,-0.04603725437321137,0.038349045553152196,-0.03402280656556806,-0.005031464756983409,-0.04010964482886125,0.01373702280229671,0.05017057872271242,-0.04302310043342793,-0.044885080945973925,-0.205138826257456,-0.03658939114912884,0.02003098497741632,-0.09770955511833349,0.002657802072207213,-0.0009147747304773385,-0.12649845749093516,-0.0005908332589619382,0.03378055019989292,-0.009899146343525813,-0.06331376630500835,0.14493329050137907,0.10529142994141989,0.026712270750748925,0.16627531829407058,-0.3250285729216049,-0.0084247503746047,-0.012719413206459538,-0.007646447479998042,0.042473670051248524,0.07122404361986735,0.06948155215655165,-0.09269129160175668
159.1436004638672,1.83929443359375,-0.07825863832572122,-0.09371712350573591,0.01153152633600114,-0.05994290002029479,0.01778670394368712,0.2100345599191632,0.011068571715894718,0.029559923084642857,0.0440502367623539,-0.0020142903729029327,-0.09649853850787717,0.1314921776511106,0.04301361646406322,-0.028434919232599346,0.01649689869277446,0.06913572580151589,-0.028272914585732275,-0.026771208756018544,-0.00574970517495387,0.0725604299490722,-0.009679142265124296,0.11766593961812782,-0.01014625941573934,0.02397758138252264,-0.03530154676023316,0.024809919100724293,-0.13475103496751595,-0.023481949205976113,0.05384271310613607,0.021981708097653017,0.008507136292674822,-0.02097020237096887,-0.04835946814670204,-0.09965735448219648,0.1188379713246841,0.015866375901493913,0.004200702422053654,0.18565412631585482,-0.04541783608681523,0.014993594981991189,-0.008010572287884139,-0.036260957836450454,-0.03417736383227639,-0.017517889342295544,0.09558360270825815,-0.0017448493182329917,-0.08307875292949787,-0.08413213809181899,0.0020372945248124854,-0.03731776443048384,-0.09163299770367642,-0.006891737449369366,0.07356285717698045,0.13846661451982306,0.04715595385227763,0.03139353094943598,0.03944403581476383,-0.008333205921627488,-0.08724479999957496,-0.003251128107465054,0.13522088096004667,-0.03241113139241797,-0.000689225615917353,0.06555122308477429,-0.06634145480266176,-0.15345480404809014,0.007328194421321925,0.004160493888501715,0.009307284618650158,0.004934303036239429,-0.030036303708983844,-0.09615784144044306,0.01202254704282402,0.12402897144902746,0.01443289997804194,-0.003966955439276018,0.15067516092330263,-0.02850737670931736,-0.021850278727103174,0.00483754938991216,0.07696047158123417,-0.029493911851751264,-0.13672801376707588,-0.04639144195378019,0.0030940337333828197,0.06715361630977251,-0.05434536816457572,0.05649190790046342,-0.043962115720971175,-0.06346862302742558,-0.014407736732518833,-6.255997766612013e-05,0.06309774280264593,-0.04598330702839416,-0.05871345689574664,-0.06471366242328899,-0.030597140168419315,-0.1443927220832541,0.030451059411501516,0.030711054388069328
163.73300170898438,1.3197021484375,0.28600931307354815,0.263277172860554,-0.07734408912692459,0.15767354360995334,0.5654420132036683,-0.13894441069163257,-0.07886421818922855,-0.1533729028537445,0.017266609695576654,0.011897598838785658,-0.21103372393936776,0.32374558561419187,0.038162297478217935,-0.03050278470151251,-0.04318160564314519,0.05103735041194937,-0.03729569082333699,-0.006111141361766443,0.10154470189422672,-0.07081924378812865,-0.08495045275619206,-0.0220953448520074,-0.07696262487684001,-0.03896844639684725,-0.01847267148112551,0.03564137292762235,0.06093051354032217,0.08209227678668846,-0.015417525532869139,0.02396034516418924,-0.013670308290749708,0.04134894799419219,-0.04633836814602377,-0.022323298529077492,-0.11307141037558176,0.01829330193508033,0.11567437171768376,0.02494178997005494,0.05400063267948944,-0.062249060413257874,-0.02464074430638885,0.17045286731648107,-0.02564551489339268,-0.003667349460763481,-0.14935563440875602,-0.03447337773726582,0.093032789347314,0.029468052211992612,-0.023963840194615373,-0.04815571048807734,0.0353952474110478,0.13226472446092719,0.00553300309156574,0.018988398388930385,-0.05702824180153192,-0.009317161846836383,0.14262560912554584,-0.08446703749927358,-0.02580227578210044,-0.016257717441471406,-0.0037232359906367155,0.013054954539199776,0.006150270709940884,-0.05617896706143562,-0.03521366200911255,0.08590518187483301,-0.03163110366731511,0.0041278914600982606,-0.005286090452255889,-0.034516685488668666,-0.014018815595194474,0.021787672509282555,-0.05099518195984645,0.023545424641876107,-0.051780165839231215,-0.04293457271875932,-0.020415355916238425,-0.03386644470063866,-0.01683720448728621,0.037046542737534896,0.04969234803724865,-0.005499255422306044,-0.07386667532228461,0.03259450773008201,-0.015698396384119965,0.08192393878955262,0.004957026887692633,0.03720700718082377,-0.06561945896361786,0.13344756662245055,-0.0934462613990885,-0.055174313346169554,-0.12518296489679018,0.02784578277709667,0.09365451977081718,0.012062057954236611,0.06911787187634169,-0.11459565752339299,-0.05807969100354814,-0.0935351601959519
165.05270385742188,1.3096923828125,-0.23665683567391915,-0.0989030061657446,-0.08832004437048165,-0.23927459825566944,0.5213489333781774,-0.10680846951798798,0.3539354173561503,0.3493088258556693,0.38746557376193524,0.06478039165211001,0.3960999930661985,-0.029532895638523585,0.12217827745150626,-0.08439718773394232,0.10708679780949848,-0.1538347241719584,-0.02673971209126122,-0.10609065120521709,0.009882298669788452,-0.03197922648980664,-0.2922295428559861,-0.03963592271587063,-0.02562333087026277,-0.00847194888180729,-0.05054495311370156,0.03254884859405322,-0.003975446666398829,-0.09282295891038186,-0.07234232941539993,-0.020408431524101205,-0.11872920650585628,-0.024002887404800066,-0.007057964291718775,-0.03977987232350195,-0.06653116444428109,0.024111316638913402,-0.09063561986423935,-0.0173247222262296,-0.03105893152801068,-0.05796932304151445,0.027172856621054692,0.03599273251792822,-0.07929583328772945,-0.07220357483195268,-0.02682758648608103,-0.13951185223887885,0.02283224070502686,0.057103229296144094,-0.022821225360330835,-0.048702497043502366,-0.054030739960249,-0.08997291901210137,0.03704247521687746,-0.057958358540119825,-0.15168449120564767,0.010962217416522077,0.04789388336222222,-0.1477517845321912,0.07617385166526755,0.010085051032298384,-0.11854196160180049,-0.029169875897719445,-0.013014668570872712,-0.07496113328864774,0.05360496600647273,0.086967571341768,-0.0962557816418389,0.0025550474315810773,0.028550757803032633,-0.045463100537166894,-0.019575441625538384,-0.006460071392564284,-0.03838609358794992,0.08235225229756526,0.019614800339542122,-0.04217290010819239,-0.02739194729914228,-0.04465009320561058,-0.06682605677452667,0.0018598951111334042,0.02211425207697714,-0.12368143141271729,-0.05623176594459398,0.08818182711035638,-0.024182931572489633,-0.1059388225454738,0.014338480786847893,-0.06711494354656042,-0.32292601570709567,-0.12661206735023378,-0.039807285451992844,-0.03610981252896161,0.024775555424479494,-0.11260987356507615,-0.14557389298807943,-0.12477840236681019,-0.12589551422833145,0.06797677901852757,-0.25771950927326237,-0.17201488740001178
166.36239624023438,1.29949951171875,-0.17152455083148907,-0.21380250951853466,-0.12716953683916632,0.013256362724979043,-0.3805614467895552,0.1443482490428625,-0.03407985571632472,0.19623648402451407,-0.10498369914382732,0.27640787488100865,0.16395761375698953,-0.0554893340250058,-0.0441025817508036,0.0340556020039225,0.04926099007773407,-0.24180168600182214,0.03075307611129248,-0.05675625618417505,-0.10129609927507276,-0.08572704645382966,-0.028830375982189765,-0.006054814274181752,0.042859520874893746,0.02688296578875324,-0.06037719129263583,0.03277251127877684,-0.020466812956397493,0.0039632893758685716,-0.09764253462465716,-0.014239163207570665,-0.015854111398361348,0.010604925745669343,-0.017151994302830695,0.021211117491733916,-0.004605351524335012,0.04295559620234313,0.024230745621979258,-0.0011810349303463072,0.005440757129098447,0.10682264999520374,-0.07762118728353776,-0.04178096570338227,0.10691131534154312,-0.004412160608631079,-0.03589663310498649,0.18081244227261267,-0.08870161789041482,0.01427415693123934,0.12369987197466067,-0.03369825608939133,-0.0325507015115719,0.08110320651932026,-0.047811649136561676,-0.011662506618556903,0.03643222002190048,-0.09671826309408554,-0.013213248747699222,0.05334363323692195,-0.026799610300851845,0.0413671079149855,0.01904770343176526,-0.03229882959855673,-0.04985843711149961,-0.0017212064944820329,-0.021876129016817333,0.041667337513735137,0.05821829671052047,-0.027314639142759497,0.010968773445607538,0.014101407001873786,0.030739428775760733,-0.05414045435006341,0.02612887109668628,-0.055929022881381345,0.018852061781126334,-0.016520311264355728,0.059875789506826795,0.007614335780339117,0.017477100066801657,0.06106585017993842,-0.040722240552818686,-0.0440498314382006,0.16020492670260644,0.061394413409156745,-0.11859026449305646,0.06494575859187598,-0.03287799333769877,-0.007978591898118276,-0.1350822276409359,-0.006027564128913568,-0.02406695095476332,-0.05114121226450202,-0.05247065771888189,0.14435771345121207,-0.038075489869308095,-0.11517194500097187,0.0279138881906401,0.13312386191692796,-0.2340117712937483,0.11890411759962588
167.66189575195312,1.300201416015625,0.1131625869884006,0.07393885850392978,-0.4821623029285415,-0.8778255798982224,-0.1715284310704343,0.13112349998645018,0.423766203343544,-0.23459553987292275,0.2265011074786979,-0.01562830354143695,0.04770720455310468,0.040505015215106126,-0.027783206591689338,-0.05861352170464165,0.10940718531474398,0.02754314892387308,-0.001290234723555984,0.06260018922978583,-0.017212491437718372,0.02735927073258794,0.212505016614662,-0.04637618269052542,-0.0731246085798394,0.09394910146241885,-0.04443226875320022,-0.115605244205084,-0.0567085965730049,0.09171448017661622,0.014180521645111407,-0.029547717359065088,0.08626276704179699,-0.014867984412951805,-0.05859432260914706,0.09723412302075496,-0.035518830967584555,0.07942385979142794,0.010286827167054995,-0.06089353795830256,-0.006286450252853955,-0.023833335254756755,-0.13088342481473988,0.00022814808409863372,0.019890372024817648,-0.01585289529039057,-0.05356141793806635,-0.002829211991678222,0.0462287465854094,-0.030192693003707548,-0.006327164922818116,0.08098426252819932,-0.005819081653878541,-0.015567329759495513,0.162985939802062,-0.05963791575064667,9.328091463533183e-05,-0.03094354109796913,-0.09444997703668515,0.02273617930025026,0.002832813730903503,-0.07825533425832959,0.034621776647257005,-0.03906536982684938,-0.055046238235952644,-0.035365027507209365,-0.0018350658519931335,0.03061036044105517,0.013271387678497858,0.050852150894233554,0.05455597348265303,0.0348728568308294,0.0032779326120929136,0.09755619893972763,0.025810227640493788,-0.0003975930308718078,-0.002215951044794915,-0.07506367346666366,0.005215470192973637,-0.008047628349854518,-0.12256684220596438,0.019141510226966512,-0.016492277609633205,0.006695093071410987,0.008587856597882765,0.014580528294359385,0.016175379085993546,-0.04596460867464468,0.06349843700783381,0.11836636480517931,0.10808736490280467,0.03709255939148078,-0.047900529053663855,0.0006569060218631025,0.004970595415671436,-0.10364580451095216,-0.15383972874673635,-0.2709680365395497,0.1430442843900989,0.34193659072778787,-0.16002336447794815,-0.09684409213277737
168.96209716796875,3.0796966552734375,-0.07450138890384245,0.06721558352134593,0.18786690944162934,-0.15176718231329558,-0.10484790521619934,-0.2781941745186842,-0.030979471343753003,-0.2795179589758372,-0.037870482364482996,-0.29363070904542815,0.20282184805758074,0.02202789566052566,-0.020561004473316165,-0.018132360412405013,-0.15291796438384225,0.3170326417417841,-0.029146090833280087,-0.11345372489517916,0.057319978033065794,0.07314272424860038,-0.06612576826331636,0.07865745388039037,-0.13026328380590627,0.03914148916101764,-0.007126295736460114,-0.027853453036958572,0.03156150770240063,0.07251396010444713,-0.04904860386160777,0.17419508372775788,-0.002267010950986052,-0.14087844908762512,0.06833848961332531,-0.04812969499771258,0.07317170880365237,-0.0026811351934142823,-0.060830256322291984,0.0058616670316524126,0.06698109691559156,-0.056338565419960976,-0.006577848246316188,0.03494824498819354,0.013181273515194918,0.021867551948657138,-0.0037384817719945582,0.14045316112572012,-0.03228877245398636,-0.015877096344271327,0.1622369659188135,-0.000702442629193667,-0.0030934542724633477,0.09674796668553323,-0.05156024760708469,-0.0016929318463364072,0.007114267720393381,-0.14409299900315162,-0.0015920783262165312,-0.005470724033107515,-0.07190953884365794,0.044384418272628505,-0.01678231452796795,0.0020359828457522894,0.009042084226080035,-0.08785734694877886,0.033241213188826696,-0.02953468280965579,0.030910032171312593,0.15770502140073428,-0.010019708575003278,0.005558465563350602,0.016254522423893053,-0.12119195982274875,0.03736167514080992,0.021645061818969233,-0.03716429808806382,-0.03926192372080432,0.004000222067037179,-0.03674295940505701,0.02119982449282671,0.040290964811701725,0.07438517520397078,-0.12063504225624982,-0.02163947900015794,0.12228894892360899,-0.07445541921271794,0.03543856908284638,0.1567510416670985,-0.15566988435913276,0.21390364298855424,-0.08265680705423697,0.19814686748517832,-0.18371109829457666,0.32337599079531865,0.4186508178553707,0.06727158740554151,-0.055908694835344504,-0.10483857560573977,-0.12040302520162295,0.018012982796328587,-0.11066316899278586
174.84140014648438,1.409393310546875,0.42987290016372703,-0.2901609652436361,0.36678376840835025,0.24941317168805896,0.09597555279200487,0.19116229418724878,0.15091728508369157,-0.1356053513567122,-0.3484585251571882,-0.03906237394953643,0.04892366343920687,-0.13089424591117946,0.001391674863264373,-0.18308832643912593,0.048639555946716886,-0.07191350345627993,-0.023777721529834248,0.05202745971279198,0.03728076254545125,-0.009855939111251336,-0.05229483992564132,0.027418177665389218,0.041524246505464456,0.009076826056719757,0.1074320082663464,-0.06552838431310107,-0.011277071138582825,0.16658669840855014,0.006288398361886327,6.773048900449142e-05,-0.041388202928872936,0.0048418932214254464,0.10322880265963581,-0.014634106354991946,0.00609977687530012,-0.09110008872707015,-0.04229974533781536,0.017857334886033555,-0.09690868150294092,-0.033527483797641686,-0.009544968410809235,-0.02016501699830235,-0.0011831157687393077,0.03507867383814612,0.04724473282912077,-0.028966976613044558,-0.025811433032584496,0.0044142181244066795,0.00012365658971196132,0.12778825947165282,0.004665727355587828,0.003077972042492832,-0.06493339915547726,-0.05386428121873053,0.2653614198448344,0.039106238395905546,-0.012813239868261774,-0.10588833764278678,0.0127064358325907,0.09457119313517424,0.07689609916913379,0.06608445285046664,-0.07131049749903828,0.06026881567906709,0.1061698019060138,-0.04235908063748807,0.1952592592129814,0.06506935265838626,-0.07796896411734072,0.009578209809531226,0.01031570664993246,-0.015954917150324155,0.009329702191579178,0.03765439153413526,-0.06112058992322009,0.01228662227357688,0.07347903846431302,-0.03178054212002529,-0.045134783563054344,-0.03225579258622123,0.06579685910055688,0.2141709955011007,-0.08934563164154044,0.10218011559341614,-0.09734050431832453,-0.007579371951386674,-0.07961725677958975,-0.06727225440236197,-0.15222463948932147,0.10303594898440842,-0.20057286562459986,-0.07156666479908495,-0.09197823053708946,0.20668151948597652,-0.19212275854532845,0.16994757068749666,-0.04337602285679672,0.1923986357395197,0.09569339698107841,0.31855423778741043
176.25079345703125,1.430206298828125,0.1629697122382017,-0.06111590453539311,-0.14812041239762147,0.012186792384757712,0.17680471013275317,0.15253783530214635,0.1292794413040633,-0.16430759351042198,0.01820093257838388,-0.08747794381804287,-0.0941671440375435,0.12089481280158948,0.08618779719084273,-0.012115928510643692,-0.04457924981865771,0.012245021595652486,-0.12437700461219911,-0.021309867491514967,0.0978703555595371,-0.029959769872947885,-0.0038283958340389543,-0.062156969746530975,0.010928354546968987,-0.08295412105857683,-0.08423197701452494,0.2144993338264692,-0.019515383167060276,0.01453107220944584,-0.0432980356942658,0.02798407487913103,-0.03245538402080357,-0.005122830530369119,0.19532129517666208,-0.05924858375693389,0.011187003566209542,-0.1008936219435557,-0.03124889927650829,0.0039606828229336215,0.07149038753568822,0.09910611263573998,0.024273544496177194,0.029846704983113675,-0.018198952928027118,0.01017931991214135,0.02578072200531443,-0.039325565174674115,0.03719842238979701,0.02372753243943463,0.02075897613851663,-0.0005468954762654216,-0.052277330008425306,0.09502010154194751,-0.020433228751147142,0.0766516022673347,-0.06970661561155847,-0.016462608983493287,-0.12585641902128095,-0.020234770456761066,0.0029791418640490335,-0.03820855249930132,-0.05003098374249213,-0.008765735896477,-0.04133798017431623,-0.014557432648846846,0.07780196502260797,0.09033747615558715,-0.05604593028823688,-0.005180113209347423,-0.06618582273774355,-0.043041075506114204,-0.07559153302116166,-0.025360867360320664,0.09738950471933332,0.020622975937145363,0.021655936330658536,-0.018597878681853156,0.008042021111931013,-0.06530828978249056,-0.012318465487058311,0.15389718948656858,-0.062437197390311255,-0.014975678712331925,0.0003755529919434478,0.010728244847067005,-0.025774520757988945,0.06719890371218211,0.1321703432877991,-0.16023732688942474,0.2375926940161174,0.03150863198258713,0.016709892065084855,0.04864719574606538,0.23494667822671764,0.14665153776162843,-0.26176094550219153,-0.027745750606889108,-0.23719671025761171,-0.14800375121200143,-0.007606707985051309,-0.11756843933284025
177.68099975585938,1.349395751953125,0.024269966650760852,0.14044648770365212,-0.027154889377966143,-0.06660255042931838,0.277208337868753,-0.02201246629877325,-0.3439785106183065,-0.23615815228679213,0.17989418766770987,0.10312393133440331,-0.001288124069009848,0.03629811697246724,0.10709757079105457,-0.03245911107884002,0.014389071093027709,-0.021186883787825288,-0.0384457879424105,0.0692493123615705,-0.05464946342291752,0.08287374178033878,-0.030512486445021345,0.08853046526063553,-0.10049042683566123,0.010972464699142384,0.09430437017204482,0.11419535476227671,0.04115675399161661,-0.006690238015124399,-0.06980666811833548,-0.0010366315206430106,0.10184264965363933,0.002902391352512235,-0.01513125930405686,0.014292500428130739,0.05912267911882988,-0.07479010733039813,0.05896280148826775,0.06542179464244455,0.0017200083272541375,0.06970132047877728,-0.028580841636924745,0.01651676558966384,-0.04549956884876749,0.004131854137264287,0.025164879454824325,-0.036764393270793935,-0.025880290308868355,0.03619128533167469,0.07890803818501249,0.089590987721691,-0.008725265861344445,0.013282855208224576,-0.010741719436068888,-0.0803758909245244,-0.0996110935466072,-0.06492412443305046,0.001542123299571229,0.05253826852673239,0.007320674834293336,0.07873897244611454,0.011720542884929932,-0.011902594205480767,-0.014856242784834018,-0.06295108023789933,-0.11288360873804139,-0.04817545458673561,0.06957411230914698,0.060319095723829555,0.13995417022939735,-0.020713097108893547,-0.021806008043245045,-0.006272665245203543,-0.010519374046444417,-0.05065791606612392,-0.018746390415039546,0.03168713419498059,0.0045382329150114396,0.14261833780727443,0.04118609065931424,-0.10010841435929749,-0.018785374775568416,0.021263336499987705,0.0018342785808215523,-0.017642764963284218,-0.06197525552251986,0.030260498281593093,0.1532335510887224,-0.13385501134479397,-0.09500543586206353,-0.03336014297977943,0.10002861891816467,-0.02922154552846276,-0.06328011573880499,-0.10138636143630557,-0.26932793591683946,0.02523761093707795,-0.10150420632217026,-0.016271203032865472,-0.06027060814186799,-0.10413599598107666
179.0303955078125,1.3401031494140625,-0.12336239172914032,0.15394196931436807,0.21544185159219492,0.15548676584391732,-0.28337744697265116,0.1271369099574549,0.3071726034734505,-0.284454141269534,-0.08142113404659095,-0.07479068533872095,0.06417887656600547,-0.013505847185648033,-0.01711548076850316,0.005567655584402534,0.05813281188928405,0.06391485038392296,-0.04971059643370631,0.027458630218353913,-0.040168739810994655,0.1006537842577058,-0.18021166032792593,0.02313455869790845,0.1299518003368171,0.0046389766812652,0.048430834842023124,0.07832314929371538,0.03297215450748541,-0.02271122085413089,-0.04223177183096836,0.03245830885420329,-0.0132717077750508,-0.1446678359460955,0.012549524417949388,0.1495379350074229,0.05138352859745578,0.00581169966845494,0.09469673902684174,-0.0065639843048999206,0.018962571434260833,-0.006537530527670104,0.09113309762878535,0.05321863352287637,-0.064874715169392,-0.021364555838251392,0.13511028030123395,0.06770191901497587,0.064158938179832,0.014232879188829838,0.004053563600323323,0.006360233131562476,0.005779291911237182,-0.009163034143117341,0.051144223536032145,-0.037845841371470845,-0.03702376366355313,0.12018615518524112,0.012114595204661372,-0.036933970893459865,-0.017285184913660417,-0.07654179863351741,-0.008216845687364494,-0.09680763000532064,0.0037321718546194484,0.01304895303932461,-0.05039403924869881,-0.03988390880777978,0.08841535604161402,-0.03958222339831244,0.028680078350668766,0.0059618144340046345,0.030759556945613116,-0.0117955304359477,-0.13816526693317135,0.028740854972627787,0.12380648728165464,0.029098436205652094,0.006643242880386673,0.10384362064667488,-0.033548988829561054,0.07556916378344733,-0.07045105986830402,0.014554002148493003,0.005634643979082726,-0.13750069362219366,-0.09586908868105784,0.02853712063936689,0.022231639024788707,-0.015015385165745562,-0.08641419777023218,-0.017963332253238207,0.1432293234900921,0.0428716949234076,-0.053431230645655074,0.06862452904871974,-0.02689010187941404,0.020297309842645155,0.16256689598458446,0.10690754195182996,0.03134019495647024,-0.10021457908603532
180.37049865722656,1.3697967529296875,-0.11202482907748747,0.4851133404965235,-0.01331281636107869,0.011548482194552996,-0.09718391452206813,-0.2250391481219914,-0.1107127136147796,0.20635102769109978,0.1873856071657191,-0.10036525386243982,-0.027156205144523386,0.04298506765031969,-0.01201197724966785,0.05714651026838339,-0.0191729906586816,-0.005317828015814256,-0.03829032699617798,-0.15920397213525694,0.01593743461181728,-0.009972837397006124,-0.008224371804879367,-0.02844229784615201,0.1157996862080898,-0.033858804922786194,-0.007094998273756602,0.044211716537261386,-0.06436922568424232,0.011079868847494359,-0.033533582564787376,0.0029879679583502405,-0.002605727250944566,-0.12062559940802968,-0.08184900073612329,-0.024484044661804413,-0.009892277263034252,0.002785968551228283,0.15168350918964835,0.009900732319040194,0.03195042392651446,0.09595821762834073,-0.001062871387797527,0.014155896817345495,0.02680846497698526,-0.04036228339538811,-0.015607455044038139,-0.008221372586213508,0.004052303838024558,-0.0333324558031512,-0.019503964682955014,0.018101929153158294,0.0850402288650484,-0.1316471556750535,-0.026188998629317277,0.12904089272786595,-0.006678711554564114,0.0010876258385154392,0.07574100497199929,0.013552323203649071,0.07955664392876244,-0.08777687563104006,0.02987694733873659,0.046785674517972685,-0.19114849352042046,-0.00563421539462823,-0.07872629351252598,-0.04941485417206072,-0.012618290040509636,0.22030905512224325,-0.03892858344740453,0.014039556831678013,0.05758940679477102,-0.018272807149578824,-0.02356718729752075,-0.0323251987828302,-0.023185182508325925,-0.025637708412417682,-0.08144293458451737,-0.014884971650775082,-0.09186028841640981,-0.1680421902431359,0.03800908284068555,0.1846019505071645,-0.04910942729775944,0.08080726189711777,0.0963346510422297,0.006800682122483106,-0.1741118588035418,0.03186653349607959,-0.008816281250762295,-0.017918714892403202,-0.21748793447813206,-0.017560886587721033,0.0715904359899708,-0.09625068453257649,-0.03606558485018882,0.09138819769200923,-0.014168797575592048,-0.07075263193177264,0.09391512022800917,0.08964628442767969
181.74029541015625,1.359405517578125,-0.047016717336079275,0.27423032958386634,0.26068421636436545,0.15018702773437725,0.0063974047549865964,-0.22228508628789487,-0.5648901043537247,-0.17404858552742625,0.23574791905034997,0.16665129115063912,0.28762729196196046,-0.14952843863871773,0.08330134525452922,-0.01728027734915047,-0.06136259359334452,-0.07111509665972751,0.027036206512499588,0.12001416748555677,-0.0033413935419033852,-0.008093241985485517,-0.002021385608259492,-0.06416583382844042,-0.006005327280785798,-0.032689272438717804,0.019988720272298213,-0.04360292080024847,0.023472832341497885,-0.0014114544590354626,-0.12261331852703532,0.002569510011805796,0.12396538545056454,-0.008777006434148218,0.028845873252133978,-0.07306441153211937,0.037459580637188704,0.03727036983580963,0.014437500297732374,-0.006648476032561001,-0.013483851162695465,0.03293102066413847,0.003681274581607559,-0.03800978722991307,-0.002417098418588115,0.1318155568226728,-0.01199709551191306,0.01821921678564987,-0.09125314723744678,0.0573663692401653,0.1161397022915492,-0.0034788133184181272,0.019247909749742262,-0.02084706665936413,0.004318692311614255,-0.0668586296124669,0.07778239679756306,0.029903636883044184,0.02294572060181302,0.0013451589498969332,0.00435919909945022,-0.1135139281079292,-0.06566966050222703,0.12610238249244754,0.00017234749987594911,-0.09847662214556542,-0.04653033113653322,0.04075657688475666,0.030685354228656554,-0.012310630585074337,-0.03649357135342587,0.03029877016001147,-0.0003378225296422235,0.05800093102939092,-0.030167613226777162,0.037938816480590706,0.16671772964414633,0.02026836388118101,0.013703781203251386,-0.10684783058916782,0.008882692489524127,0.030849150656474617,-0.062012468191121,-0.08544205673034787,-0.013129740375559307,0.015008454373464966,0.0016028689409456872,-0.08728209272620378,0.03432033125562347,-0.12350143627425259,0.10547848051064132,-0.05230846213351356,0.20231875712269895,0.022798479408093198,0.2502426091223116,-0.2860623265692293,-0.08401630156791012,0.10228502908686551,-0.09304735543396289,-0.18541795733463645,-0.01659728618917257,0.17976830448564035
187.21910095214844,1.3202972412109375,-0.3011190805083098,-0.26608414424421417,-0.1695508090033821,-0.39175659125540385,0.023316378555126853,-0.20012414736630868,0.30971320277772735,0.0667208573936005,-0.09072924054183232,0.04868069870158221,-0.08497937714581426,-0.12638504232309494,-0.02989018050436707,0.0002676841848226647,-0.06795216015702522,0.07150632090857609,0.025802578360265564,-0.05396406493540787,0.10362783848963696,0.024749640928287502,-0.044984123999738036,0.06990677145591932,0.0460132754543809,-0.004442487145800137,-0.003587067085642184,-0.024324391280303843,-0.0686588086604404,-0.06470547625723629,-0.0346507811215327,-0.025071407724461467,-0.144829914920924,-0.003555054664760878,-0.02454692466729506,-0.010365324472097431,0.005118688801423636,0.18562834418436414,-0.011405217840701318,0.010028924601035862,0.11360712609756675,0.005326331239441994,0.08044849114755379,0.002855513156529895,-0.050682005122088446,-0.016649980500237967,-0.13351452430755723,0.0896495862747055,0.06550728754552962,-0.03554566722537296,0.012565638441595086,0.1174478808494578,-0.0006608771796542504,0.008875574977823947,0.12820593876729022,-0.051632147593303306,-0.018100057471396046,-0.04248394092313677,-0.001360846916907993,0.012446534128782855,-0.14059985378628598,0.006083817633908442,-0.007361718797179282,-0.06136488563987682,-0.02914259595770671,0.1710080656538649,-0.06942311787920387,0.07711907644350598,0.11964971219280109,-0.026283940589832543,0.0031230612306493515,-0.009365959384851566,0.0024093921688710237,-0.0313116899987944,-0.1397471157135659,-0.03591705465360968,-0.06678657445712972,-0.10362183447844683,0.02734194179979189,0.004565346274830669,0.07099395027883763,0.057775656850429034,0.1478445433214218,0.03473193652044556,0.000499745671308237,-0.00509194563176132,-0.02093469053191957,0.0808971089582831,-0.01935707191151407,-0.07887533418671282,0.07121625576476959,-0.02484406467054474,0.08586132324515397,0.15386284011441695,-0.07168265222836324,0.09554949626366047,0.2378232541259625,0.024960786184110753,0.139572757736901,0.02159468448698107,-0.0021504440993118765,0.3143662525870999
188.53939819335938,1.32989501953125,0.3390944603997847,0.3215563325712466,0.14657047193274417,-0.5864144323728854,-0.2990118694124911,0.7146885644538304,0.08259660313759803,-0.018130433150602435,0.5392843364894426,0.029300315840042418,-0.13361434701696023,-0.07501127373881034,-0.0505581258315785,-0.13870087432183148,-0.00366855867813302,-0.14133381186798866,-0.07269561974584418,-0.0039324921139270615,-0.07744842230351554,-0.11409356566726982,-0.04075563824505815,-0.044526795158931536,-0.14166946657609858,-0.007022242298564945,-0.012523053586367912,-0.1337932948870286,-0.06433562110912891,-0.03677244741549398,-0.13813117893930613,-0.00940098633200304,-0.06627513319973913,-0.02692265770621191,-0.01133147955100119,-0.023524161587712228,-0.14073227846546357,0.010841163148533896,0.017470545617979033,-0.11486251775665539,0.006327530821545357,-0.0019706455187277544,-0.013023015034778249,0.0014805379974213546,0.03965007779761028,-0.055345975955614114,0.0012856913653984327,0.003034907008486895,-0.03965535303362977,0.005885617471025706,0.038500851738609815,-2.0274727005922005e-05,-0.03552824249553457,0.1849914006427263,-0.09889291996920643,0.059942818473197795,0.078855543331693,-0.08475726388910984,-0.031107278388561383,0.10138528500807392,-0.018986877210209425,-0.03296726726029,0.06944632796524321,0.06607157384388208,0.002239351955111761,0.04950848395200094,-0.027427081453194106,0.06504952570072582,0.2314455964443486,-0.04628854558337303,0.011041546193326358,0.1299572126882595,-0.037387329568068325,-0.09073714219911717,0.03651676680774536,0.0009120959012636348,0.06135524615860613,0.06739049945467213,-0.02324692590387959,0.005996182807738832,0.09655335254858675,-0.014128504833786453,0.017220512442948314,0.09234129969043786,-0.05296309953898437,0.09519537324748677,0.2565036714269722,0.2072916984227044,-0.041734218301675084,0.000547997394915456,-0.08653831883182923,0.1611446779887683,-0.046613381870106496,0.16869296322902294,0.04222729599518872,0.012198613394622295,-0.24386479018776971,0.022894970447015522,0.1428320783819018,0.060811238824650546,0.02044322679905257,0.5737236383433111
189.86929321289062,1.2992095947265625,0.417170074570917,0.08598545011176531,0.0360226228177012,-0.05616269180497671,0.17672160929518133,0.2546580419081276,0.04314678350190098,0.2979599680040926,-0.034004873983815624,-0.11648700613015042,0.0077810905473074815,-0.0473591513886478,-0.050232065380228064,-0.07163713583954413,0.1340934444790555,-0.030478866079483833,-0.038888997795733744,0.12120646646307294,0.00122956129070982,-0.004291094526662102,0.02068128174948433,0.00757775862001939,0.04541134418113632,0.06383494490191662,0.006390602091742968,-0.037616818370358164,0.09829281478247873,-0.04890203354687259,-0.035219316077940474,-0.08708562196114583,-0.04051205762579736,-0.033064309177599206,-0.12929631494065447,-0.03822453306977412,-0.05568827586132599,-0.12377569900693024,0.0011517920322750902,-0.0007771269424248394,-0.009463946594417554,-0.006171057198101873,0.1468971980300796,-0.07516292222234211,0.0027288737819813834,0.13484870958302242,-0.048638706714199426,-0.081792790234848,0.15705796384315918,-0.020963244631912334,-0.014034993117851122,0.05675616598665486,-0.005317228042822882,0.0416911485453077,0.030429031033439333,0.0006132595030812046,0.014568243744393012,-0.10958187179220882,0.006769149019191301,-0.026834196231113133,-0.1312691751167437,-0.04123210521031341,-0.023203649786160824,-0.2695397394736303,-0.20906669310410275,0.061025744503562955,0.0996958633342496,-0.02504810133605165,0.10626638613776777,0.028311923931135203,0.005640627185734243,0.1634480775844181,-0.05217955241513156,-0.004112835514095576,0.12352766128760363,-0.030917109599363453,-0.02974343608640377,-0.03989414588124067,-0.06075280484803993,-0.004244037071796225,0.0539480985568943,-0.07431835173803522,-0.06330587432432273,-0.07932564359565025,0.009736787903400504,-0.00862856509755324,-0.047892072771131326,-0.015106340825025058,0.0955109996984071,-0.16734886198915752,-0.14367495751723158,-0.04617788332831028,-0.21048619786003364,0.055746545515139315,0.1424015379803053,-0.009544432762184876,0.042653671384843835,0.11564154010513292,-0.12974955188624368,0.20897762137445192,-0.15081645453379516,0.08941813495416498
191.1685028076172,1.35040283203125,0.21982066102166758,-0.0024985285576131057,0.10441749884504176,0.21571859876738522,0.12173895522350946,0.2687447375072364,-0.055229058790762994,-0.08732457801703185,0.11022783477295264,-0.05348019176366352,-0.016829966965248546,-0.014235294900966446,-0.023183965699584422,-0.01318958071725027,-0.0019781726708491144,-0.015371296683405287,0.01920544651956814,0.0014597817949287958,-0.014104940260830473,-0.06150946145587577,-0.022469840048320103,0.15274704400747874,0.010092521511720801,0.02005718090019552,0.05526055172009974,-0.041526769804672244,-0.04891484051555141,0.01122331849846794,-0.1374184972076621,-0.02891814533268546,-0.040524299261483404,0.002832337906255228,-0.02185401906122798,-0.023478547174521105,-0.019631225809575492,-0.005050758464559223,-0.014659466950134837,0.08800289203451467,-0.06673048720350863,0.0034846582043122584,0.14586323153492456,-0.02271413870843966,-0.02519239905574018,0.017385938673648297,-0.0016011752995925487,-0.013413311601493907,-0.004541281351863635,-0.07781393035246366,-0.023610254709017862,0.004759218353121273,-0.032849631916987566,-0.03525864051592349,0.04286476499509781,0.056837324204412634,0.09715442796660329,-0.00845806673121942,0.14419760010208255,-0.03954914420328964,-0.023230194375064073,0.1662964056560521,-0.08031640444118054,0.061921600454264536,0.03441266597695411,-0.0416033837967197,-0.03382682383883031,-0.048592829037388645,-0.22987301546906827,-0.01679765769166794,-0.002730737788571636,0.011791179807523457,-0.024506629929731946,0.021229218875581858,-0.06328728309403786,-0.06533987957021548,-0.061189369692664634,0.0923945554824596,-0.0789522667716321,-0.0053271208863320905,0.08551034811973873,-0.012710550638943698,-0.021854109278602193,0.04149037238313565,-0.08791639690879452,-0.06879089997327864,-0.142845417773054,-0.0363873773147983,-0.08088468960514718,-0.3279871708804061,-0.008779135836321842,-0.00619330673932178,-0.037712128783900525,0.15057754972187132,-0.07632950773479366,0.02963339459149375,0.11757373035214154,-0.054110971223449496,-0.10573705211976142,-0.09169825009931241,0.503471251935047,-0.0022494333984641735
192.51890563964844,1.7595977783203125,0.14330071444781434,-0.04526594857099708,0.24686983104041357,0.2715790496158015,-0.29278655519102603,-0.016487599778078225,-0.03497421952743807,-0.10851359588547146,-0.02132321203146818,-0.0006944596615094702,-0.05431498405458295,0.06457853126831169,0.10566743211897463,0.02102350613713626,-0.0025952732728358715,-0.001568811489877186,-0.013608069286396633,-0.0017476245179395531,-0.033950841180130906,-0.026356410799583372,0.0755825446971278,-0.04148821073057884,0.020077353682590567,0.026495701822715878,0.0026298980499779136,0.18759022714183052,0.028101536432106514,-0.04548559010099508,0.08228227244280248,-0.08400247916536241,0.04691955064753989,0.10918766483539566,0.0012879210880633023,-0.01942318766872529,-0.0670465883694417,0.018326289294620067,-0.0357994181726487,-0.13836412033411785,0.10716540672443453,0.0016929634893316711,-0.09190945676823042,0.006386351021753985,0.12246299143715988,0.051885247377297924,-0.051063033322200996,0.023250137190164253,0.028177415012662715,-0.04336118058461965,-0.14675308216595126,-0.09268432509538033,0.08321906154590995,-0.06990196973663712,0.031172492928563778,0.010133747426385196,0.014603474727440455,0.00832024774271409,0.004477843600918487,0.05219631893998751,0.067542765137798,-0.08866455325733731,0.054741800496037704,0.12355281625890802,0.054398592460260346,-0.039854438561630054,0.033683477745819965,-0.047838499017976696,0.0007408270930462588,-0.07031787946253647,0.009108976223796089,-0.0533273167878126,-0.12487729599838203,0.04738709356278217,0.1379350552258844,0.0036073161960298327,-0.029006490669881615,-0.010707989074820855,-0.0036708528239336306,-0.042590540137602786,-0.15638143162072654,0.109481608981939,0.09090302643066055,-0.04075475015248753,0.06506011089490459,0.08932454107849513,0.015965873692401926,-0.20525075190775416,-0.011601141880422584,-0.049745417893547264,0.004705433487830052,0.05474057145837721,0.06832475913787932,-0.031110281430307925,-0.08430589669711024,-0.273929327122064,-0.17095711460528074,-0.07109615656567099,0.021989339797071385,-0.07125366348701236,0.15747275034144384,0.14478319061043637
198.22779846191406,1.33990478515625,-0.05937374853275794,-0.36129109750047145,0.06258150475608208,0.9862625550590833,0.044907252223537183,0.2955997645514538,-0.03073656825301306,0.38538288808373994,-0.12146399708243663,-0.13435885034585934,-0.015801016622488825,-0.044048134352565466,0.033025825218432406,-0.03880898381297565,-0.1357297587292788,-0.11890276421779589,0.0971437336829772,-0.012177227150767984,0.05771582281912609,-0.0945103605676424,-0.07264737916500832,-0.018722200990988844,-0.09761523377699124,-0.014398723651186995,0.05075073059028462,-0.10147977828636706,0.050564415292888076,-0.08887586248554243,-0.059034162382491207,0.11479902152583513,0.01244182230989977,-0.05985656804811414,-0.06298214476649794,-0.06324321676525398,0.03472072686526507,0.015685116423090992,0.03939369783195664,0.042597917756550564,-0.06356810632557881,0.013005355746467682,-0.0757736324636855,0.005483801312253164,0.12109403614086545,-0.0028718456597537014,-0.026306633520110895,-0.09037560294841256,-0.026462410353988317,0.034176227044692954,-0.03785611706179335,0.04629050926696266,-0.06888261671425329,0.06451128935036536,0.015309859252767889,0.01004183140999106,0.017334553797732723,0.07539159066541064,-0.0008220508346549646,0.03982444042692273,-0.11198984495152167,-0.044963116546675855,0.06760727137221023,0.0034403083605131753,0.004803288506046239,-0.02399780859522268,0.0312632313258803,-0.05605448256143926,-0.09246963987493954,-0.09104363934967875,0.04574909759240273,0.027957776528114816,0.027900045802485916,-0.011975334889969803,-0.0319039178937742,0.12476201320918803,-0.032400154742579325,-0.004381152136167396,-0.014656185560162408,0.08388097995366478,0.03356427396176451,0.03398356959943373,-0.011149251914983236,0.036318824596572485,-0.02820685508551094,0.000572679889395607,0.12976876135250878,0.2633573180524175,0.11397157634403737,0.008186163217109858,-0.010760376535421601,0.05442367192158075,-0.2467634876516588,0.18142680674476747,-0.06493937999495901,-0.12345491661972798,-0.02141936885647032,0.0043461619187299474,0.23391246719408518,-0.02627748831920798,0.015083350497446184,0.5625511272592416
199.5677032470703,1.3997955322265625,0.6937742574722049,-0.300836695994035,0.10269175187877977,0.28139026182183907,-0.1397863688567862,-0.4228500116589962,-0.4743436019663066,-0.2987450222457452,-0.11450230830203731,-0.019939153956739654,0.011324530184710883,0.16012930346948526,0.03177606426597628,-0.06004839086833752,0.0056901540994278655,0.11913405127178697,0.017739349628934975,0.04850780784744603,-0.002111650953197418,-0.010205413184159037,-0.15012826090913145,-0.0017562377704053189,0.014511609391919537,-0.14231929106706565,-0.018164873587150913,0.22067654814087992,0.029984472056261098,0.06773658856565115,0.07290956934518072,-0.004142414868906621,0.018949769748251244,-0.025542481844740204,-0.016406857680197548,-0.006623833146392993,-0.03597388169489812,-0.004051895651817924,0.06423640220470994,-0.10384817197697349,-0.06543257978079199,0.11142406497903402,0.0024076724192999286,-0.0019781403029674434,0.1505539962526011,-0.002811388730311107,0.009230416714152949,-0.002157136612539867,-0.003633645788827962,-0.010826296559076373,-0.00746953849484116,-0.03295981691427474,-0.03178829131682736,-0.126880809864837,-0.05528603394145637,0.027153575767976158,0.005554194532048634,0.11148983132533553,0.17132418749776926,0.025835915542442137,-0.0017927004712396332,0.09939033019485989,-0.015347173476627361,0.007506098350943205,-0.07440018337240464,0.039768566745302616,0.027433851843356935,-0.19439474283631694,0.0991266442096384,0.01963569194307008,-0.07095983407965119,0.06304451447046062,0.19810858323383773,0.040793251241894445,-0.04588775495706912,0.05008327433087059,-0.024200840726100133,0.015350917639985109,0.09894812571569646,0.09339358557016239,-0.10290494181860575,-0.2183041225955975,0.04367943978292873,-0.004705285206489293,-0.06288905873978284,0.007289423142539583,0.14051586338251718,0.12348533978480414,-0.0640071223823388,0.061855798348932844,0.10917431197803118,0.1163148709389406,-0.0899533286038518,0.310424934957875,0.2937834323474744,0.022740685600271312,-0.10964781440280702,0.004085630979588822,-0.00483630330708932,-0.039708411577720606,0.10866458123103621,0.04539165960089092
200.96749877929688,1.3997955322265625,0.04953594549041332,-0.5672289287603594,0.1791717461325558,0.05631299579782473,1.0659838611152088,0.3844085605052076,0.4751385357337386,-0.20276549518785497,-0.17716736273908543,-0.05973993280542143,-0.03516156740027519,0.025564916129561382,0.037027787485151654,0.027695576353611043,-0.06388678905232675,0.009103264435816688,0.09744376350678503,-0.056796191610803376,0.018415556064680514,-0.13707178707368875,0.046083280556245505,0.08586516377022863,0.08887254553275376,-0.04145131767746631,0.07656256468196723,-0.006414636827643795,-0.065797686967865,-0.035624191840268826,0.14781362057160655,-0.004581886954713038,0.032977879196994096,-0.03463230871584173,0.0035438986425660912,0.1406462183764245,0.04008113433040829,0.0013324793344468024,-0.001544953611606198,-0.019368096815144602,-0.13653865775626944,0.023894875514543917,0.13240589890180415,0.013620531019897736,-0.07023103005441671,-0.027262532771196217,-0.009299007456301607,-0.006086579910879333,0.03277360848485852,0.09540384828443663,0.049665494125992395,0.04264608424727177,-0.1297103606850558,-0.002378514814480419,0.05679984580451077,0.07503956811692467,0.05153125799778785,0.011189625222197177,0.11016145746798331,0.05797700098096838,0.009242391390512618,0.010143262479296497,-0.030984846550368955,0.003995475048631118,-0.027229703823841038,0.04784638191089852,0.15036944605766653,0.09394581119399728,-0.0906322027705935,-0.023639879202654923,-0.015882707907415465,-0.024054258978729287,0.044704718463043296,0.033667391287476284,-0.0038316800346533536,-0.05251104846277199,-0.04564505586230824,-0.0928237883414515,0.12340436817983857,0.030468948773137775,-0.03826361701439097,-0.04085700277492166,-0.03289423319235894,0.025856623474942022,0.10741927790063006,0.12226211484577804,-0.012148382081303586,0.0006673451410865753,0.2233864418712912,-0.01897010502448424,0.20226384858929827,-0.005703069698865276,0.1509547987333332,0.07629137608495917,0.00492165900349079,0.08891122021243525,0.1648721738543259,-0.009075458682416482,-0.09859442196331486,-0.3521728365560551,0.34446029418118357,0.3086015041929687
202.36729431152344,1.4298095703125,0.1817314921548852,0.002055445888081084,0.2332330105623712,-0.035745020005494996,0.44759257610291053,0.09462602008616426,-0.23630619678293133,0.15927530690961894,0.24701200675317175,0.059162621698940335,-0.045746743376319225,-0.12555200474626446,-0.0019078271770345105,0.06362427823168626,0.04473274715707019,-0.07485318753825666,-0.05966006780034834,0.029109842110714997,-0.0027017922830952085,-0.03990268669718419,0.14061384518022957,0.0713259248978888,0.01080523561841464,-0.08989141621529191,0.04640815350585366,0.004455091375636253,-0.021709347410562203,0.008901732171342998,0.016589711369768854,0.015154211566012779,0.009018033118127705,0.01629519682243191,0.06406960868992545,-0.03172911879475531,0.03443063761147609,-0.14158544591520053,0.03922909790639476,0.07950330219724416,0.01915449483055881,0.007630941616717346,-0.026565803156245685,0.005860263162524284,-0.031571894517137045,-0.029936676300877443,0.10816769723134123,-0.06782562309164915,-0.005138862440054634,-0.02724176555750671,0.004550346904674336,0.07816814578159854,-0.003281314123736084,0.01771991187854481,-0.004179084788144254,-0.07709993460348866,0.03025792019966322,0.006339478354899011,0.06648092203552472,0.018762170363226607,-0.07512528317184863,-0.0585493222473266,-0.04122848365143086,0.09050941878923058,0.011099670870615298,-0.02226918820458139,-0.09456575139180722,0.02266878677919556,-0.0005801716640961358,-0.022648415822620824,-0.010373250063948222,0.03672048894526845,0.013512240259197974,-0.023062132870112346,0.02932020349778116,0.11786370134800427,-0.014848462646119215,-0.013332239434545045,-0.029620540271352358,0.021979645050285865,-0.04183998122297816,0.008023069813090611,-0.027657136135099035,0.11901300262621273,0.02343751737136164,-0.1414350135455304,-0.05669945262378402,0.07752413119675441,-0.008994940342611259,-0.12321045090220645,-0.11316066404083557,-0.19001147929649126,-0.03687420008307897,0.08077813585408994,-0.05267558624950056,-0.14433393713217538,-0.10598883722957042,-0.1259303592795389,0.029290655138728,0.0503902810253571,0.01816871391588079,0.021948139963408247
203.79710388183594,1.4496917724609375,0.023027340072558453,0.03672132258454632,0.10151677838568189,-0.08709522263768227,-0.1422278581073853,-0.27695611140831683,0.08224291680638246,-0.1256561467407961,0.289028861370075,0.16636605265360133,-0.1592146363082821,-0.1400776881781465,0.015790198455215523,-0.011825467871721744,-0.06653307849681397,0.01971383197036837,-0.024139480596081057,0.03283734924966259,0.09803273489223407,-0.09159910600953979,-0.020347100358994813,-0.02586291213290986,-0.01734017016556396,-0.12505496180757367,-0.013286013654317547,-0.00592030960969363,-0.08344422351430554,0.13043789391509977,-0.07281357033386646,-0.0009309019324145073,-0.013105902605438558,-0.07789750108365107,-0.11647404129705209,0.10253859703461944,0.0017984074743703964,-0.05686836183686896,0.13758455634218852,-0.048026644320701584,0.014760128003250389,-0.02816990465614111,0.02624789755592985,-0.10677212215020876,0.006735744209473439,-0.04582917762958515,-0.0031011531916308455,0.09458934314867222,-0.0475991002312134,0.00903733251352651,0.04152480191671541,-0.03958026283892741,-0.011757464796475742,0.019957411116161287,-0.02751765119174053,-0.010254625720374375,0.04091443770744558,-0.005383863915990365,0.0479912200934257,-0.03926738588483862,0.024475615353938406,0.00979032721710705,0.024885476470557916,-0.12634441406213062,0.02695211963661718,0.024577913881913924,-0.06105734382217637,0.06035698856264522,-0.010674481369803682,0.04590516071356707,-0.00540002509185478,0.006850013655097575,-0.049133397957640164,0.03321325453144627,0.010969590573351586,-0.020815359188825888,0.1087577280766201,-0.07738265179777505,0.011900030481137512,0.008017001058505724,0.05156297509772182,-0.06263319866259523,0.040254940958492885,-0.01959123044677486,0.03902192439117262,0.07889865633425493,-0.04419743437954352,-0.04850924483037601,-0.031142354137401164,-0.020095628675041156,-0.030339946468656162,-0.10689086103172635,-0.03439917712740825,-0.21315557816370442,0.06335209205403267,0.03716865569151815,0.385038124168291,0.017346101012834066,0.14093996176358375,-0.07750967276153924,0.055706005065610166,-0.19667545873671416
209.99630737304688,1.3196868896484375,-0.018173103982724148,-0.004233589964350824,-0.16560374568711306,-0.06069229106539831,0.2588041342772932,-0.4238774150277508,-0.5442837291720487,-0.1773035980685673,-0.24798163431777737,-0.0325324184594103,0.05652406983646707,0.011249928752986678,0.0761472285585083,-0.006332401343096659,0.007770527256016055,0.03295138387498202,-0.07249072484728096,0.0038085541134954106,0.10881339014064195,-0.010986106468866969,-0.028655308312896553,0.08233479018870608,0.025790399191221183,-0.014548206526263091,-0.10443441316150925,0.047954579175865666,0.07040546618472396,-0.0532396714967533,0.0019527441206691914,0.09764076924639993,0.06967241558763494,0.004801058466968153,-0.0709949361507629,-0.01305301927243004,0.11265328015521578,-0.02605386109475112,0.022485370263208824,-0.007127852955078175,0.002091634127605176,-0.027664962831665467,-0.15944193917705451,0.028211746617406868,0.1449847586500835,0.04831370402118866,-0.07920407844347971,-0.040787573790492866,-0.005951708889452988,0.03967702963063402,-0.07208662038783253,0.04228051287884363,0.19057690135198452,-0.0239476188731595,-0.007150123152755962,0.1013568669348493,0.05996462668739604,-0.08854542108969068,-0.13584508595479253,-0.005177603032145634,0.1530230208153928,-0.06974685906390918,-0.019973671924554168,-0.02162057528828991,0.06327491109607711,0.048769561237359836,-0.058684252296095224,0.03842676623135875,0.1492625476072276,-0.034971040587204204,-0.007008539625362729,-0.07062244133776166,-0.03496926011235352,-0.026226687805787983,-0.014129785352923087,-0.016223460434914322,0.13543510503691858,0.03017025845529219,-0.051131256820234006,-0.02706381985648909,-0.029870414070019263,-0.04136536993968312,-0.05121025223813095,-0.01307412437195632,0.06575735321200674,-0.045003961884736154,0.08236337091198302,0.11288489134217772,-0.08152734093682117,-0.040249117857075176,-0.11385504050725595,-0.025356325124296003,0.005700629870523617,-0.12238641254355025,0.021372784716039105,-0.003746994142509369,0.06829875673802302,0.018888331311289072,0.037722576731405486,0.07964975824268862,0.5435660876845042,0.1866665780427117
211.3159942626953,1.3798980712890625,0.1925253393999938,0.009594481678998817,0.035817348410483424,0.028164750327200238,0.06033195028860105,0.0476012711710848,0.33344233753375885,-0.08616557582296029,0.18700600270650247,-0.31231759485418686,0.08174338774167368,-0.08154484226716467,-0.004236182568554157,0.0007664884345352614,-0.0677655276692792,-0.09944242821205546,0.019587897524114443,-0.04558633646127583,0.026288153244632143,-0.03130369577756607,-0.16492548752521313,-0.018696594794012894,0.040952084362135634,-0.007642034113608444,-0.007522573799057444,-0.01813293087413532,-0.10965024192913655,0.012885197723391912,-0.008614493941139362,-0.11868049951497495,-0.007720108899013242,-0.020936164702228678,-0.14721913120115182,-0.06991645386899092,-0.015090774965883607,-0.02996570661212719,0.02158462532832773,-0.004187664473823864,-0.06221352467798354,-0.07204290859429467,0.009928957284659383,-0.025435812707652355,0.0414796326871211,-0.013113328539486137,-0.100381073075299,-0.019983815147672647,0.015449296279322015,-0.07995443070994077,-0.03336533127572293,0.013464755502500791,-0.048702267338339544,-0.037741115589830246,-0.06774124718049411,-0.09903304195770227,0.07410010903625157,0.027596801860187023,-0.042666991268599415,-0.03321033712245573,0.03457939848540478,-0.0614785862898524,0.02898696680088849,0.13657579379573834,-0.020588503887376694,0.01096868318672887,0.044312564416736575,-0.028284946087277617,0.03773839085123373,0.1420932277515954,-0.02109139850036022,-0.12609229487137377,0.08733005965817256,-0.061640152697602466,-0.0644718516585753,0.10280460835881067,-0.08840582946382732,-0.023310692546905508,-0.013768829580627608,0.00037820961772820367,-0.09953785244689811,0.1743686621923463,0.03063596742360554,0.01347615699129953,0.2510877454214903,-0.008402400378596912,-0.03565271501955952,0.049943325909410696,0.031895231889492816,-0.08756237849670233,0.20384058444883688,-0.16104647909741698,-0.04147085000410857,0.15715941872347514,0.12004428750377882,-0.02867412964825414,0.1071996002422751,-0.2943565121407882,-0.16781642262999405,-0.23873903281835873,0.024802813201292094,0.04344917357972983
212.69589233398438,1.35931396484375,-0.09961094758870531,0.17763097354685495,0.42203119684306306,0.029061655271925446,0.19216887959867684,0.18177046486117068,0.06949450380845681,-0.0532474055228015,-0.006311632157864167,-0.051379005459033934,0.07856485596257884,0.046178534861496735,0.0028816337933197274,-0.059489164330631984,0.012659023526764235,-0.006215349791857352,-0.007077973025382593,0.0321770156792779,-0.04798666911114295,-0.026275559409565635,-0.01974618922449725,0.0028876562385822258,-0.015733669924037564,0.013804691859203688,-0.08506773193255801,-0.030333038483250682,0.01565869216307011,0.012827083060850383,0.010597871215193445,0.005757933134668464,0.054748555278634654,0.09831985895221838,0.024021208729973965,-0.05689457584216039,-0.0764319388014123,0.0038142911552037865,0.06967610850369314,-0.010887745701580446,-0.034800294549659945,-0.10883319675288868,-0.022301333673862923,0.12994770354050217,-0.02415204110856875,-0.01119447665498301,-0.10862406956529407,0.0008858680207406572,0.10134411179166655,0.04011060790796672,0.002045248757185594,-0.11221347283245692,-0.0011002698689151443,0.03614998950529863,0.008044803759357422,-0.020691438707803204,-0.07963074374165333,-0.007280731192459392,0.022437408962265724,-0.014697072606499492,-0.038069012875300574,-0.05816589089184576,0.0376551215871318,0.10736949063035295,-0.0022519920339624444,0.017230802644307274,-0.013191788914547092,-0.03237777195777945,-0.09634715751771139,0.021354352157754816,-0.049878247846398466,-0.02019609589569688,-0.000549894636976148,0.006812753484910371,-0.00012918508498673616,0.0050945077071968825,0.028061085130189577,0.02334971847769646,0.009245977883259827,-0.02916344098970928,0.09271074210238746,0.0008866639678577759,-0.035137275176940375,-0.016201193013428518,-0.11177675319886132,0.03320334410166737,0.16725129328664295,-0.03152245701517371,-0.05731792560877647,-0.07820305658236253,-0.2003268167940904,0.28875413798373456,0.00043492146757254796,-0.06679088877424434,0.10444590672114988,-0.2780128177591282,0.16353617153469416,0.06900260837535017,0.31010704213259455,-0.054530396337400776,0.06943291792609768,0.17246048692523083
214.05520629882812,1.39019775390625,-0.13512282487766775,0.16931385616875388,-0.09083343091269638,0.04283951281233113,0.06674335098127174,0.20507910313662692,0.11411214796995128,0.08713533876761059,-0.07511863650334487,-0.012840842164477437,0.1053106986538718,-0.04006246747567975,0.07721127733022368,0.00931845173531228,0.026454458906681716,0.003279736110240203,0.058372302646299196,-0.07105577800322237,-0.05562491500863646,-0.10889032525086956,-0.008914982423272799,0.07216873387994233,-0.018255137784466746,0.041643508138175,0.06499087158199646,0.03720288426590361,0.003697945483729024,-0.09142412690577813,-0.019040101756761515,0.013511551634989849,0.048590131748758036,0.03171544975065189,0.05204950395075916,0.011417684958413858,0.02018000894809821,-0.14066217046478602,0.04942723508668417,0.0804311575356598,-0.0020916652665490328,0.015278019583129264,0.03443964992443789,0.008628748639416168,0.11083687986125543,-0.061568012170866854,0.01911425507094995,0.1193222399382653,-0.015225491506170304,-0.07304517587751358,-0.005974661739512721,0.020357372604599615,0.0026668456710363547,-0.0999653636706652,-0.017185413631580923,0.06876256269225517,-0.07431876427419626,0.0017874285531026472,-0.015358796145670272,-0.013175650762785375,-0.023744552401088914,-0.06993427479191937,-0.027938021701834712,-0.03396479204298279,-0.005680309812050466,0.01642087541930505,0.0627315523364079,-0.004400965100472193,-0.04497792209109656,-0.1552112341036353,-0.01911703356355994,0.010247629005688347,-0.006962320159165009,0.046658735991302214,-0.024649971193611377,0.0249497193326344,0.07550498551831694,-0.12374426239299556,-0.05354051671441858,0.05619570273023651,-0.04011696741989712,-0.09195234195263176,0.06126530306759674,0.05356782922385711,-0.003944539107243259,-0.0941462615616001,-0.19100116585514104,0.06343889735833129,0.15585251099027436,0.031061692543370524,0.12228719188957998,-0.08363295551787928,-0.25677058843030576,-0.05128546798257601,-0.02174093739372455,0.17124440667783591,-0.20554718569937994,0.003418151307273422,0.003572453543839338,-0.082385980595072,-0.05136502995509172,0.03677557856185422
215.44540405273438,2.2393951416015625,0.04875109349074722,0.14374657758568185,0.10501773388441445,0.1359178881833549,0.469788183465725,0.5588484213359862,0.11627950395307299,-0.13358826650676575,0.03333007977385094,-0.05690692127574964,-0.013028403293730579,-0.11488231923957828,-0.04978028278127791,-0.008827802885703857,0.03257253879250219,0.19497807729316513,0.01966089051870529,-0.0683742819469998,0.010582002849911697,0.11672861827798506,0.021510351564577795,-0.016081787840739877,-0.08411388051746152,0.009580959908467529,0.15108804990101943,-0.029771131487032622,-0.012594686387491732,-0.1406996039450166,0.009221494625058835,0.004384872908279609,-0.002471232828445201,-0.0024042632563209534,-0.012321304881631598,-0.024430675670669703,0.03456696102089597,-0.013388226250631054,0.019514245520542647,0.016012687715809423,0.016093069372417442,-0.007331779497788046,-0.022148807933743315,0.06581950355993729,0.01702546659907695,-0.01919030027391274,-0.005390451957103311,0.020355580204827292,0.06737374100133385,0.029439144213544877,-0.05520469537715082,-0.13087940715312973,-0.012197705487137249,0.18780705499612751,-0.012892236082491751,-0.057611539943607556,-0.08878102326656756,0.00026082726778018815,0.10693819029146336,-0.09075194399606115,0.02558160139799979,-0.026197013071424653,-0.081920973450652,0.03162356992233818,0.004396373855105844,-0.018237291720404388,0.0013867379113259495,0.05999609530669183,0.0477347386366993,-0.03310837175041898,0.04019452413873392,-0.015193131059318465,0.00784047387877861,-0.0028265214848689764,0.010258427058737488,0.11985681129523118,0.04554840659064035,0.030476989125425083,-0.04192697709034106,0.020310015042209265,0.21911412580562004,0.01482457586906498,-0.1121054487080477,-0.10000760961434424,-0.01852684547485252,0.09507258683344111,0.017426179917088953,-0.1087199500371269,-0.2243042913527692,0.0014924505135920274,-0.13793548037569855,-0.06127895446114803,0.1733010892423149,-0.06166116542054207,-0.15456767710756322,-0.1055386108421734,0.07795258598208797,-0.19629130174753878,-0.13594714974483396,-0.12762546183995083,-0.0007900133214362448,-0.13753589452249926
221.66439819335938,1.4394989013671875,-0.04312005679756474,0.195057818251188,-0.05504043540507426,0.05006012752616143,-0.07943474546572184,0.1456444815258321,-0.004939159785085884,-0.05091318266613677,0.09928573637148416,-0.13778363439544766,-0.11652226547269302,-0.0039008133497394682,-0.016837117322390495,-0.04468101760139726,-0.10108852108105267,0.001681449926648224,-0.000885061481250231,0.09589880549359163,0.028598355196095854,-0.1264779251888421,0.04636412877701234,0.026251189329525082,-0.038146893132500914,-0.026131168159558623,0.1370926781849202,0.009503866713890743,-0.028987578352712283,-0.030033926131470087,-0.10468200874307179,-0.14452790220638187,-0.00045688535434552924,-0.02032485121441805,0.005865025024161456,0.04177324329245735,-0.024931194525684514,-0.04732900083551904,-0.010152168300589893,0.004668940422285477,-0.059207521800790655,0.002841105220694546,0.0664887343549385,0.0022051633775914572,0.024206208622244478,-0.05109222855348425,-0.009732705168220722,-0.1435842691874257,-0.023705701427785685,0.11078669901383618,0.04942820715623428,-0.022306944863186896,-0.054159066372409956,-0.04613041406674111,-0.03416822531264426,-0.025328786927760433,-0.02465956466344416,0.017315383327913915,0.18612123197519892,-0.04293081598245381,-0.11791970648591389,-0.009412128966480653,0.0419544917719514,-0.08557639026885602,-0.011654538909433017,0.1221618651598044,-0.016855369532954106,0.005507360094471543,0.007824425461080852,-0.07329621728377159,-0.04334163181218221,-0.013264924148488719,0.03681108443794599,0.0049484794923553704,0.1272779209860806,0.062459369275334804,-0.02699761522460985,-0.06781758932584966,-0.05930617631548146,-0.14140858593251696,0.04692432104198786,0.038663998600464655,0.05088963686671038,-0.015096040067757426,0.011752039308172547,-0.04112921054774092,-0.08656717054377887,-0.03750609962372266,-0.13716764416228924,-0.022273326204040142,0.15259633882575765,0.1314167313107501,0.03686278386280646,-0.17203368469185468,-0.09348954078483598,-0.02616724886250587,-0.020494180308084697,0.09916384425075495,-0.04702825944496508,-0.01431947471757741,-0.07636326809944563,0.024538419271008388
223.10389709472656,1.37969970703125,0.04699385802055571,-0.18502221076423936,-0.03736488428031877,-0.18836368048446087,0.26139000141322544,0.14884757143062105,0.3139525007987827,-0.07059666639949727,0.09553732257340697,0.011139785957004957,0.044213409175578415,0.022276729172879737,-0.018219021907510534,0.025381309162379528,-0.10104120817977046,-0.06374396632105131,-0.05327011858346624,0.05952007730790577,0.0968732371055233,0.008800931447764133,0.03461420314092727,-0.054860297408061365,0.06208754260278552,-0.06459772913030173,-0.010494230562029597,-0.10492333676600898,-0.04311762883790176,-0.003069997397119467,0.017666162638514504,-0.0038415674840383994,0.001850347935876756,0.13726090866476887,-0.05159225322129713,0.034759772442151976,0.013654029829752543,0.022940478607109464,-0.07013328917522399,-0.014705701046954962,-0.11303899819219446,-0.009316197809457935,0.028593610957790682,-0.0022877678438191183,0.1760849976111201,0.025154384565842618,0.05339965362056353,-0.033959757817120476,0.001270567068836402,0.05696350715838498,-0.032376285984366246,-0.1020622017392579,-0.024789014222351552,0.0049078507570125855,-0.014674361383517395,0.058834705618540095,-0.01000010448756726,0.08267224425131992,-0.0059683030428656445,0.1026280739783455,-0.020113784447155336,0.014869898479460759,-0.0578292865241766,0.0018651610617343608,-0.01721512180202854,0.04410352787177854,0.03454646060923901,0.0019378312272125546,0.15128240013759284,0.003287652482584981,0.06949303417407374,-0.006518126630712952,-0.002160530471995882,-0.05879494618777738,-0.06921068068302175,-0.12393594458272537,0.008829419352966978,0.023186564713684597,0.07235296272463568,0.20994660778313384,-0.020950650980715288,0.042095243639628424,0.01191662332780726,0.02316345151960278,-0.060204213207744335,-0.004945769091869514,-0.054212293250828165,-0.01134033141826625,0.0034378830235275645,0.18100335829033037,0.1470260470672705,0.08007402151149468,-0.047745180863699097,0.0019833010395845785,0.004925077150869123,-0.08053407668197128,0.060023498427812495,-0.18119993694789882,0.05836431801280187,0.10700439105049368,0.12219910021786726,0.13453433833443096
224.4835968017578,1.3903961181640625,0.14877800935937632,0.011686927311788008,-0.0049202448589753985,-0.21420278706619453,-0.06339070296299702,-0.19285540954549457,-0.131353604967676,-0.2547656297806715,-0.19505170003207983,0.019748083353067117,-0.057605976957356766,-0.053980698043271484,-0.044567447790411135,-0.08703937020153217,-0.06062474399739098,-0.1610269574709502,-0.033445981753960255,0.025977503362415222,-0.06535873835060599,0.029444823551136208,0.18121743280455407,-0.07802208225349364,0.03935351704823936,-0.1323090227967645,0.0035183381977318988,0.167578661563116,0.03349804100018275,-0.007132246874333901,-0.11840763445427914,-0.026783412920663677,0.14413586347020718,0.0026863171753359364,-0.07484809433773401,-0.10152226373478765,0.008966791944478466,0.0918628206954356,0.054333844762935846,-0.004847530956585493,-0.060181448661296336,-0.004483598814220049,-0.04462186183253504,0.09748924823168442,0.05074686912779717,0.0021848316689451696,-0.06894992494864836,0.04378026704297192,0.020575445202266337,0.07050638892126536,0.040493668203805594,-0.009337700277632394,0.03260405321928321,-0.0845463245541444,0.0378794345593331,-0.013069982898708494,-0.011444100918926212,-0.005470993617417345,-0.08420991161425492,0.015678909517585514,0.01807697049410724,-0.006627928131099746,0.04393696484281338,-0.0036835034385590093,-0.00438563225583914,0.05440518952328166,-0.00851567252194356,0.01894177377578199,-0.13533990882530983,0.06433119941026967,0.12253769916377967,-0.02691259298241504,0.007065967986756787,-0.14342867685527189,-0.06664681961485944,0.05450858561163341,0.02150247176083609,-0.0021312573262422026,-0.0946487745695527,0.005854089690907874,0.31608363331710454,-0.012862595990174796,0.05755794742437767,-0.0875634026137935,0.06693121554276499,0.09338007493262393,0.06657105001109338,0.03276808501595657,-0.14087162793711958,-0.05395438853661248,0.022545446757648722,-0.06389404069464219,-0.033166205723819515,0.10311712377595297,0.12431171535708527,0.05752799373495927,0.10874092556352655,-0.06204823743228421,-0.12137412577919542,-0.17141838969760162,-0.0886139508347543,-0.05085992622823086
225.87399291992188,1.3693084716796875,-0.04404677205088182,-0.10444364514367205,-0.05720888844880723,-0.30999150919283724,0.20312500942002898,0.10640910641854179,0.10763643261487524,-0.14820840120031598,-0.1140515347499414,-0.19252643496228802,0.2623371979609579,0.013573839918573744,-0.10427463606218326,-0.16460888998825873,-0.002112652375159185,0.036544875772008184,-0.004643170481500132,-0.021907077411774063,0.09569973148623222,0.02055417794786364,-0.011409485832629351,0.003739385978419779,0.02927360410258292,0.052522145443677636,-0.019625954140020815,0.020927101044091123,0.09180176824692203,-0.0057298373743092795,-0.008249289564006525,-0.034713881644537876,0.01675467960224656,0.0782665420527718,-0.08627249983363137,-0.013924587785087348,-0.1138239782054379,0.04563438690870774,0.10702710422599691,-0.010404693967454378,-0.03758837891760699,-0.021084475649015527,-0.01184587753261352,0.08750878498596368,0.012582120767065785,-0.009410556047528194,-0.052002048759080904,0.017959460219376944,0.0004606686967915108,-0.09435165042480775,-0.020496622540264228,0.012477073180322318,0.021327199348795185,0.04798750879410156,-0.004599018757803717,0.020401119685206096,-0.02094827660779913,-0.06920008962289896,-0.00415875760809661,-0.009229941011229457,0.12935094312372186,-0.007625507949965502,-0.0002907042694864275,-0.13788707289536573,0.0543203760431771,0.19736302740000666,-0.04441943700189694,0.014057265519918866,-0.1590930156097302,-0.02979438772483415,0.12115063671590104,-0.05471303106834161,-0.027297969076990298,-0.05097938561193752,0.034491460344185695,0.03640385987182351,0.052319130852323065,-0.03472581940611942,-0.09162263497678208,-0.02599617362186695,0.06220059221629702,0.037126403289453436,-0.0035402253091877233,-0.05814962861589538,-0.03365261144598288,-0.058413480280556915,-0.05686829452362395,-0.09731434608620235,0.064637074866286,0.046523788727295304,0.05074290059366242,-0.050569019748470195,0.06161447393552044,0.009308787887095226,-0.00754939449855455,-0.1563997509638173,-0.046467182573305225,0.09937224387837416,0.0473818478222493,-0.01757288531289961,-0.0768261379045877,0.15191959033897234
227.24330139160156,1.3903045654296875,0.29189454539244325,-0.12664205339222318,0.042403350343995685,-0.4450457231377857,-0.10073068329100897,-0.011423530737698103,0.14795973271273666,0.13482304412423463,0.05184753926560015,0.004821865308064506,-0.009790771077210443,-0.01814450310162951,0.03279265939190956,0.026071620388398848,-0.01932539705663913,-0.07328071543053542,-0.013359965775601793,-0.11615482269275215,-0.011539728803014687,0.1010335587338674,-0.028460814752242127,-0.03200675939477366,-0.061583757668123115,0.035198224003295114,0.06727444154976714,-0.08746812981629881,-0.012553690416582969,0.036984517717360825,-0.03640271853683197,0.026317970161178764,-0.005140287011481078,-0.07493243113261666,0.1083293219469349,0.017316248643041668,0.009977054595355023,-0.0031483148965225937,0.0639339170003362,0.007139724092095965,0.005367589782352338,-0.013073892746751251,-0.0028495250114798226,-0.03490759772495519,-0.04715906740190562,-0.05566499798378059,-0.03749688582154591,0.1205641019654654,-0.046919833604813596,-0.06885249189768575,-0.10641072782366898,-0.006161856720051276,0.16956949165266721,0.003030370286983317,0.018201800611068842,0.03551499513296415,0.018658327696609786,0.009603153075629563,0.004781446646022955,0.008112154677025358,0.08592597949875458,0.061611225997160665,-0.042733116926015446,-0.1014866102791099,0.011317476214689277,0.16391395401910747,-0.0994973149567816,-0.10815897463255636,-0.04605524170415429,-0.015490166531448843,0.027224037238370163,0.009859392984591361,-0.021335698409358325,0.041067261859480855,-0.04438903565677503,0.03989806882152082,-0.07822545749136456,0.05485394493384218,0.14489461363632178,0.04022589697266479,0.03584350586867968,0.007175591477325724,-0.04429591029071138,0.0725237864258243,0.02679876061705419,0.02627899852604945,0.006925669503472179,-0.2818337468182355,-0.11758309904890919,-0.20118330060819956,0.07584674189497603,0.1005536727113452,-0.1523324613647085,-0.0030744354098340156,-0.09317433830885544,-0.011709088419604195,-0.034477049355418905,-0.13166353923624016,-0.031125147900408632,-0.12881289983133598,0.042949339559700345,-0.17786709315706212
228.63360595703125,3.059295654296875,-0.331229412230922,-0.030739769629818073,-0.29435838225062516,0.12396025417089117,0.10202004638201412,0.1703155274630491,-0.22822028742949016,0.14571907098230227,-0.0949838005767484,-0.024927547173824054,0.07405165525942035,-0.011165054603773414,-0.10567490445832392,-0.10203049628906538,-0.07290051709289985,0.1556332904278324,-0.01346405091392752,-0.02952432043269098,-0.12438241697435709,-0.03780141307149516,0.05021874712077794,-0.08170890723988943,-0.11404725486623633,0.04335339716097667,-0.05635291842537374,0.03966409919714603,-0.013536753302329287,-0.032718305505375044,-0.0518990778129303,0.009409701304591164,0.10275293295561133,-0.026038547446690607,0.04840227191580966,-0.042040000549201324,-0.0005160436365276797,-0.03512159082343645,0.003336506788510438,0.16512362124404406,-0.08335385262788743,0.0021592635011793712,-0.12438981951914518,0.0632640818443437,0.2031869652001616,-0.00647128328037852,-8.87207671556855e-05,-0.09236865468229682,-0.010568259805322163,0.10293486269939178,-0.017570658986300735,0.01985317853246401,-0.09031489333142277,0.042972457658309815,0.0789409615350859,-0.03857071214292246,0.010625429259252151,-0.04831521989987232,0.018338280831537292,-0.005675819791352556,-0.028303580961503195,0.0776903440465542,-0.05292727338243694,0.06237127063121714,0.026750362533746283,0.022647343513081265,0.03522526947545841,-0.05683370568963465,-0.0670467896589812,-0.03627384116694343,-0.007482490908769941,0.1414811423006503,0.006763529113502698,-0.005466179108546403,-0.06690941026493934,-0.01240506233506436,0.13238794838146567,0.014702300655208316,-0.037774505894424736,-0.08498972187442096,-0.004201721295167552,0.05396335332059926,-0.038898497326549465,-0.0951208794774917,-0.11302117044614098,0.00408467822464248,-0.004779500378226673,-0.003922788276083852,-0.13677477616744022,0.1828272298605398,-0.0667003535239079,-0.035309731779661374,-0.05499912134391863,-0.07895745494850731,0.02110248489371676,-0.008148550796988287,-0.002283794968473021,-0.13485832937841277,0.09084056235603105,-0.006841017235141439,0.04400515510074598,-0.2527591820701354
234.40260314941406,1.2899017333984375,0.038561549882492746,-0.2513131520055618,0.12708756513166652,-0.18410950788239222,0.23276165803095888,0.16773622077385103,-0.1984812459212438,0.20519908347219604,0.042557252300901884,-0.048628438881452435,-0.023503186267601422,0.035118763079203405,0.3293261535774688,-0.03548492105320405,-0.015047329478927313,-0.004492335392689705,0.1302005978152627,0.0018253904095575134,-0.02195246466818941,0.034629956901859056,0.0044443939122491135,0.029885262696758425,0.003974210403294295,0.0236801055996845,0.07008829390417652,-0.013171910334161764,-0.0896944971831176,0.09717573681850054,0.013746385568552422,0.0007027780121155638,-0.007621236336488469,0.0031867635144157786,0.01116043353219504,-0.14350526327130536,-0.007174054034313474,0.001781503827111848,-0.04792539532470664,0.021388525572893478,0.04634493829825535,-0.006499661021244583,-0.03174133514510521,0.06324937084367596,0.01234272967617362,0.025735140613248237,-0.1424354466367295,-0.021930782529347798,0.16139448687740385,-0.0011168788301057233,0.030040318264784024,0.0849655742228842,0.0481460059888094,0.022914203144029414,-0.06162681976266066,-0.027150088503258354,-0.08034623867910548,-0.08770819601688408,0.032309227083403586,0.12305156597277093,-0.03573819365381281,0.01708812265466797,0.1203618408640092,-0.0524648647274263,-0.058013600709765564,-0.07769733420131841,0.0829750727780936,-0.039375753206180704,-0.03608268380968289,0.005807267943416489,0.06558398956277964,-0.07770551564439951,-0.06704124350783354,0.03280466689510678,0.0007413054652236076,-0.032262649426751853,-0.04224132067939412,0.06328361891197937,0.04406861535858729,-0.015349079381443977,0.019998349126950712,-0.025807941102389598,0.08267748630719338,0.09139711373379604,0.009127821514027315,-0.039443160070929295,0.019613479221822938,-0.028343672472547425,0.041608017609411574,0.20973810303386703,-0.3494420039175699,-0.23800254419849645,-0.04080494974542218,-0.12343431230938313,0.03466747014856519,0.1921728638333426,0.07078632054159589,0.053102119826720834,-0.0936023270516961,-0.06967725808576533,-0.08122572755856086,0.014974143716696295
235.6925048828125,1.2798004150390625,0.05030350679554761,0.32409209973755143,-0.05140046194181377,-0.08248762690764605,0.40265155884181886,0.33998188999550155,-0.4120219792426589,0.061334960902516535,0.40953681834358463,-0.0015684116589632022,-0.13102024559655484,0.06417115397830775,0.019845676393053686,0.06061381584023509,0.0171699241418537,0.11241948800786207,-0.015330312009291872,0.04583651659891722,0.016273649648185604,-0.09250497133111964,0.008048357530734384,-0.0900161858682543,0.07344190942838606,-0.016899845010762395,0.08852334849961227,0.03627665044064578,-0.007947386294320867,0.06888800059888354,0.037427259134115445,0.001682901231464029,-0.025687333104240054,0.017457102373829206,-0.14123168422935742,-0.01741977786187656,0.05369317105046166,0.009549933486738786,-0.031150375016200386,-0.000993279892195123,0.09696486148964972,0.001097435830189493,-0.03622460178164581,0.015693500579677132,-0.05629954180058527,0.005669254895814351,-0.08598401202231658,-0.035013552610360356,0.0030018573307922423,0.031710870166722964,0.05622120228528241,-0.07916176826260589,0.060134087224866496,0.2246119737131326,0.0031597692198061106,0.0055723433345609506,-0.019940291866888976,-0.04161473458110452,-0.026109573081476364,0.007509941735816907,0.03931082890691422,0.012854905942726558,-0.014982651413388937,0.07332374627930233,0.04291872026852816,0.03194658052472443,0.1803055473738371,0.00512346823806506,-0.045032617886948054,0.002610998845764269,-0.15342418097777236,0.0563717737320096,0.00528861624975625,0.06495789842476471,-0.01537924868749441,-0.02201774235028847,0.18147584379150133,0.050077673065387664,0.012398098795990041,-0.007365286994149125,-0.06725665849947032,0.027443921224368485,-0.0502765651394389,-0.11343387170638641,-0.005640638494234781,0.03205008060706242,-0.06666286859401752,-0.20756876916963762,-0.1091435972884937,0.1398063960683642,-0.15457449492257808,0.10414556572789183,0.517501019825865,-0.1810556325405272,-0.14833396384399822,-0.1778059091665049,0.12651967829065772,0.033166684234217786,0.3103423115321295,0.10253170915970625,0.07177816018159758,0.4071057859357489
