start,duration,0,1,2,3,4,5,6,7,8,9,10,11,12,13,14,15,16,17,18,19,20,21,22,23,24,25,26,27,28,29,30,31,32,33,34,35,36,37,38,39,40,41,42,43,44,45,46,47,48,49,50,51,52,53,54,55,56,57,58,59,60,61,62,63,64,65,66,67,68,69,70,71,72,73,74,75,76,77,78,79,80,81,82,83,84,85,86,87,88,89,90,91,92,93,94,95,96,97,98,99
71.87265014648438,1.4798965454101562,0.0845457805198917,-0.1276346722538657,-0.024858804606042388,-0.032541045378385244,-0.0013857184960200204,-0.05036664857425774,-0.01190396026510675,0.1278874391613249,-0.011442541402737134,0.00543101882031121,-0.038644560255455526,0.01069729219706606,-0.029803077093157524,-0.00871753273575025,-0.0009075560641140632,0.0027938990800952007,0.004265399564668329,0.011776621128961533,-0.007073444197844978,-0.0017687785995657121,0.00036898480846030726,0.007282696747364506,0.024957428240901896,-0.009373303120565016,-0.01107684651164683,-0.02673653158322298,-0.05657128348085544,-0.009610107126622197,-0.0018155417546767208,0.005303815927848074,0.011171611019981447,0.011269495651511885,0.03607033089168737,0.018828494111843397,-0.026384414437872705,-0.011055889963778022,-0.00014109931809562005,0.016339703390747865,-0.02700988598115321,0.0009334672884682288,-0.050742636150428955,0.014513573450777162,0.018121310800113723,0.1018589518441386,-0.05650424128140309,0.008589648056590961,0.02408079400017972,-0.04232320815643108,0.0012042877873060227,0.012606824131501703,-0.0006298302407153234,-0.0007387310119127876,0.0035133017578036106,-0.008517543007609273,0.06332018716752444,0.018450123438208295,0.01606822823747355,0.010881638328697122,0.0006416111719496792,-0.010165646269762475,-0.07231063938159922,0.03685757951326767,-0.00783641862988656,0.011638142905046066,0.03257739992792974,-0.055612858336430496,2.1788736198376907e-05,0.03708239090992064,-0.001134795805964504,-0.022995807968152857,0.04853354000982717,-0.06038959393764945,0.029589553145704967,-0.008302304053943011,0.01195177441211142,0.014509555261586487,0.027120115520408127,0.011289592413215583,0.09282021676586484,0.08353332382000146,-0.005511695463645411,0.019123489918182156,-0.001319516023698451,0.013086469228447981,0.005371902254930704,0.023252365555331368,0.008338451441122581,0.004943677173414891,-0.0007978896844754106,0.11439144831404569,-0.02593693407693989,0.0008848681912282485,0.036105146149623984,-0.03281912244972831,-0.08606653700681301,-0.08525987826905722,0.08130319716266318,-0.008458340712986059,0.07818794258975777,0.059328148770206035
73.35254669189453,1.5001068115234375,0.05621917445839539,-0.01449454998629199,-0.015367432618451329,-0.03448990380747359,0.011857518497683838,0.052972645620696576,-0.00032897410119922364,-0.007149794645427762,-0.011786374684811862,0.046295210070445424,0.028960267549520517,-0.02321644413543169,-0.0018158409690814334,0.011857830654451805,0.031548947659243695,0.022976850933486788,0.01288882847030507,0.018420275656618152,0.01694414963754102,0.03445218133300002,-0.0014725564429350871,-0.0006497362008317574,-0.0009157338229491848,-0.0006003107852261291,-0.003704698143525323,0.004374430215399458,-0.09677088742345868,0.08945249973083542,0.007814405410042954,-0.1390512370260372,-0.0010782533510774166,0.025726385604057458,0.02633274437474596,0.0038420093389327156,0.002087093061458982,0.0924432556477508,-0.010619492367270512,0.026619691714283134,0.020838992207558207,0.04296051941721487,-0.015187529868742469,-0.0014343845304640168,0.010651520056234294,0.033642604110465185,0.014425030322104074,0.0022290673847891376,0.022250983190934465,0.0047770495851852295,-0.013327914202616087,0.02763375330435365,-0.04309571215214632,0.0034112765253237554,0.03706249025051093,0.02409388050134742,0.022497094049462124,0.021085325141029926,-0.0008796962557107399,0.0003261846814127311,0.0013039618253475969,-0.0045160372215090885,0.005832814747833896,0.0462315970524568,0.09945094046093286,1.2195832696085656e-06,-0.007670324662103319,-0.001985440655711707,0.015210730231359146,0.0035717312378367584,-0.11227833324830887,0.1197082986298423,-0.004315608586557471,-0.011301353477250997,-0.024924747443791605,0.04127774375390453,-0.030449815821955845,0.06426560797168678,-0.003923716502634721,-0.06820757692815398,-0.010793383978400758,0.0006057293745328888,-0.09613724344791252,-0.01723090853758006,-0.008640358951301837,-0.017279197900016224,0.008495385773490868,-0.008664956955151504,-0.0035143008437105443,-0.0020346814578570066,0.01309209823950255,0.005633887592433216,-0.005475813479070111,0.005554342913698561,0.06641272983578628,-0.018982325727896217,-0.11976282144692788,-0.09788887955523463,-0.00929404309788085,-0.0053962814022563785,0.05441711285293936,0.0416079266064498
74.85265350341797,1.4393997192382812,0.045719075800356,-0.0097956529392825,0.05096020458848609,0.007237211956801465,0.1261399405969155,0.07020230343852056,0.08633779405808864,-0.015246411016314894,-0.005028347258142413,-0.09943511081921436,-0.017995080090663258,0.06436299224234669,-0.01608576441008339,-0.03945287006621441,0.005249172242041225,0.01407108620892187,-0.0003638139518279804,-0.026613711357403137,0.029039039206082817,-0.00807719641258105,-0.03152601730409445,-0.05253449435102241,-0.03377657238844184,0.053716576933291384,-0.02068863041159213,-0.03138846203136561,-0.016601640962273262,-0.0024070695238887036,0.021506222113646008,0.024153792182650353,-0.0938029382819719,0.11574594572158038,0.0045142650356339315,0.03904407784076104,0.03136534787445,0.05299273085583228,-0.02338481253884575,-0.009277738744107518,0.00887117093698512,0.023120539977954137,-0.01964671074690447,-0.0022900072798299823,-0.08206137870085234,-0.0023002111718408904,-0.018893305506702762,-0.08616336770278057,-0.020589458680033177,-0.010193331216861827,0.005908153497210639,0.003311768744211923,-0.08128904641339228,0.0003420802665211162,-0.0011143961103671548,-0.008050808010228812,0.03981810404280025,-0.04077926744832745,0.1036815045566251,-0.05180459279770972,0.028093264852175295,0.04327896410756314,0.07203317056368541,-0.027156153166269945,0.09685190364464645,0.000400833487364215,0.05351081085529204,-0.012334951293843462,0.0022117619687312753,-0.012503448234556899,0.02478853724863724,-0.0022293828758565355,-0.006826624255601009,0.00989756486249118,0.02242147885272664,-0.1278256903826664,-0.053562940345134036,-0.039252342293330036,-0.00015154214578232234,0.019990806977895126,-0.0632529356687477,0.015792168270289925,-0.01266601204735236,-0.010265386769115911,0.02496589291385004,0.05132124637305077,0.013183713146300985,-0.033033611857137074,-0.0065262726613312646,-0.009901488046952615,-0.012705071828643414,0.031028747555032946,-0.013102845930347105,-0.010383034072261876,0.0014166867415687122,0.05406136175667764,0.008998022000407982,-0.015387050064884744,0.022636877681678685,0.06046386988656412,0.03259395521283297,-0.06910509962281361
76.29205322265625,1.5102996826171875,-0.06038480483804822,0.053559945521785474,-0.09552833299506645,-0.018783986962763875,0.027584364275098652,0.01254407560728992,0.035962683984993596,0.013043542364326375,0.015274981245787817,0.014004729360050266,-0.011709198269379722,0.04108911691724465,0.019384247223920858,-0.08414188847010312,0.020644040639528124,0.03272635224867213,0.04556945075731807,0.029431002028369405,0.035401340355181984,0.035613143947562986,-0.0132838318774064,-0.009378801324505444,-0.0008683197430974781,-0.09045522721388655,0.004030814321134411,0.06462121073349987,0.04641790529574346,0.04329628900873038,0.061891523509457716,0.0015416137157665533,0.001576588775063968,0.05890072885101913,-0.02077550815478905,-0.005271377838521021,-0.08563015507704434,0.018711375263477135,-0.06986336425370894,0.000846565402709139,-0.008816545041350066,0.014823406197420928,0.07294556068218791,0.005313610110778488,0.019486247427068747,-0.060197308725124875,0.023122839535835694,-0.04696872731917888,0.05968391405453316,-0.00289569901459293,0.01820787955507295,0.006841482056520568,-0.0016682492179331187,0.002433749145073292,-0.0014424317795211914,0.00010001703122599677,-0.02839752122288764,-0.05569604416691028,-0.0006497304825805005,0.021779274213919213,0.012993215268126867,0.00283812599040067,0.006841364409891455,-0.05915424667086158,-0.025642654123999468,0.07779682355912895,-0.0025621496202679443,0.014654908059230854,-0.0067525979626072985,0.017375312856580803,-0.06711117508108652,-0.12321507318032955,0.021366170082242897,0.015678711887820853,0.055457272835863214,0.004612746796841846,-0.03821095417098562,-0.0291428145980067,0.0006075575404748147,0.011652439771700277,0.05036444962329656,-0.02269508304409456,-0.026593491922940596,-0.06296744278391248,0.00136369245298458,-0.0018820823115383626,-0.045657167368522295,0.03907070657981674,0.018178671365002595,0.06051948248620873,0.021254511142618573,0.015361282296933232,0.029552258075474156,-0.00788675936494554,-0.02263515529210489,-0.02627227334738918,0.006245763305268362,0.02256680862391046,0.03222611866429223,-0.002397924601759499,0.038559486800826236,-0.04848118740440246
77.80235290527344,1.4297943115234375,0.09564350400590171,-0.02373216992452809,0.042752399716506316,0.036243255927473815,0.006577367869246452,-0.0008526271593099706,-0.10130038027099814,0.06005682266870651,-0.0982565278642534,-0.0033938924203705976,-0.021686180506510017,0.03635108362924096,0.011562379052325628,-0.004848540089098463,0.043450961294732734,0.015528107524767546,-0.001437531777983477,0.008489831015566905,0.004058733246552426,-0.019883321136695935,0.016854597980670526,-0.048709756908953995,-0.02922562276122707,-0.0015984918514746183,-0.017100913447492722,-0.012213353264946658,-0.014944238330199838,-0.003455959884074713,-0.009955837111054997,0.00044213653295248627,0.008321636944135619,0.006163245308075638,-0.10713234327682043,-0.054493054611280796,-0.04933034111149645,0.05328326698267262,0.0046139426755729945,-0.12863269606082528,0.07841671880512834,-0.000558102158096571,0.013001805298863335,0.042289137063357574,-0.02213533437211934,-0.011778560794974281,-0.12586079063568428,0.006125264651528897,0.04029691813392841,0.061945386922955974,-0.038414300807120785,0.0176619785327543,0.0932810186902666,0.001266816729904774,0.06177621818826386,-0.0005861645706098426,-0.0032209450777248056,-0.020286608332808546,-0.004795865332382322,-0.010819723172866098,-0.02006140374940512,-0.028061902150868005,-0.04671223698226659,-0.04408743102222534,-0.009776074914250296,0.017968988049215758,0.08322466955682416,-0.0066334557258101385,0.048470239139369195,0.08837871003256399,0.0070615610322813036,0.025548793606497786,-0.06026180755597343,-0.0010377936799520495,0.052685784216562864,0.008809682161881677,0.027154879023554204,-0.014450274609657303,-0.04217016101497643,-0.00546628786776874,0.017739946135505495,0.033977471314993485,0.014778568293475444,0.004084404552925585,-0.0224398996946476,0.03183197932240161,-0.0015023196312357514,0.06095569798955758,0.06159334371720208,0.02369812673881458,0.01786225504672498,0.009013626831650953,-0.0022542893627648746,0.005920752584740101,0.024160756423108123,-0.018609539170149052,0.021539966532495698,0.05230697591680906,-0.022559723855816984,-0.10977582213349871,0.004954225663011147,-0.023736243209309366
79.23214721679688,1.559600830078125,-0.0268126619856887,-0.0898393826999403,-0.05223631765281572,-0.04312073176021051,-0.07023140759618574,-0.068393716445957,-0.06340495896224645,0.09908518398369164,-0.03670951644312685,-0.0011061471058899923,-0.05047774491606478,-0.04238283645918915,-0.06425701425337065,-0.0006793003672379326,-0.03641328298534215,-0.01903152068249923,-0.024475503427718835,-0.07317092184674316,0.013579619883174895,0.016192906415893327,0.004921044005055989,0.018771889759627104,0.008059716310734436,-0.013013389860292438,-0.007311753047150842,-0.007267479520941259,-0.0043021119211649386,-0.005370082260641747,0.007374689140402166,0.027924624372229728,0.011498259148228843,-0.02868193589913317,-0.014361473138078354,-0.013458887591199824,0.014915090216774311,0.009001136917744089,0.06284603575621507,0.06906909077997901,0.002324419498332957,-0.0033391296742437313,-0.11356217736366186,-0.03746703060724612,-0.0020045625226676267,0.012535869030780161,0.051090586026851986,0.11133498239331131,0.034359093936923116,0.00270680669733144,0.009484431734573898,-0.11551689463011774,-0.11124174515170601,0.06889078204555853,-0.036636360475634434,0.045443078836696425,0.025901389530158407,0.018542410924473132,-0.0014655773851310913,0.0008882167051546381,0.0001211424702366797,-0.0021970502898062123,-0.01985747898920829,0.0488368264605055,0.09445589146664372,0.0030409205151278036,0.020654741880100014,0.10038055484506624,-0.08867741666469994,0.035422491814653484,0.00207007614412551,-0.054931739095260404,-0.08267451280291668,-0.07637348042729046,-0.028023619110412262,-0.0021115709348755135,0.06590636365715453,0.0037271767759086407,0.04321073987773847,-0.00818631307168977,-0.009769849453642327,0.01018408318650333,-0.020597232703674445,-0.007644871242830175,0.003268204230329066,0.12450671932677224,-0.015695274741071644,0.012534572046067423,0.0033003596415787087,-0.014749489420752835,-0.12965792681167806,0.00466996374064509,0.004641747747389184,-0.002463781394345566,0.05021140911032693,-0.013955642887327488,-0.01095960641995632,-0.0785745092007006,-0.01966321562948373,0.010315324390495826,0.03517157502010202,-0.0015036498096086
80.791748046875,1.8698043823242188,-0.0019225179110485113,-0.01834503630234508,-0.019339668348335663,0.029272500770711255,0.004888035540134769,-0.017427142804160606,0.0738475502767192,0.01921128440852999,0.030875793551656767,-0.0014734109658461679,-0.034772356113067615,-0.08261097193085348,0.05990309449293757,-0.009029103651333373,-0.032713537961995734,-0.017911064919132316,-0.02292128966763234,-0.026789328473650544,-0.08094049322235379,-0.0860022622898718,0.058215147710152675,0.013312132865641533,0.02517208899645691,-0.0015186038057784217,0.15807984785832407,0.05665058042545834,0.051142336404780074,-0.03978817545501748,-0.12207257593991666,0.014497542111172495,-0.06918101923857746,0.018643261484703064,0.02445603128054124,-0.05979683778902528,-0.01272487755110995,-0.0004495069235933717,0.017737211860072852,0.0649316522527413,0.003818102735283784,-0.05046983792657699,-0.020471395789553058,-0.0018378384877791758,0.02864307695050447,-0.028181444478611657,-0.0008776999635429184,0.029267856829441635,-0.021935126068748596,0.02577420107578373,0.002206372617452851,-0.030903644947333803,-0.00957013800142072,-0.008118104601081415,-0.01165225229426293,-0.014726663470949211,0.0034163627168190104,0.0015595600252553898,0.007386905562631208,0.013719579449440297,-0.00863440549297069,-0.022679227901784997,-0.009323288624554268,6.299320621365237e-05,0.01040641853183891,-0.01153019761001206,0.006131059253843974,-0.07802054954184327,-0.005968218934850782,-0.00799571854510369,0.03483246263735506,-0.004659696360865931,-0.030867823657784153,-0.001302145225671338,-0.09469753084396965,0.002956262150121676,0.04442859575527597,-0.0828620160718809,0.03741038292229346,0.08080122457800087,-0.009907781140072028,0.010515666871157356,-0.01101565396293741,0.026401269761063956,0.0015165251996619661,0.03659605263429173,0.015503154660193042,-0.0023389650054179874,-0.006951339550895456,-0.003251623728891977,0.002536848478751361,0.003748537751234622,0.03459975269926386,-0.08924736963500063,-0.05782252809932065,-0.010420094060813243,0.0009075585787756294,-0.019678540113560093,0.05598423693893774,-0.002671417861038145,0.025611474215091176,0.012143671531344609
85.64134979248047,1.4197006225585938,-0.07758309834540593,-0.013901142914475802,-0.0404890521562482,-0.02597524884408453,0.05556642653561964,-0.0324588458306479,-0.03467324111772702,-0.0499919872086895,-0.10934797570762231,0.018271332332244088,0.00767792334999719,-0.025978294347819866,0.05527063192590768,-0.0002761688519313318,0.005558925964821249,-0.006149637000777308,0.08352662839769487,0.042401417450152086,0.0030498434595693054,0.12876192074857082,0.04825733241917676,0.011688986441034548,-0.003987531244015012,0.05805810410594027,0.019929823563494757,0.0021377817802736066,0.0077109565923010855,-0.0017187955325193192,-0.007758161957541563,-0.016792519820328082,-0.05029334714593217,-0.04651541107406096,-0.056280671026880544,0.008580706388693758,-0.11854655683459896,0.0075571126315622985,-0.08396369773417053,-0.0017883888461853559,-0.01775740487068493,0.013680790760778905,-0.002568143666962304,0.01741689150888949,0.011946679185654709,0.01000067982262669,0.011876329477998162,0.006437751548381939,0.12582039340660123,-0.014946113127757621,0.04461133087808714,0.0010529963771493478,0.005763038339177854,-0.02228433680122442,0.021522221107732654,-0.002618278437075204,-0.031777198731719525,-0.0023373644195537153,0.07249470985231099,0.0036677326396519494,0.0015520122040834918,0.001416530320680898,0.07162000398069701,-0.10037208129540096,0.01770338049055835,-0.007210421192212058,0.003541618076212231,0.005698262591336933,0.0017111974169544927,-0.008914795690184186,0.09749327019381931,-0.006753370287693802,-0.0038773210502685705,0.06991875497522075,0.052114933549066364,0.034391211713662315,0.07546758837302864,0.011648031487108591,0.007813087697824465,0.025853035143023798,0.022956718269230045,0.03369595056378235,-0.015384632884735738,-0.019408370176176182,0.0011772390239860489,-0.054163893593792665,0.08593539818895429,-0.0014907246435225125,-0.0009054537037041595,-0.0013997758848747512,-0.056420869926395244,7.917873859249537e-05,-0.01252666130280738,0.015405304630897981,0.029580389425785402,-0.02386316245986031,0.042972761648708585,-0.014427853451494844,0.08587471685441575,-0.01904400112947429,0.0012987669189834063,-0.001669133190526884
87.06105041503906,1.4098968505859375,-0.0008644787210955584,0.021862174375247848,0.04789296761993837,-0.044438019723723646,0.000678828524606879,-0.07821650244767718,-0.019658681433739545,0.015241466176222912,0.004642249500631832,-0.05307808163987056,-0.03834598804948114,-0.019761570548981436,-0.03139969304022335,-0.050965728982144,-0.025122157081664397,0.05624131945099317,0.021532328170278274,0.02127465734619628,0.00849321204755735,-0.0011443882311696245,0.015486180180457334,0.01587376549572959,0.038169072436389936,-0.039412859127525346,-0.009892467704183203,-0.01446508609416073,-0.000583777279349717,0.006292666390172966,-0.007354873926902905,0.02757721069012391,-0.06508365119623669,-0.0004586361650285781,-0.03961224542971946,-0.0044013058191291815,0.03975683288511911,-0.029044680191948974,0.013495491406098296,-0.0376635389749404,-0.000709032636870187,-0.10482069026452442,-0.0003860591035261382,0.009006985787233981,0.018208476482952943,-0.005105247938614521,0.013578528648855257,0.06325991819306376,-0.03487985978946333,-0.033708993128778064,-0.016853063128357083,-0.0004857719473628265,0.002973910546804002,-0.00910781017061321,0.0019664269020433244,-0.038552207455739874,-0.0010829828592632345,-0.01063408633574135,-0.004079150433416114,-0.003098752549943071,-0.034956730296768525,0.0037786496277299364,-0.021343592249893486,-0.017086164139801543,-0.0025213031298802328,-0.0005777521255516693,-0.06784128483314548,0.001988376890882103,0.003711006485179837,-0.008988445952197215,0.07097748989000065,-0.05143591184825411,0.05215238854025516,0.0023253576008113123,-0.05807404145514284,-0.036844546630325894,-0.06322444308771409,0.015990980715821203,-0.02280338018943966,0.00292309997346635,0.021302793879492302,0.0037150642220540164,0.03432691375480976,-0.0472324083308749,-0.01923815645126732,-0.006664192423353352,-0.016336968829670097,0.038321032561372904,0.12351864891532079,-0.0062688052326308336,-0.034614602166479054,-0.00772183010321535,-0.017955632884511002,-0.0027847879383168833,-0.0037209689004736894,-0.014857266086463428,-0.04213037770008147,0.02101263270714704,-0.029482815120033617,-0.006291032263669754,0.016209239225897516,-0.03697661499306504
88.470947265625,1.4598007202148438,-0.03911601516093282,-0.05897813788301154,-0.053249471313107144,-0.006887804156659982,0.02506887969344586,0.051275555856069445,-0.018128090617821883,-0.029787744957936256,0.09435648780488985,-0.004863185899079225,0.03427897131994109,-0.07427996317959673,0.0887443164709334,0.09336462538092734,0.012777487235061651,9.862970395837709e-05,-0.020741760790745432,-0.007999934352752787,-0.002422691813447661,0.010798917351324124,-0.05004507604746306,0.017083402101633387,-0.004863044643163232,0.038386546909053375,0.08147644220762265,-0.026229903952194718,0.015330141004447993,0.05061653685461581,-0.006042489073222871,0.008133271317507886,-0.030308814544083174,-0.005778763865045254,0.007522736870015876,-0.02684245472495353,0.009377908697038,0.0007922940323210401,-0.017032851245431108,0.0002256209897282702,0.03903710406312697,-0.029170832262130467,-0.01726223262885139,0.00028552529968085805,-0.037151550247920086,0.06638141876459512,-0.02372744730196266,0.017383188993182377,-0.04551163911002187,-0.0458486328834376,-0.050718020873023156,-0.02145357011140739,0.02035123492031957,0.009202048609719658,-0.05272106594374344,-0.004801425253462019,-0.0008589454742706612,-0.010803706904814633,0.08501831161499052,-0.007082883077928837,-0.0075537776842641464,0.06741282329229224,-0.056163281486244124,0.005829165491427469,-0.003498308026862742,0.034499876786240724,0.032741594187554866,-0.003576800260143756,0.011663255528312828,0.07285496181761036,-0.004605262905419929,-0.0513134786870765,-0.07561042517558751,-0.0002664209686200168,-0.028161510029763068,-0.051753806901751916,-0.04610731176731957,-0.01137416449215151,0.03466866331477709,-0.02248118095098076,0.02600142108576994,-0.0014180070376419622,0.008886993869990664,0.02014008708959439,0.016015717529268798,0.009937888438264354,0.00035356199792465384,-0.008443417018580767,0.018587196493252987,-0.0052604635453814864,0.006791758326363332,-0.0010113487351949232,-0.044229673056838274,0.017072772759439997,0.09226870859626607,0.007896278807239202,-0.02295977879664897,-0.03370484836508139,-0.03867634038285811,-0.029048478452480275,0.01934958128609063,0.0632182618210925
89.93074798583984,1.5396041870117188,0.06955403962217346,0.005235035559147987,-0.010602488871088658,-0.020540413213073223,-0.02188778681889622,0.020315245273500038,0.0242017007821735,0.08734030506888268,-0.030388242246795663,0.004282172724001989,-0.09157822535721385,-0.0024018613099630074,-0.014982312397064853,-0.0048794067720836845,-0.00047570910630912773,-0.00305543173875084,-0.009467042418749218,-0.0444910823960633,-0.06366814318516742,-0.048576143104454704,-0.011545351629259171,0.011000398809485447,-0.027465376894836364,-0.018047446227138827,-0.007737756438366448,0.009232917122685104,0.06100060076398409,0.11376567804931911,-0.00013807865781502243,-0.06443646725766139,-0.015152367972285818,0.007216988313906718,0.04022157113826504,-0.03506893588523894,0.017815801565452493,-0.04469017268523251,0.011429434698746138,-0.0663337855409645,0.0020420526288331088,0.027118438610947752,-0.004840790021638336,-0.0011286388293168727,0.02822816400812835,0.046531298243722,0.07152274288388659,0.07094334231847813,0.07603164383311548,0.06070858512549328,0.06521645253842061,-0.03647230168888431,-0.04630813887018669,-0.012718879697413282,-0.051887593957422366,0.00019537054710125346,-0.054158999829488255,-0.030916586134741315,-0.09129039262483866,0.059407383927976294,-0.040479780515124214,0.062285997709734114,-0.0488549507236079,0.007744272188126131,0.0013289325407613768,-0.0280071599819509,0.00668695311985879,0.051211727086535694,0.01966402387155986,0.002018295596629586,0.021967904904096607,0.015027412930143667,0.006237311330571968,-0.0007236225573131916,0.0067039730143333975,-0.03725203638743829,0.008495690436807557,0.051881855790103674,-0.09397787276110645,-0.0372368127526934,0.05626827139112518,-0.034270901114688126,0.02274233708101635,-0.04093120663946258,-0.005994561264230008,-0.05370935160055369,0.0024071767361881053,-0.00028271248227634686,0.00016071836498870922,0.07067156275741765,0.0033630656285658714,-0.029248669183102507,0.09720975181515662,-0.04252629967482503,0.033415383509969844,-0.019646641149499922,0.09372786432034005,0.00789440619336646,-0.0016061848966639023,-0.032862725956965724,0.021457987004821034,-0.00015479831733438906
91.47035217285156,1.489898681640625,0.0025176746481974585,0.018308063567657507,-0.057166638833614614,-0.028457733185973052,0.009727704423402745,-0.07888471470403133,0.05048265682842841,-0.0320448765063179,-0.003750848359412271,-0.006969585858966959,-0.011520818044283225,-0.006407850297840745,3.6944093554709455e-05,0.0010469134435229692,-0.00812533868676751,-0.03550510602774613,0.008497832260621287,0.0004231333476211268,0.005077003313166607,0.05073766288851476,0.025644900797474862,-0.0005674753097672778,-0.0014798273907945833,0.033515360046389914,-0.018140879949182707,0.010449428675503972,0.020766153416028325,-0.0019615126104098185,0.07111062878155536,0.004393921696946588,-0.044852770478205364,0.0503041115571874,-0.013177700949448666,-0.010647010236217381,0.029469764775857166,-0.047704989710553196,0.0031555123146087007,0.0045476412832857905,0.011561035346737442,-0.0017383654002422607,0.003433528776514504,0.030521191386650767,-0.018354481689021044,-0.0027373065635188628,-0.0007080706557747869,-0.0006605981034072979,0.006313157301164774,0.0067124800159768915,0.017660128756961508,0.013102021403215454,0.00014206167518565282,-0.007147073028981453,0.0005230871659587655,0.0006223754454462141,-0.011634069838289969,0.09444261565157809,-0.035644521945065205,-0.02901245594695529,-0.023944230691958418,-0.016810867595624446,-0.09722712519184837,-0.0752117528573353,0.0528790928628377,-0.01725770367115844,0.01734836077150856,-0.02612195924966486,-0.02289587046336894,0.009011385612739953,-0.0010842436525443561,0.01804000016934615,0.03456993610068616,0.018435733329552697,-0.05830054418662084,-0.013013488867809026,-0.006451632874768122,-0.05477895682693868,-0.001123570387622029,-0.02848322549901553,0.048708588436947864,-0.018675328348607773,0.010485331868539725,0.006481099180344202,0.00044233897031914775,-0.03797952490070737,0.009136951808878966,-0.0595730605429005,0.06737747318014982,0.002008179362543901,-0.021657705233380026,0.016058573464447667,-0.002787021227926863,-0.0011096156761875367,0.03894498225780759,-0.0017408774375154146,-0.03648842332143707,0.003482810395993009,0.006062465743085421,0.02373235068631252,-0.00011432129288452702,-0.03165409844587065
92.96025085449219,1.4593963623046875,-0.02561752781007553,0.07973263002275952,-0.09126171447726608,0.019437083826855404,-0.09704992378480612,0.09301496169475504,-0.017258807089061832,0.07186891350176562,-0.025903131805929795,-0.055315935450512936,-0.005566760789842636,0.007457867073964885,-0.011232399274389132,-0.007860453712314003,0.0028634874146903416,-0.009428851127870593,-0.026503505750855274,0.04375026699501801,-0.03960444590325264,0.02667128665480654,-0.024172436718112922,-0.03444854205101179,-0.0667385406476352,0.07036818700689627,-0.0503712573246278,-0.014396638711599415,-0.0005504169755824689,0.0015261027997890766,-0.009544549659890836,0.042171575411448246,0.06855589093293207,-0.0015658479062093688,-0.007807469563002257,0.002728544900285715,0.03347374789001799,0.11473732914073557,0.0064825389935334096,0.004243570613540262,0.06564404792577093,-0.012209449043983514,0.015739471227394174,0.046794878814148524,0.034029763892923164,0.032381866040550926,0.05201215102494026,-0.012989220460998853,0.08014574644188183,0.007477226460215722,0.006596753138495983,0.03042111013664395,0.03265537237894378,-0.029631849320350567,0.021775430268706347,-0.02940568384867409,-0.006116497690719958,0.013956230623238983,0.03895657077793865,0.007813838717672826,0.023361496418171722,-0.054972536956517076,-0.06070636272747717,-0.009144766216167811,0.0553893466981678,-0.0027810401169420223,-0.0009482091042513721,-0.018952257120725367,0.09650629673750599,-0.005227636208367851,0.07153900065553091,0.08863108517497142,-0.03052726593687435,-0.0800304641477982,0.00044772275455436886,-0.04737336054731517,-0.08153675018679876,-0.053219804743769965,0.0074582294145504584,-0.033687389386739416,0.008856306881668356,-0.024655758375709685,0.04476444342738034,-0.060010955773460245,0.025711331202475075,-0.054630805755314746,-0.010083602013354624,-0.018790627382658246,0.0033744848493791587,0.01297504786263392,-0.07571788383766036,-0.05639875846829957,-0.01815110720411142,-0.07349496370366289,0.07227024219850911,-0.03874680134008704,-0.0008285049778445643,0.03368399708327378,0.0019510049064291424,0.03288375272863779,-0.0046109166250439294,0.0038245106272249163
100.36914825439453,1.34930419921875,0.00472741328630278,-0.06937701695356402,0.07310182012906502,-0.03574821211878419,0.02637375251575627,-0.005621113041552396,-0.030924440570717904,0.0587966940140791,-0.0166045654493297,0.004785644647562465,-0.06543877696758107,0.0340411193056734,-0.04092467321785262,0.02958559911382007,0.046833859989693916,0.05863060491330327,-0.0500144886304434,-0.07757947964323524,-0.05642762777122963,-0.10001266339671233,-0.02234962491303811,-0.004064416511926575,0.137932188442993,-0.004846047431830142,0.0009811634680072677,0.00722519209908608,-0.058668338539948774,-0.009573596578282587,0.0008963750169711149,-0.005429633358898192,-0.004255528567125064,0.005395260746725097,-0.0035982986516199596,0.005833569903901763,-0.07322170081645209,-0.015239920783953566,-0.0012890099678404272,-0.11950671957439703,-0.03268579930338557,-0.015052129741467957,0.006297223827526065,0.0020510448648706284,0.019568612189946846,0.00836990565077278,-0.07296613237117784,-0.03389720750910184,-0.05588244178087684,0.025782929824244766,0.057943216290066185,-0.000743547209055138,-0.008298056927714986,0.08245191849585604,-0.09308082587605844,-0.0629317772170135,0.019642622507372233,-0.08051685102420637,0.0130463843658206,0.014138829073412408,0.007643354005890959,0.010282837752039961,0.01070950450802903,0.028114868388428402,-0.009854956941987174,-0.002974941903810184,-0.07763733742226302,-0.007224758576572386,-0.015509598768794979,0.01172341930360115,0.00890737614310257,-0.010224005984906234,-0.032694248261713806,0.011551060773361072,-0.08093741363858468,-0.061808102833727854,-0.032053233468742115,-0.07838668191601816,0.007135497441028699,0.019043222270730055,0.008973172457618044,0.027554300552368186,0.008518463764987716,-0.003759669211526775,-0.0010992647519424206,0.04521533789244954,-0.007572784313481465,-0.0031102025894705634,-0.021029590596716,0.00046558747234281693,0.005895838856269437,0.016931519386422445,0.008191137955529351,0.04876270432896948,0.0684017886146508,-0.09385540060801395,0.07275078991483898,0.09510011769076412,-0.027565052799280912,0.01205940059663076,0.0606744478128005,0.08819029431005754
101.71845245361328,1.3703994750976562,-0.04741017346258143,-0.041691249154910986,-0.03446940234828971,-0.024570155014361366,0.022580353211737653,-0.02487910217332926,-0.03173152316350288,-0.015089437251599157,0.014860232645077333,-0.02388464788120847,-0.024316713194669815,0.00039137235273102757,0.06992564090287323,-0.02564611878733769,-0.014920885068807857,0.12103420028149398,0.006151237257324009,0.0032192455411801804,-0.011781164845463673,-0.00872446107023725,-0.01781027708643944,-0.03203625222221504,-0.041701223977650526,-0.05211653812611821,0.008711173354725682,0.042139671291289475,0.022623318163424385,0.03131876200237299,0.024295377503132837,0.009973208864925035,-0.0373939288668662,0.06065545331064891,-0.03211568421962774,0.043445876805108724,-0.00518606197938171,0.004996827707054038,0.009581677033455126,0.026777237879521878,0.020016282819411146,-0.02772510987840352,-0.056599997806735955,0.0023067100332980622,-0.0023668671334536695,-0.0018671930629566844,-0.06659059681890932,-0.02762358332450794,-0.0029049538804402078,-0.03279397849814952,0.010078637729810097,-0.005704042232862023,-0.024958179029465927,-0.005163688201317926,-0.06813874466442144,-0.0018926156438704837,0.02178989968511158,0.0034007110185623815,0.07139416088721616,-0.10169677183513881,0.0072684850273202,-0.006319842565337184,-0.007843572252369563,0.003964352104877696,-0.029368895867169925,-0.015201036007239046,-0.037748628601093626,-0.006382982830046432,0.04568577795868568,-0.0006877192276999086,0.009098603709398809,-0.005249344283405512,-0.0202351929856321,-0.03470386873603905,-0.03889361106047754,-0.01811722606005053,-0.10663255829453104,-0.025228207493179028,-0.0019784118533380923,-0.02249120549276454,0.0272824272678846,0.0907783943318975,-0.013342898348242937,0.06037754938759931,-0.00038844630269703527,-0.021437340551863242,-0.03503344558212894,0.032374617665759955,0.10610372206753899,-0.004139860067910812,-0.004037668359808578,-0.02135441740951032,-0.013251832171614077,-0.11090651345115042,0.02103237306445858,0.05194112279214544,0.058551334271592724,-0.030895436614691185,0.00897512560300752,0.08510447251386828,-0.019013924526869966,0.018531936770281483
103.08885192871094,1.3893966674804688,0.012805401418684033,-0.04454812651252497,-0.020454982699332658,-0.062478298944408484,0.02193254472121323,0.0920664624753954,-0.004239858374873173,-0.01964816818629962,-0.04146813543365601,0.026857525662051972,-0.0073008295699905894,-0.0494045041314804,0.05323867083279377,0.01005238089972335,-0.06962064778562993,-0.005454190999363681,0.020542222578547414,0.007548674408060913,-0.011218621452016086,-0.10128875837040456,-0.022625418676505894,-0.008767972662149856,-0.006590594729715063,-0.03733495163371601,0.05266223797026504,-0.01197863731311769,-0.044224956777461466,0.012372331944739301,-0.0012128918349011404,0.006315518029456153,0.005786292288108055,-0.012753597208407866,-0.005851350481861153,0.037840127303558325,-0.007884621100291627,0.024896710201413687,0.05086231784361999,0.06317523106252282,-0.029968363971311106,0.007442930873200607,-0.05639859455320616,0.0032771798620754495,-0.01339860095436574,0.006609736117036288,-0.03988035796909124,0.08520077031051772,-0.04346840536788037,0.04374231357750484,0.021048230260799702,0.003390765296811686,0.016469013405171803,-0.09178468438458501,-0.07620991019959078,0.0436135734108588,-0.06842171606155192,0.03490363166926912,-0.05732068728012329,-0.04893993567346792,-0.006373633195951192,-0.0396417381782685,0.009750397704410968,0.06922418687930669,-0.0461136391908835,0.03363487268690421,-0.057371764900577306,0.009306404962906177,-0.024072119261201598,-0.0024003487127893203,0.12651395062803533,-0.017822863533243527,-0.012506216107519225,0.018160135975818583,-0.053902101924701885,0.02283282268751073,0.023613585650322955,-0.018854720693286187,0.029058530183239527,0.0039304683451861526,-0.08269686646423044,-0.010607598071006906,0.01450888832315754,0.044732547001107285,-0.06139009453636287,0.006681132505549455,0.00025702677297644326,-0.00042822786303595183,-0.005901346186037687,0.039585627573791346,-0.026663910548770736,0.002417213698068252,-0.09869784790814252,-0.008933225062642252,0.024897572809058292,-0.04112797583890291,-0.0029726079417255295,-0.018811791206827404,-0.08869950946437312,0.08788217566072706,0.005029146298490162,0.019790019038706225
104.4782485961914,1.3600997924804688,0.023979417649187075,-0.0002062458770108694,0.02871481726933897,-0.07757211945125066,-0.017316004330103465,-0.029593906465800086,0.0016284047257231187,0.09307790583291276,-0.016366033684651837,-0.07426208547547937,0.0761854761332457,0.027123174311535617,0.08239554561738661,-0.04483318480281327,0.0010414935135285783,-0.035418826415073865,-0.012150127219459335,0.04338962915302694,0.05104571913381937,-0.08172731460784961,0.008830422326400713,-0.023418017003178422,0.10304974847025629,-0.0013646902444994953,-0.09322576570500296,0.01967997355006578,0.025079026418416313,0.022627497338295426,-0.042783107761784914,-0.09207013260398111,0.00015666300807215539,0.03140970623674577,-0.0004217664398869095,-0.0034153484369682414,-0.0165351549099143,0.015455163138685928,-0.075410462502696,0.10351044064001076,0.005414858507346321,-0.07287384200579936,-0.0012337564257071509,-0.0572750240806609,0.07067965028347885,-0.03418727983815409,-0.04090355386132369,-0.00919926144837687,-0.00912107425055464,-0.005825556476326529,-0.0046363294795143395,0.00020586964575378618,0.0046545470801807294,5.8023353802735844e-05,0.01918073896871721,-0.049784281866850466,0.05946360175472331,0.024561068269358676,-0.08046780682657238,0.03284438799813486,0.03287694346113465,0.025623259932059054,-0.07621654054108942,0.007689849363372539,-0.027033744363081234,0.007915654087889376,0.044315973573721634,0.0052655209153489105,-0.030138691532943435,0.0436169711863113,-0.00446863558303079,0.006307373276943251,-0.047210941565384176,-0.003418649264845605,0.002675242501603443,0.0034841781796736398,-0.04551210019957598,0.015336608597711165,-0.016137105329643377,0.011825907867307976,0.06598878199140285,0.026643627971211607,0.006026898223248746,-0.008579069881754792,0.0038392684123435146,-0.007522034184447517,-0.010013595786940187,-0.00864497293681417,0.0001840692101527915,0.03201133828808174,-0.036403508517169676,-0.061565397150766824,2.2703564526073643e-05,0.03735267326104374,0.0015706035063305116,0.03396570775309392,-0.05156364032355028,-0.1077323526977638,0.018925942891483857,-0.004352827734651,0.018316456795370476,-0.027712424018726516
105.83834838867188,1.45989990234375,0.11083478660625722,-0.0558214149315877,-0.014822444201849892,-0.0008452801646084683,-0.04106892176033154,-0.014761900602405358,0.08504861006545135,0.00121443767101092,-0.010951219079659616,0.0204809909372147,0.037559659300960356,-0.08649043025880902,-0.009698612893600352,-0.006484410578516299,-0.017480256011337125,0.09203472390055789,0.0004951980234724777,-0.009157621240531086,-0.001361798163154333,0.016986321860055085,-0.07907240287702944,-0.015611675620931907,-0.0050664835536050725,0.0014963884732120602,0.02441437555398492,-0.010063352508648041,0.0021340006967899413,0.018130235555298472,-0.03621036613000232,0.001961119598377381,0.010499991316268067,-0.02440945015636757,0.0006973450966257554,0.007724320396255077,-0.013597171688959785,-0.01058587823171939,-0.12531233627666552,-0.05940575024445694,0.0008318622816756184,-0.08218015625167568,-0.043705089323016755,-0.007290480047316642,0.025685329581611568,-0.05835343757324693,-0.021730515612482623,0.0011083837731552914,0.004976466160906904,0.01116682101958732,-0.0038303460102815695,0.005094062712366468,0.004511669224390305,-0.00018745513011114988,-4.748772778505308e-05,-0.0007242168551615799,0.0030511384058261315,0.01177486793348169,-0.0035708870246806057,-5.310543478474483e-05,-0.0028509055649000815,-0.05239995194404171,-0.03216762123733232,-0.0033717828574119295,-0.0100680210800102,-0.09112242286263829,-0.06464235153744888,0.002563445793201391,0.07761420121683228,0.028459946626899785,-0.08926426769916905,0.04934170302749298,-0.005636277364440677,0.058636053798416465,-0.07117590917515118,-0.03164769516716897,0.019311140514889684,0.04250672857786389,-0.004454248762802186,-0.05272127612167721,4.3489658582434074e-05,0.10170870403558605,0.07166950252937627,0.006703757137869816,0.006148161659818467,0.006893291281655999,0.023480479022815137,-0.0051825984004435855,-0.01252028415084366,0.04810016361023218,-0.051866332029532565,-0.056335565831469134,-0.012564221612825525,-0.002927307515320759,0.034792425347239295,-0.009331783750402205,-0.01155037930125561,-0.0032112236509701554,0.0194278607243233,0.0020210834754514667,0.04528023404857549,-0.011558104256872448
107.29824829101562,1.7695999145507812,-0.012577764148551366,-0.01916861838718827,0.0386803800927745,0.0055241269397232375,0.06305814049179008,0.05769339118205791,-0.032677154786646526,0.0011099822288287192,0.04597038307999409,-0.012854693473654751,-0.018323546573077498,0.04977454548868881,0.0004242164399948506,-0.027770314304576438,0.1032515318140994,-0.029708279844158213,0.008296750562015518,0.004589809484008112,-0.059074931652356374,-0.008436035232504179,0.019007853433896757,0.06481125612114469,0.006200341273692386,0.0032103443278220373,0.04123651885959086,0.06049328582540624,0.130768400664114,0.00864715808753801,-0.0016923091137406366,0.04105545828759697,0.07114895915936295,-0.001376346627763406,0.006241105120387578,-0.08043854846117468,-0.0054274883656285884,0.00030715476178475655,-0.0883871482019529,0.046329838884233546,-0.016250736210720894,-0.0023148637115375167,0.0005736690078321667,0.047659583290192924,-0.05118210923746047,-0.027279534025009836,0.05432527604159107,-0.028382577290874594,0.009515967272951079,-0.010512034565715422,-0.019053715274453476,0.10121666786137046,-0.0005688546508361886,0.0193713376213651,-0.1055250554293948,0.04091291060566522,0.002471041984350981,0.00825019130458251,0.0011497299349304425,-0.10664801688777317,-0.06334288909671837,-0.00574394573591142,-0.0038489858398924005,-0.007626692419736199,-0.03959281870032191,-0.010111134488078582,-0.02118612997980426,-0.011087746406605292,-0.10015043325163431,-0.007807205806985655,0.017958382967727685,0.035805137080837345,-0.0026753577040846024,0.013864451417728935,-0.008782583160918088,-0.008885222233432997,-0.032215475291890124,0.0031569056010017846,0.07000816166541421,-0.031937413586723716,-0.003432355540463874,-0.005409719928804031,-0.07408213887241169,0.0033312198610453703,-0.0489088929497247,-0.016555047579270406,0.019072124041627895,0.05703182186088798,0.05437185103603137,0.012270152703753855,0.016039422835830878,0.061237228777838874,0.00897442755646587,-0.005818398069116881,0.11215917351861264,0.06428908541584512,-0.1288961266886498,-0.012238218898826002,0.04317444677920489,0.011863589987982894,0.010630168918045054,-0.015852402912384288
112.05744934082031,1.5098037719726562,-0.037950516742033605,0.029287364598637407,-0.058730319616758446,-0.00302060740967253,-0.06727610980932885,-0.01213720964100242,-0.015490973604456011,-0.023445781998240194,-0.02850608517279968,-0.05295151935638205,-0.04784820111585986,0.007283249138278961,0.049073525337736436,0.0015163014226266295,0.033270437924034,-0.0010955414394379732,0.012071178275688564,0.013727497425263776,0.025165665934201303,-0.018914719311510102,6.619296016615326e-05,-0.00024868162488446324,-0.0002536090717525098,6.402977093205968e-05,-0.05638339338789938,-0.053182243687770275,-0.03431112571145406,-0.011356889584685748,-0.000370467708717856,0.0026046767685387294,-0.06338420458560545,-0.047740799963449106,-0.04197681604657597,0.0038436484483794194,0.0010677367227866002,0.00827062379066465,-0.017054522792406424,-0.0012346781725928874,-0.08307484236081028,-0.01523901434596764,0.0014309880707529486,0.04693797676499399,-0.004036090216068854,0.00193765203753521,0.0036203439467199397,0.040521045505556,0.0781426130153914,-0.061407740287084796,0.12123283604060592,-0.012932479434416975,0.1152702761352144,-0.019578269972238112,0.0005541782032682101,-0.007060410733528574,-0.003627134327418688,-0.0041619290785599936,0.12470695158668509,0.003234541022247451,0.002075908446897233,0.0011836169947075266,0.015886031333029967,0.07098704537116247,0.012069050398047712,-0.035131034495870454,0.04579612367885974,0.0019375666704184076,-0.02121403957629961,0.016028346810699808,-0.017444760769634388,-0.012647465645966666,0.0010677931194034743,0.039661240172283396,0.0023924124884313345,0.013152373006708126,0.05216939159132396,-0.0365999925965329,-0.0008400684455013252,0.057263933697584965,-0.031442782187753184,0.009008332284769157,-0.016671719841472178,-0.009877284688663241,0.02361286716280167,0.05803462008187314,0.04240346987789871,-0.05147473207178936,0.03247622042096436,-0.00876757109003264,-0.008108134239894723,0.0015663100113282244,-0.003995292814754087,-0.0733135875562389,-0.019523798214767917,-0.003330394756570931,-0.00938386247745698,-0.11150536376397792,0.03247916881249734,0.013644011323738124,-0.11305926191923399,0.018368959258653644
113.56725311279297,1.4496002197265625,0.016850007034615866,0.030445966671348888,-0.009661504212777072,0.03954281032993709,-0.035364841429351423,0.016338513988049894,0.0008709864342225836,0.043399259963398884,-0.0050514207023096246,0.004603478676582518,0.0012892507016317844,-0.002995412195655365,-0.01370219503016754,-0.010258384094410069,-0.02737999560873246,0.004861798925995451,0.02469500131483705,-0.06858434839471304,-0.03732781515789377,0.02667035432664707,0.0182118468770174,0.0014277440126302643,0.020175539388261783,0.050922650926716446,0.0659437161859376,0.04565389544714672,-0.010965861701521579,0.006599808743614762,0.0012949093965663443,0.0004916188704252632,0.013292652260488758,0.011372467607149836,-0.052150691768134506,-0.022561648964711186,0.0020439910286730784,0.005383469868297616,0.01005646752918898,-0.0018128301352640943,0.03834672362398038,-0.0571034906048943,0.005431393762153522,0.028417879161291047,0.02589846787468253,0.009303183234708043,0.061716597489277034,-0.0066296493626684955,-0.010556788298278807,-0.0846560084680327,-0.024282798785788467,0.007606394559926139,0.006907403822718129,-0.08870315134945445,0.04954674170744726,-0.01416301439951275,-0.01568541170396603,0.019582653045093337,0.0032830552584606756,-0.010610653252816194,-0.0028665601145219564,0.12120944575501388,-0.0008340970979081243,0.019684623874306275,0.012128388730573737,-0.02616331238488551,0.04716150835106314,-0.04997390188220235,-0.06612694726063446,-0.0031744007729581913,-0.06778079845490413,0.013991524637446842,-0.08816419435137124,-0.0009209623550788949,-0.0546215937111509,-0.027847455415083565,-0.0019780096127977663,-0.07184863897321604,-0.0036111726845751923,0.10063463938919105,0.0019387537356221358,0.013974139235477938,-0.01989471149217037,0.0007469738998674533,-0.0010753447401377796,0.053124689191188464,0.03873926712750848,-0.0008542243486656003,-0.03444352506314711,-0.06453572603618324,0.0038346213288338567,-0.02711997976009628,-0.0056158654866313865,0.02676225722745062,0.004009443930922554,-0.002461041819172824,-0.044202987773973954,-0.001052957903078463,0.03835849893055483,0.08575391436133434,0.0033769311293930897,-0.13511273496086573
115.01685333251953,1.5,0.008962332830819167,-0.012862474681683346,0.029225175657850523,-0.026577737733540073,0.03762579884673461,0.07407110209775525,0.09699695700336625,0.052059480599047074,-0.0046992195549428175,-0.00022699305610721608,-0.01442057163734329,-0.004757609692407588,-0.06899438994234115,0.027980585802585823,-0.08989678101448201,-0.00402147890700962,-0.0019574784781625923,0.00039619129581505713,0.009372137392018753,-0.004693748028846742,-0.04015089960748382,-0.02298408434955114,-0.012615048047354973,-0.011756379643994175,-0.002502496229754124,0.00032715260509620935,0.009827283194288557,-0.03265072743423621,0.010480587027148327,-0.05045950702320558,-0.0006030339708852252,-0.1134497283463478,-0.01218093144705343,0.0040600371884226445,0.07499497896197457,-0.0116783622441401,0.020341329317018198,0.04181769446480964,0.05610366193234252,0.007479115750865896,0.0009933957058972892,0.004801287034028462,-0.023789999927044496,0.004176711934138581,0.015028374176105976,-0.06538558672129019,-0.04013178304985702,-0.015044392828560453,-0.0010876307607211688,0.04188255498879621,-0.008204869328029555,7.905782500283285e-05,-0.003924758088893641,-0.012339186207265797,-0.03584876621637277,-0.08608478521504308,0.03866776241151085,-0.0828622607857891,-0.003206721555280026,0.010471033968312804,-0.07791359221893761,-0.023775267306804806,0.005894840433949446,0.04009081455644953,0.0493171345231426,-0.042609143121297516,-0.003348591122846044,-0.03608886953447563,-0.07939646247303903,-0.012763860779202283,-0.13132012125598155,-0.0045371540385023895,-0.025926275515342836,0.009206690818422857,0.05060635704498739,0.04266367009004824,-0.03191376056575042,0.00959912163781392,0.0025777170743472265,0.053040443829516226,0.0006954699705360482,-0.009817434619174455,0.06461526498854095,0.050049282483127414,0.0010597716977632215,-0.02121035410542616,-0.03290845208450218,-0.004379171976497077,0.0038082299677554155,0.12261379146915159,-0.016912230323833426,-0.08840453358596886,0.025298740458203964,-0.06057749175567014,-0.023366482579815703,-0.025713546726147802,0.0539557779518982,-0.013480064997026132,-0.0009338515646570627,-0.021875657544860302
116.51685333251953,1.4600982666015625,-0.018057588783760254,-0.06174865970228003,0.007202539993516412,0.01851058059632585,-0.0044209940663827085,-0.011498313117096487,-0.0008648432767400316,0.017982359420083957,0.059085404505598745,-0.028817946557700178,0.03819114101305816,-0.03130407376194277,0.02246675571295169,-0.03604909918137685,0.10801384238893584,-0.03124861722803915,-0.002200793112282256,0.007240066563948172,0.00047763619321007644,0.05242756199204222,-0.03686676532889334,-0.01256917491516446,-0.029927303232917972,-0.006570978675030178,0.0006345401920140742,0.016745430164068535,-0.008485354267082676,0.013276955125160573,0.0016632057412211548,-0.027382168504772382,-0.004576730784024654,0.0015128905229643602,0.0842057234341334,-0.008798766220373814,0.009603348880738277,-0.09647889353934672,0.053194762890349766,-0.03213827960591367,0.020162814867438254,-0.013172816787050387,0.0010480491145415773,-0.030707270060610595,-0.006809795552786608,0.020728498717405588,0.10430910423759338,-0.03103535172070652,-0.00935151512215755,-0.005699425409970208,-0.005384819716584091,-0.07658031943187643,0.025498620924281724,-0.009079673621768439,-0.0014089124132555658,-0.009886399097801086,-0.006336616597356647,-0.017574345103180955,-0.0020274724239227673,0.01867567858975406,0.014688455444953813,0.004267826879456463,0.01270258824305269,0.09689682755338912,0.045621761810860265,0.08320460204454422,-0.014762903055593994,0.011108904817022515,0.022448088680039346,0.06327545183358732,0.02795192167788465,0.003965314727780028,-0.052267154799899254,-0.0035039512025767106,0.035348934739628975,-0.10434593655207705,0.005824598774918456,-0.07844185507524341,-0.01367467957615419,0.004382092587914086,-0.06056440478872942,-0.0061209772972237895,-0.03939738301785438,0.0027916714719390273,0.002144581019980824,-0.0073070638667894205,0.07638462373962916,0.012383189728333244,0.06071272995033525,0.08340136980033758,0.047061028575165545,0.005609991417073301,0.006239920526756732,0.019722439734723842,0.08765098770380376,0.014004395295829376,0.029123705668758094,-0.00522229939356832,-0.008510735201024024,0.05139984453543307,-0.01496516208955149,4.480812231169931e-05
117.9769515991211,1.4490966796875,-0.0012999128320456705,-0.06263530229389995,-0.10179731802949567,-0.06603619318191464,-0.08494989630706548,0.0870602022547207,-0.02047388237873751,0.03857393304616205,0.003565674241750969,-0.023481835895074743,0.0024468523406783564,-0.049198263118613625,0.04536327610345461,0.053474758410861564,-0.09913529863740357,-0.02965527523565581,-0.0022346925715839632,0.02744791772035726,-0.027877548113460715,-0.04638553985956999,0.001384410160323167,-0.0009260669503217309,0.042294064282104686,-0.006558480027365354,0.004647330634655063,0.020754124236836646,0.07476589341464127,-0.0005818206053391194,0.013032957889628972,-0.030557430529202758,-0.0010162385886247952,0.008384810819400582,0.07155979901578446,-0.02120075750288221,0.08625337730167498,0.03914948362820682,0.00965555995959107,-0.0037428463348539555,0.05293197570885806,0.05575093016566007,-0.12968625004864057,-0.03042892979899635,-0.10139793343040836,-0.0018894865371997867,-0.004244478975078172,-0.06957131516565371,-0.01990700523110902,-0.0007920719952201118,0.010556150289013754,-0.06574979229282898,0.04258449649912877,-0.014735030730089495,-0.039827254439028244,0.003313191079940379,-0.03399170823989763,0.1063929641092615,-0.032685136565713084,0.05953723703545297,0.03737362177433102,0.10636706377296888,0.0008285996869563106,0.068640977908292,0.02725353613321015,0.009390508320723592,-0.04006693108699906,0.012772394074131485,0.03227393320143379,-0.046001850359032884,-0.0030183580168476796,0.0029442102030290615,-0.002970499946476737,0.014954132434026754,0.006423058696028717,0.015984338286174363,0.01993072853821785,-0.04830324464373821,-0.012459757286964097,0.024673025484603997,0.08025031212050564,0.03826620641689904,0.07417209199738842,0.06041208226648902,0.0342144855804245,-0.09903336836738144,-0.0419726519793156,0.003830938581380451,-0.0017531821041995013,0.0052762309185242495,-0.08688362529793536,0.03128035335118301,0.007972737148945934,0.018244087428220656,-0.005487872901455426,0.010631071758119587,0.016819525319057463,0.10614600397119836,0.011010345093099408,0.03086340126240057,-0.006874000071956934,0.03492215743616251
119.4260482788086,1.5402984619140625,-0.107113215173441,-0.07328752912426287,0.015586752014231903,-0.006454137827715768,-0.05262876417018076,0.009279902927615555,0.02271759168401794,0.02087894081222639,-0.03842876571553054,0.05630661367076087,-0.11326817853488151,0.0025852004056970018,-0.002103313587069389,-0.007765861255195667,-0.03776635837762533,0.0016386134462641696,0.02272354500830868,0.0023275777635416496,-0.11322016236901912,0.08501469531205083,0.14627412632827175,-0.03827657828408339,-0.018198330846333127,-0.11980839598234085,-0.0534480092963052,-0.01839067790359343,0.015580870282060776,0.014206471612829329,0.08301719077070639,-0.017907810594363936,0.007114789248774019,-0.014433300998450888,0.12360508769238017,0.0015647868935722417,0.04453292943313694,0.05420532041516788,-0.06753982243471278,-0.02928991691035192,0.00189759508667477,-0.0846548944588913,-0.026502762910529904,0.0025237918996598354,0.08369385812097106,0.0009857719513352654,0.015653993017652135,-0.002706082055657283,-0.006066782406479081,-0.00011417515119245146,0.007382374198224566,0.01417279217369621,0.03146475174538987,-0.11222625412373605,0.018900087594345194,-0.06651346243663084,0.0036839467959491902,-0.0005263034606101065,0.004025939434514665,0.009034264098102774,0.004037449622118338,0.0015726791070984345,-0.006464569195660579,-0.023767934456065756,0.004245208339797442,-0.062318537433073314,0.07819742947592413,-0.01632605352557166,-0.03586769427807154,-0.019340267606821365,-0.06330105037903055,-0.028118514787712774,0.008803594135204075,0.00883353964750374,0.0042802465434292,-0.04237416913224923,-0.00977167111900783,-0.009891317213159797,-0.0284006912861126,0.0944842661598803,0.009713868957695146,0.08314178149072515,0.0021063704978545547,0.05902190691014654,-0.017253458979522365,-0.06301484933540338,-0.0023004619642985292,-0.015955722731318792,-0.005774460681806109,-0.02156489324825762,-0.0204987760498367,-0.0008334142906260013,-0.006977288114711235,-0.02340828740304888,0.025042548342500796,0.05569243280415765,0.0881480966029948,-0.04481805693209875,-0.011707626646271027,-0.01730584939486434,-0.019729593953427483,-0.06061558513291304
125.6657485961914,1.4197998046875,-0.018040118290886503,-0.01253452738940223,0.019845920647630466,-0.005680095570508451,-0.02105086375292971,-0.05479493902114145,-0.04312624398447969,-0.044197960467323744,-0.08520381836408682,-0.03593191895565756,-0.09765082404106036,0.02906945547586737,0.013401648986502512,0.0007534829629164272,0.021549141746193268,0.02175917964954066,0.02080738924691597,-0.0641587143758315,0.03981593929413384,-0.06605699778458687,-0.003535323885470219,-0.02908521057640437,0.004414235100188346,0.006151190476882342,-0.06465158035795934,-0.016831939075095698,-0.004802538313044006,-0.0031527618322062835,0.02691246064316967,-0.08068085154358054,-0.049300517888806,0.06847999209819114,0.08864454515510958,-0.0034010668207894584,-0.0019351673837905061,0.025556344456857234,-0.009626670222159177,0.07435388078699956,0.015653937386435182,0.028474971899662263,-0.0038850734158379207,-0.0024748891261856393,0.018022455591513553,-0.017266984915566472,0.012083632856544412,-0.09436469814243013,-0.0034768370552613675,-0.12227562050665647,0.01319845240196102,0.04166967392407639,0.047417323545020096,0.07011511643753196,0.07991870461741185,0.039162120835330674,0.006039226306488732,0.019279078145545997,0.024739907077149348,-0.011883660844521976,-0.011900675641996076,0.02224442094009948,0.025328408319426864,-0.0724761509104894,-0.0026232114294199634,0.00291481942817756,-0.08597764018090688,0.012736821166598827,0.0054789852590338695,0.02031779823157539,0.022736076373665565,0.006566121637083547,0.009725687297061244,0.11840256177314509,0.008356126885148711,0.008789386940951643,0.0102559517344209,0.09293830984320814,0.009622241986325625,0.02737787290657602,-0.07607596638430968,0.09228921807261045,-0.0025587200379637797,0.059950883357827826,-0.004866352596484105,0.06756047568749642,0.007496778199585872,0.029525899877383827,-0.005756299311448682,-0.018013558800090645,-0.009300670579805421,-0.047879751558251527,-0.009604318572436234,-0.13264343844753212,0.025728969097720628,0.01181231064484256,0.06227562923116002,-0.015471143142028361,0.013592956918900913,0.012363903665072605,-0.01823480251391228,0.031437554315737956
127.0855484008789,1.4292984008789062,0.030793896239196157,0.007415715185329039,0.029079143429765118,0.023904538829027044,0.019671435046811764,-0.10231339400190873,-0.0009265218853889275,0.0028226909744848106,0.035592671499530736,0.021271028965851244,-0.014591460699580585,0.004653652416603695,-0.05685561861850401,0.10536251271820155,-0.059344472743959965,-0.07443728416158268,-0.028707024884294455,0.09145963394074536,-0.004351034056329634,0.07522560372701796,0.004730512621451286,0.06190322604503193,-0.051017420992141516,0.04744196842589445,-0.16707767747553393,-0.1402804276609502,0.08441185185753083,0.06697242524523564,-0.07747211586683665,-0.0027295717897684313,-0.004828025803807929,-0.0016171274228741733,0.00275722386228696,0.02049459928896188,-0.08608924753940984,0.009272409699028126,0.0059971921623161225,-0.06745549702832022,0.049306719690952766,-0.0027185875989580673,0.005418602156338825,-0.014758971563173545,0.059303234211826386,0.0008446039221345192,0.040718597655933074,0.0013605158947054686,-0.0019398990535609757,-0.11923824066341168,-0.04236329721291032,-0.011571447671767517,0.03291372108044916,0.03124897238630881,0.04275112240269863,-0.11415422968403824,-0.0063207092876603225,0.005183239161908215,0.006303790385620217,-0.0074853922099402765,0.01193374639269524,0.011534241135432296,0.07446266467153582,0.03952514841132185,0.012653595812164452,0.0013591411572889673,0.06655953470728448,0.04176676480448472,0.04367737000992634,0.009916780617697254,0.07854140337876689,-0.060046851166183135,0.008756968920281582,0.005058770434561582,-0.0052562842210536025,-0.023980611795353306,0.06724840710523378,-0.01686758709436274,0.017103322527383957,-0.004358935526282838,0.010773590239156118,-0.02412915492356408,-0.00660343703540621,-0.005772437860342289,0.03882888459244783,0.00012255073695854112,0.003924980419840263,-0.03570891432888799,0.06782436361216608,0.015530316087964242,0.004368083208415851,0.00029598889491537657,-0.006703148117604084,0.006780711948507673,0.00386544679658522,0.03201522122937739,0.008615702063479964,-0.015798818425819514,-0.04199696658384438,0.04818123918939178,-0.04005762005342545,-0.11256966061350597
128.5148468017578,1.44000244140625,0.03137066757342618,-0.012826208419791676,-0.02113700636585492,-0.013892395109244778,0.013455804006621552,-0.07900466055016822,0.0009428995961232312,-0.05317417859742014,-0.008289486809382476,0.03406741681092143,-0.026918132056481418,0.06492716725441684,0.033310616986865674,-0.05237260681461048,0.006706423993155364,-0.1086885810036545,-0.012488590932407293,-0.014120711063272768,0.012949366856023815,0.04858304836905686,0.04110689517525057,-0.06601426762961761,-0.013780572138417378,0.010346816080539254,0.04438568558657681,0.01587597500632059,0.0038017951756445898,0.06902180268891364,0.01119706695871725,-0.00879761584251232,-0.0005955317713979469,0.004773576381889993,-0.005214329723917194,0.038813186823805655,-0.027529879870254223,0.0061405457265359484,0.07246516889051742,-0.010717073380100422,0.04194055994738383,0.012811118173648864,-0.07627685803729509,0.013079440117522495,0.013557682619439917,-0.019486546811096687,-0.00735985565353575,0.04161217091494904,0.04448424644360516,0.0559648822603995,-0.013200363216858982,-0.02752016817385629,-0.006853030552963045,-0.03795021209136829,0.0975435809138569,-0.07168367376778056,0.0549977735489307,0.010248782042031973,0.045115427600716726,0.0514357619494164,0.04129946906946333,0.07322384531180602,0.014600628960169003,-0.08944715836910873,0.006121984582971663,-0.0008752352472166438,0.048087999513844876,0.008281947952104528,0.022770989649969525,-0.05690282408952011,0.029095020497907114,-0.016217766271131785,0.04596673761635081,0.0041490854593349245,0.017885103835343533,-0.06171720856002788,0.06400363821421767,0.01163434516449599,0.03653277162221151,-0.0478501851817278,0.00975161811126954,0.0024076856619815543,-0.003656986962982368,0.01590014230445551,-0.000692162839985723,0.006392436843193014,-0.025804356958239155,-0.0657283465093992,-0.03520074426889891,0.0016599924551272092,-0.029548638025975394,-0.010741591790255144,-0.002480307624296098,-0.010710272016084176,0.003255139348207438,-0.043152648019120124,-0.060351663127705686,0.02124319728493001,-0.05242017785017914,-0.08384366346453007,0.002648650216087848,-0.017541096149243533
129.95484924316406,1.4994049072265625,-0.017170975266690466,-0.033722190732842605,-0.0018966945292736947,-0.00692314842362011,-0.04284129549538798,-0.06307675216264529,0.08304886057097124,0.0690244894555283,-0.049651748077582235,-0.03948898874106323,-0.01843718557044849,-0.01953472585447245,0.0367845184906499,-0.06371792832036113,-0.12299975284615242,0.043784095907413514,-0.01918339973434076,-0.0171703492263917,0.004090103396254636,-0.012328035243012873,0.034461562987203424,-0.009910139106796508,-0.046340806460487424,-0.06666947222253203,-0.030114359913733478,-0.003947925111293942,0.00518364547865608,-0.05099026068218225,0.013259963879290654,-0.01412974879324428,-0.016517360170968495,0.0006207836496666776,-0.03810802470861681,0.0042552602384705734,-0.0030620072496074027,-0.005370183327305539,-0.03513903492555904,-0.0007550277417818872,0.017551629207246313,0.01080221329318748,0.02665700308713446,-0.008069079851381583,0.017103598523410025,-0.025977176430437867,0.0007449049121578325,-0.07999939356413388,-0.04411996849113727,-0.018855666652897927,0.01581022223764875,0.019806360726226314,-0.007479472100287113,0.002782890199955747,0.005936505927502034,0.00475567838228751,-0.00032260780637896933,0.0007042697526126382,0.0009596201336868983,0.004746540143464393,-0.0968551291605298,-0.022474681174983923,-0.043700370490578164,0.016584328780893966,0.005694484111113178,0.09635869418599448,0.06725638233926044,0.03578710720054699,0.02627027586635693,-0.04095541572714035,-0.015093411374847873,-0.05787842468353378,0.04156848277269902,0.07612900620691103,-0.02784597179911155,-0.01904408708023258,0.08463315779103535,-0.037942504699238815,0.021859274070552565,0.04960206288171406,-0.005795650151211418,0.018806212880722404,-0.0067188863538421625,0.030515294329962243,0.00897167314993304,0.01020346935906192,-0.02414380430572771,0.06036530733127345,0.02750895237580428,0.08177628311401954,-0.05745340239751428,0.008240682721062709,0.007476150373269665,-0.014333829808022128,0.00997865536326788,-0.05445166800468157,-0.11542621572115029,0.07203041568932475,0.06085244800691464,0.0029060169034789214,0.04924493056707408,0.06852008934057388
131.45425415039062,1.5204010009765625,0.0708068825722245,-0.02140046896374398,0.044477407206320534,0.023556459539920867,-0.020176257885963552,0.027638175709605937,0.002987970450981874,-0.018046475467469777,0.08453276698961036,0.06691448592821433,0.057728657439117814,-0.05539278388490971,-0.0307050111241196,-0.06113656127938485,-0.048964000330764,-0.0077429955490738766,-0.02485344528936127,-0.06297828638244676,0.058031076758932786,0.09169655968868706,-0.02332725491798545,-0.024178174684758313,-0.0013387656194174258,0.016066567959272693,0.05476592844525627,0.053985750843686835,0.0039300960933586265,0.043908405326034974,0.017765494082483946,-0.0023510243881051046,0.005214102906096276,0.03653255426157992,-0.03144785166349148,0.0010785813188778184,0.002568921598157083,-0.01461037429181379,0.07306580265917044,0.007290039791689872,-0.05458186150746519,-0.018762362708859,-0.07950432348908226,-0.002034990941315076,0.008175282908332089,0.001200539643087085,-0.05117355160218882,-0.005233558221639806,-0.07929555818731576,-0.02593513080429562,0.00040032712031936414,-0.09773422350977984,-0.05476069519824582,-0.03677043364055694,-0.02746463596642153,-0.013963734040116168,-0.018462443529123723,0.12295394314715549,-0.007786736613800062,0.11439752277200503,-0.006149618831813579,0.006458595712617346,-0.008170765399417286,-0.0871826720324409,-0.03507918063351821,-0.03745873831481529,0.07092096899850074,0.0077729224595972715,-0.004614441406750512,-0.0756262170122881,0.0014518482621148293,-0.05216705336542401,-0.008712760817917942,0.010103072388970435,0.004786055545338175,-0.052847021125299015,-0.012253493480829606,0.011168016452150847,-0.08155391281970854,-0.016031714686125333,-0.004474600300972216,-0.018846398552237964,-0.0001499352906878142,0.10803188963796634,-0.05686159088457484,0.0051796007631298505,0.06518548017753548,0.011175724695802625,0.01483669198764637,0.009113999590460617,0.01292685648897326,-0.0026248111395383443,0.0038625610343564387,-0.00229537206756022,0.06982631500415605,0.045896161602372434,0.003730142289501602,-0.010753553838962537,0.0026478807518133148,-0.010717452279234886,-0.03562933825795089,-0.1116063552853095
132.9746551513672,1.5691986083984375,0.03578372702828052,-0.08728728796107658,0.05405735694644668,0.06152447962475879,-0.002439138150085257,0.0565751884842267,0.0023934426227948374,0.01366234318527837,-0.047827356737463814,-0.03446606832328702,0.03788143701806645,0.0340164500332942,-0.02433355916927795,-0.03164058936266672,0.003026349294194231,-0.0010277252687027048,-0.007627056794643853,-0.0005653618294941931,0.010502054190842321,0.056048060925354935,-0.012954960339427378,0.004480474864802375,0.04077661378088886,-0.0026585913752765044,-0.005184063877134243,0.008101789972199288,-0.030034943894147275,0.001998807111080267,-0.009112707520328542,-0.006521077882666565,0.11878896802608258,0.0012299933797031222,0.02216932342992661,-0.046321144738531286,0.023000886166340245,0.010714295176154964,-0.0212643717198331,-0.01668268158357544,0.05513891504598939,-0.0033260670209191478,0.09848383422198731,-0.12088316958645104,-0.033256962008620765,-0.0032205740976387707,0.0526058024698454,-0.003495837768475032,-0.005260676410599924,0.03264488787600109,0.012070132014885618,0.08335121324338939,-0.016245938931837626,-0.009468850802823418,-0.00581340416722075,0.003705747312271495,-0.0838381904351603,0.020472052909364005,0.02328262072688253,-0.027161775308821603,-0.015484723722139174,-0.02439335961669583,0.08404639113544052,-0.0010264897226686383,0.028786256860370396,0.0028291764926461193,-0.009084752927817318,-0.08158289176926348,-0.007548432851818534,-0.018276501617999666,-0.030270877939101305,0.0033613707364605694,0.009964301735132792,-0.030502271594616506,0.01583212075203955,0.053968760207486456,0.012386421245571674,0.005049541166222485,-0.06477656423674348,0.05350888992572168,-0.00736373490397599,-0.004897871629140204,-0.00262737702447673,-0.025417120307975813,0.014904659504863409,-0.06099386829175284,0.01761361245832022,-0.003987622311314047,0.01347493207448585,0.017820666798553417,0.003737985922867405,-0.005084746818546189,0.007823837179419927,0.016810085774965188,0.02353369658721771,0.01986024130992757,0.022601092714819335,0.04154850396101796,0.035680097968871366,0.010841790884984166,-0.02275279326368501,-0.020723617533308862
134.54385375976562,1.7303009033203125,-0.018633782713294304,-0.026076278358516072,0.04622777533045215,0.010271437860298278,-0.004037580850323035,0.0025896678926393335,0.018637321573472414,-0.001454589182043517,-0.043103319119729026,0.009749316517062415,0.04529340186414195,0.07838997116412288,-0.000571870077124224,-0.10909032388850311,-0.06799916243138944,0.06136856870454319,0.03947408610339892,-0.04889210389592762,0.048589148859094496,0.002328555414237974,0.002548985870406721,0.01929551905101075,-0.009677230065158237,0.021838939521663825,-0.03618112530945692,-0.004268836251460343,0.023922499556896848,0.048118532986917956,-0.019137584218308336,0.011851823817153566,-0.0654729296151155,0.0833229316934194,0.08747975031330892,0.0004922751909653217,0.0017175634545747082,-0.088803508302492,0.02285789881317711,0.006068523840476989,-0.05310585219113859,0.03671871426812826,-0.004557961015301745,0.01134027340278363,0.012993594910644045,0.016516000903604906,0.0693632080563338,-0.04101744879836675,0.006733832588215502,-2.4509174008874508e-05,-0.08065725653693136,0.019888383484627282,0.00945510657002985,-0.010278010944523826,0.013545350336841204,-0.07341894946248358,0.013528529385797933,-0.012376688858923797,-0.0027451520074307355,0.0019336438734762701,-0.040261501566250704,0.03986070774534303,-0.04696479970274101,0.05861215192033679,0.03801264890105753,0.020937310801116465,-0.014623448136408848,0.044370661116050196,0.028881159272686103,0.05955677304014117,0.02420888335137722,0.0068994273829748355,0.028314340138386677,-0.0441529187807229,0.03906863315623685,0.0460135154210834,0.002945517886132707,-0.10950288312653063,-0.02032187598854432,0.008202185815552251,0.031751971712726465,0.005937041920468777,0.004099084680398286,-0.030533547939247736,-0.0017944024397972933,-0.025801612171424675,-0.004589587779723742,0.0007234695247192531,0.01495245353986382,0.011933218239040788,0.037582399372912904,-0.0278611062197062,0.026147864062927323,0.007535033803559037,-0.005351910880122941,-0.017778238381732734,0.025519399428968446,0.047522122717389675,0.024895005708031638,-0.03112229169120161,-0.01341750902242483,0.06806974993334167
136.27415466308594,1.54010009765625,-0.06960875732183583,0.08767014363083436,0.08098922404994721,0.009946330372398187,0.01719819919603051,0.005701964555638366,-0.12482640300340259,0.017236238245746202,0.045553876512442186,0.023094833344801696,-0.007103637948785259,0.01944686827143309,0.025072077317170705,0.07178495427521842,0.015369755666281609,0.025639021306186283,-0.07982122213936282,0.0050908106774383505,-0.02991347724289526,0.022848801214210516,-0.026688691351131416,0.11412281681514082,-0.011358459486730452,-0.004590349427823694,0.011367160791295055,-0.010432478004509303,0.09016880656968312,0.0008831695703469613,0.004298242892994803,0.037067698435528415,0.03318072005573404,0.02610647258314047,-0.003107726988883084,0.014240420411122771,0.0038460216594091343,-0.005705826273048273,0.012033895134535982,-0.021943076972469458,-0.026006631370718236,0.04855398530328949,0.01681903102014417,0.003948124051354974,-0.004979777077541691,0.08032633244449344,-0.029367085148045455,0.031062299299396707,0.022384342051814006,-0.0020992535259699357,-0.025278699724984977,0.059101756794275775,0.025398791510558433,0.022058479504862526,0.025352442900836464,0.011763148383179798,0.07040420604564464,-0.06252785390989207,0.004184945149242131,-0.0042877263573339345,0.07728728911643298,-0.08381278788676134,-0.03501066755575232,-0.043296232861541564,-0.014107147665750677,0.02299283350186096,0.0022565325496789494,-0.00814126189490949,-0.0034755421526150854,-0.01950063769663503,-0.02526340223877857,-0.024341825234314586,0.03688595809750998,0.0014251694241986797,-0.007549181806149526,0.017652656600653634,0.05566133945341646,-0.002470369425386126,-0.008393907701236599,-0.02037981281288015,0.03505890705875384,-0.08424957934735393,-0.00027249009313801777,-0.060652715900302044,0.005458378857932343,-0.08593752066772276,-3.481513425126386e-05,0.1011862685140228,0.08880811242480911,-0.008975402382718128,-0.023323829956994307,0.02585003137772115,0.01730386657769197,-0.02331302515713272,-0.00023720040337911865,-0.009187499767913247,0.08653206451932573,-0.06299250072042278,-0.032440489112579636,0.08579568252448776,-0.0075526503902028546,-0.037893963588346555
137.8142547607422,1.4594879150390625,-0.03592956600450957,-0.018803192485066775,-0.015747777975181895,-0.11538104373541916,0.090124348831105,-0.007814125351771745,0.035520471093669306,-0.013357721803199446,-0.03257830633976883,0.007230668564797298,-0.004246691241892711,0.04909505459164583,-0.04119127750552809,0.026023006008775544,-0.03088768845166996,-0.0008384709690718085,0.006599797289898339,0.026138520603564162,-0.05127618405805053,0.0787400495758609,0.10703049369995586,-0.04059970587608929,-0.008663949960534753,-0.01212519837077726,0.029473503302164056,-0.041374253055199865,0.00018527199494020968,0.01722514431204307,0.03318318307030059,-0.004457474377810534,0.00046901746713290567,0.01676147097810934,-0.011111310493840686,-0.002049326561581516,-0.058165364534415995,0.005533107672077136,0.05780101737380006,-0.003726475697219288,0.043048144359739485,-0.0041558752172996235,-0.026647070551409927,-0.011141639436573996,-0.057428618168221326,-0.03434962359596439,0.005381321439650701,0.03920699440280478,-0.01675730826118202,-0.0024733396784067515,0.018118842075351943,0.04292640292288772,0.057866636211442196,-0.07367396378898079,-0.10211925236530595,0.05295033130354598,0.004544849919757787,0.08169626222400342,-0.012039831099712892,-0.0033824987409638344,-0.010738183149951406,-0.027378209090796683,-0.003726116793116481,0.011181506343214425,0.047768873940902214,0.007963240314200228,0.001995128623773863,0.010404384234998383,0.031133907453432464,0.005631178670102678,0.02055382655945029,-0.10974574461817056,-0.02326461051417321,0.0069121564402575214,0.03329800128950967,-0.04741222459889009,-0.006175868347877171,-0.05284774647671287,0.018472955501780706,0.007023414584292694,0.09769282561119273,0.02685381738395588,0.007575148869128371,0.06550957061854537,-0.0778951695663829,0.010327135288502555,-0.01755062794833924,0.011453082185612529,-0.07189275719138163,-0.06297616296726698,0.03489380471547981,0.020585936725180623,-0.0011224974440600223,-0.00037559428071274714,0.004113760228354915,-0.04684519544062726,0.055098019525772104,0.0342100870552943,-0.0015463654984083086,-0.009323598191762164,0.0322359722858805,0.07993581663936128
139.27374267578125,1.539703369140625,-0.06310665602460716,0.030961681254803308,0.12258293499250593,0.027849062661700133,0.08965385128929411,-0.03356333190177118,0.10767985149068089,-0.041771311403988286,0.0935204259632626,-0.03681084198678901,0.03070130525966725,0.10247852826417952,-0.007138200880410744,-0.007919635267985087,-0.024555631521049275,0.01954475646977336,-0.014926042897746176,0.0001266905528834771,-0.044916032538150935,0.042895144718735435,0.05293103123436243,-0.01082714567838539,-0.011302510391841495,-0.0009752118237260502,-0.0030991865442929535,0.0498699946160455,-0.0361281775816303,-0.009554765894015075,0.0009278287555755254,0.027751572099213143,0.00459641408732394,0.07303423022918566,-0.029337294814130898,7.97366909437554e-05,-0.0044756096162428104,-0.09807033998074519,-0.029101316161900002,-0.03788560380553579,0.014424943878371465,-0.020338131094321508,-0.0007915986041494666,-0.06577783391003902,-0.002422142668581312,-0.00200477623157691,0.0036507264035583586,0.08912555136660971,-0.004488327729128404,0.00555846273389245,0.020732318473144797,0.030407648712248502,0.08025774473626368,-0.015557023106940316,-0.007014849868039641,-0.0026199575745742736,0.0018953023502954573,0.0006717773411066732,0.008943893194875513,0.009031794074353583,0.018655352468884872,0.008148956094595441,-0.09496444290842981,-0.03105428946322139,-0.0031778953997030246,0.020742642853442617,-0.07240509449094114,0.017131071442401155,-0.016552725887243533,-0.022947905196046735,-0.002295561090675614,-0.00013592759865854953,-0.0324393572899362,-0.0041152086837257795,-0.026066445371192952,-0.007369606952062222,-0.0024014442279470046,-0.009431589427807549,-0.013970380035428033,-0.027283361609391474,0.0006221109258529147,-0.052223780932828014,0.009687178649831601,-0.01733997702974032,-0.019031158341282894,-0.015276860562101702,0.010298827503776918,-0.024792279371039883,-0.010217141233584554,-0.04955725145538585,-0.03544426631799621,0.03057289909134053,0.009551802710751078,0.00010988993696909525,0.03401822821730809,-0.024826486139119256,0.10086568153748468,0.06019731047166665,0.02008305212257381,-0.061778543314714066,0.04132560052140554,0.035614046093435416
140.81344604492188,1.4398040771484375,0.04001488933955019,0.16455563574954807,-0.004460704180060853,0.06405306884148096,0.15905341026092615,0.01521335348170581,-0.11442691184406445,-0.0793410493648424,-0.07923872829065795,-0.0008800966906110265,0.02563221352843372,0.07224186847597269,0.07762513202198543,-0.02109612229683839,-0.05924873211740249,-0.015447126652219687,0.0009835463318218793,9.971688587033381e-05,-0.016666520814260493,0.0707349337526908,-0.017099246986013467,0.0019547819012059645,0.0016691501434958267,-0.030113984780264988,-0.014056594741238267,-0.0026108834655762182,0.0077443985644461005,-0.06536782864028234,-0.033731127873624436,-0.011230056048125464,0.0016274934595947865,-0.005542719529455153,0.0015908732670654399,0.011036462678171276,-0.045646784015353506,0.0018508632478712343,0.04147034844843325,0.001352780250412979,0.0590367184425177,0.00016736156862333612,0.03899923093674557,-0.007378184193300525,-0.09476280942790978,0.034090674428287324,0.01144349626981761,0.015384019974729917,0.02801814519135548,-0.04305842669115528,0.0016140348522519278,0.00671036862300243,-0.0038768375799610737,-0.03785640578554551,0.006421143051155124,0.02283167974225275,-0.0005619777757197295,0.014166228655920664,0.006230731784874973,0.033451973743180055,-0.10265998186044237,0.007582819093845254,-0.001909824378154543,0.016169314209839136,0.007011938299984017,-0.013207629474326788,0.007977376311072181,-0.028091678091767505,0.05325937723093877,-0.016623286443239255,0.006374257744961394,0.003150703860226438,-0.03528283916507211,0.09207928208961451,0.004521459865559933,0.02335121581920512,-0.009397927415251795,0.0035439420923348355,-0.03680510276076381,-0.008443882885807687,0.0054756311797030735,0.00435177873564091,-0.03162528283320042,0.03375611467354245,-0.003331457252390647,-0.019399952132311948,0.03735536492815902,0.006209871854172684,-0.012441466216563904,0.017535047841464396,-0.10066845117201802,0.04979975964958677,0.010465034689557465,-0.049079099093335014,-0.019966077172544994,-0.0024925869620617655,-0.0039022832800384563,0.0037887460345176573,0.0582069195518356,-0.03873560082564757,0.053059499201076346,-0.009748666235637004
142.2532501220703,1.4297943115234375,-0.010833696637387306,0.01709252821145269,-0.11046464499786783,0.0016793789476036202,-0.020044451860814105,0.10400228558921329,-0.00951301415054471,0.11731407032325539,-0.003292915166203179,-0.07047611433260474,0.012426777067212102,0.0005419543326258075,0.003997145694031124,0.0006916661032272674,-0.0010269892390662096,-0.032801378676693894,0.03212837612770309,0.04515767223632147,-0.03557655326566623,-0.0051575108393402845,-0.0035950639998136294,-4.671574922727659e-05,0.00024303221062078182,0.0027344910247935634,0.014729891726827897,-0.02473274625824552,0.004891785671849843,-0.030356022338418692,-0.0039284225610380094,-0.0019405120267543575,0.04636802152696751,0.018694764856158827,-0.0003938395992163946,-0.039947724826113806,0.00976943746502651,-0.007448907424951079,-0.015796236614429592,0.0005293489924506333,0.013241050559992348,-0.006898205660736449,0.007675371004785049,-0.03899797730945816,0.008255292836634428,0.06728335117919228,0.000376129560726508,-0.0954064562788447,-0.03698937953068539,0.0012431350670559697,-0.008478218046200369,0.03687222869324129,-0.053395646435831765,0.07078695194806177,-0.08441062433826757,0.01830117801719073,0.00864494799323538,-0.11125346927555879,0.011696938619604056,-0.09922830152245485,0.00920279325303702,0.0035534435273958443,0.0024577203758140397,0.0001933074365848622,-0.018078187971901652,0.01741758356096851,0.06259182259141102,-0.014773006396262615,0.03167306901934685,0.0030055444581188542,-0.05281897622879238,0.03734252249851291,-0.042163192414252544,-0.000479718341712751,-0.0409652387571,0.026163331731361306,-0.046758935746029066,0.023343257607586033,0.02821900154587531,0.014028481988568804,-0.03856655637711576,-0.03940144728178813,0.06114343242203996,-0.0013511206097207734,-0.001001784563676674,-0.01593093101988684,-0.034661483971332535,-0.008416385846970756,0.001655353754444748,-0.010138911652043043,-0.008900269921490756,-0.0078026249735297735,-0.02868057478745798,-0.009196861494602516,-0.02206802523761026,0.007625587535717146,0.008357289777520701,0.006355749486154194,-0.0746598944523025,0.09346943571763676,0.1226585215829421,0.04544526878122262
143.68304443359375,1.449798583984375,0.04629363216479221,0.001512918426793182,0.0316565923384558,-0.02622634196398624,-0.019375166193994788,0.01194477858937446,0.0057030762604762955,0.026761819771052353,0.04067709580166845,0.005071977113420214,-0.015276747124177882,-0.0012264115474140188,0.0012619110755448647,-0.004690784154373794,-0.028032098634859018,-0.024819303083818075,-0.007839975515248261,0.0030666883932114345,0.02740024927631414,0.04637010506955929,-0.003581060944168023,-0.004854424737975833,-0.021691284348043523,-0.0023085957502822453,-0.02737777511182475,0.0008213299294676832,0.04599923234779601,-0.00709985324073211,0.018864030561177848,0.06193873473841866,-0.016873827833539527,-0.0012782600123419092,0.007528260299461612,-0.06989736317465461,-0.04774834035058315,-0.020222382640319586,-0.0006274829891666566,-0.08519534259917706,0.11059237708907604,0.0043634497923211455,0.01762086677419699,-0.01043106731505869,-0.10909734921025122,-0.04555933113762246,0.0030190787695093405,0.019337833773656568,-0.045312088173057874,-0.009823803947111916,0.0012838550772497578,-0.059109267222533214,0.008006367399863308,-0.12505412869606533,-0.022637711669571244,-0.01111695659016071,0.008787658438348327,0.012575866994841246,0.008188452470608678,0.03514363164123876,0.03209568754299418,-0.05229191791005061,-0.10490708271074344,-0.054742600054532034,-0.03801446610482406,0.005724466667656109,0.025688774388577314,0.03909849759436129,0.0684199028250854,0.015964474330237014,-0.005200877945555343,-0.010011014268222892,-0.023629889300264533,0.023508427866939796,0.010584832553781245,-0.0014784933928404618,-0.0003258484522598165,0.017151516214718207,0.057003601926140714,-0.024515432316358922,0.005816443195690476,-0.07930508178077159,-0.009514445851436086,0.07251681216569691,0.019643666216268868,-0.004594629463601899,0.006425944952526433,0.027409058499392645,0.010077010348394309,0.008296352725980156,0.019822367113910784,6.909913097445392e-05,0.0035027085548243525,-0.0009989722602388612,0.047726399016119136,0.04915744721248374,0.0009289233255351887,0.022513107563409088,0.05441965267515324,0.0014385562008468024,0.0003449582923713781,-0.03198013768902472
145.13284301757812,1.4799041748046875,0.10947203343674947,-0.05131837107928935,-0.024231982398485893,-0.012501957364383351,0.08082233226586827,0.013016415970658477,-0.00761859475080319,0.0369394803377324,0.043167329828498274,0.01420342216468622,0.06379765551193445,-0.012039576061461311,-0.025200323525542998,0.08128628511219171,-0.08427353266890474,-0.03312105926720971,-0.023149242096866213,0.005602351323997053,0.00019230446411111002,0.006327344612588431,0.0018672293098242732,0.03725127251477114,0.021829084531660662,0.0203203276023768,-0.07502248458955789,0.07994593140736088,-0.026297745849627952,-0.0014077400010305786,0.005838102888601566,-0.0027056199996553184,-0.023907298826359905,-0.04954634448402617,-0.042612889285144444,-0.03469186775389591,0.0024396606612041155,-0.0073403993645651255,0.010487416627443688,-0.021196010224374826,0.00028822828164983916,0.043790896375218935,0.12387050702299526,0.02045900389519368,-0.012736478790149726,-0.03333880555969424,-0.025967447849487842,0.0018198422433828077,-0.11164098953728242,-0.02914968835338683,0.005304460846914812,0.007043309566640115,0.0033383992522906455,0.04337697765764097,0.014421207122118224,-0.014192567740849697,-0.018939425628383938,0.0013593255178247698,-0.012607591057401361,0.0018352371178351771,0.003638298982744289,-0.00632657598327183,-0.08188119901097227,-0.046785608384484714,-0.009776401191610168,-0.0007859443438107549,0.035963969033244274,0.045867503107548564,0.005735919996640831,-0.001813894866288278,0.02240780292727503,-0.011055779214198593,0.06528406631246006,-0.0005978226839904674,-0.07443123474443117,-0.0014711576589470604,0.00485007883539538,-5.024914112779688e-05,-0.06798112418533409,-0.030924210022482856,-0.11213411292598874,-0.07380182232593703,-0.013526668105186435,-0.0021984307552025094,-0.023251389311827235,0.04114957471254713,-0.0012326489015989156,-0.0028700180140606565,-0.019935297175475538,0.0015115277534599732,0.049445123850723,-0.0632047372900166,0.03717065413153242,-0.08365201074675094,-0.03831758092807592,-0.04578282225435827,0.0684279561379834,-0.01028480897991147,-0.003100233558234445,0.028717786445294383,-0.023926372632162456,-0.031205410486177795
146.6127471923828,3.2891998291015625,0.11018561523676054,-0.002638550504157661,0.03794725693263956,0.022794918945808734,0.06567247584778482,0.06954318028279104,-0.08922775855100111,0.017961875634434344,-0.0006629039814329245,0.060972469838529726,0.008664246561342282,0.10869345573288522,-0.02325307441692676,-0.03944346637116889,-0.05073753548714179,0.08385722591914453,-0.009020901139607579,0.029624539717220733,-0.007357949775203786,0.04968609340023958,-0.015896736974151223,0.001291402648869969,-0.029991981876310296,0.01842198758193432,0.000210983478106496,-0.023319124316277105,-0.06209055220423926,0.006702856685747686,0.005206871028163584,0.03571905768928042,0.020195954139597475,0.04814066608555383,0.0020741031075812246,0.032432303794171884,-0.05166330693065764,0.0445115433667152,0.0003377342719129133,0.006408607563433968,0.02294943152632214,0.0839391982672822,-0.003803423714564756,0.0008139515786544783,0.0520796960458963,0.06081929538644921,-0.05357390578589552,0.007668895467177875,0.005788879483979992,0.006174363161180712,0.0563738043998097,0.10289311391190627,0.08541766493872507,-0.0011792721562620806,-0.0019050824655907409,0.07640112654426252,0.0018145245440109154,-4.529745180990977e-05,-0.0002910827714065985,0.008537785147114839,0.016893605872630658,0.03590642549877203,0.02451711449235403,0.03957315908087084,0.007347304523583657,0.020030753588451373,-0.02540589122524051,-0.03317090835899679,-0.002666818226833436,0.016426407281793808,0.0141345896555711,0.012808404227662516,-0.029155413825565298,0.06961395856568438,-0.006888516616740705,-0.008432642016062877,0.009024116971736313,0.03656541480271473,-0.03958529522720679,-0.0574819158096419,-0.010563683398689377,0.020109460800608374,-0.01010142400055678,0.0004627079446933547,-0.0003326750471236914,-0.0029588207728172148,-0.05658271584871355,0.0020030269263004814,-0.024606927106267436,0.0997935784481186,-0.0960872434039696,-0.09941597018102377,0.004308884746438296,-0.018140597415387434,0.0023056603187400415,-0.020593779834804576,5.8920225598871356e-05,0.007715460500405413,-0.0005248938424840149,0.018289262473640894,0.05272374674130885,-0.021415062309553614
152.93174743652344,1.4799041748046875,-0.03640359820431114,-0.032836392487716165,-0.02401041947109553,-0.07447984591066961,-0.059798085640267305,0.08276194768918971,-0.002903172126298236,-0.013951336564376424,-0.025632870843927243,-0.01569625705037863,0.060639247617319765,-0.031757383750677444,0.044309414676760514,0.010108444331470935,-0.11577053676228259,-0.006006687589917201,-0.009041566054470932,0.05499270332661337,0.012579841759831662,-0.04164348926442353,-0.028100933060730134,-0.011055939460760047,0.03797499120197655,-0.08394589265002501,0.08100609364145411,-0.0849500031487121,0.017242591379975525,-0.1027992730400268,-0.05348595041855181,-0.11777562591749786,0.004939521880800668,0.027645710033584722,-0.017829117372926855,0.017213219486343873,0.014693290579382444,-0.031048275343295968,0.058249295158181044,-0.08300663347011922,0.053777548562118686,0.001985568479148418,-0.0026374389719785777,0.0017740406690270197,-0.030397054912824246,-0.0003347979346307113,-0.07379039077475338,-0.08790415047966758,0.04948051259057824,-0.0023836204304914788,0.006254162423038939,0.023370771238213062,-0.04961411771036458,-0.01773235566112186,-0.016658168245864375,-0.003393043563910302,-0.016412864287274967,-0.013200841716170496,-0.00022827195899449476,0.0012673861763800745,-4.030336396227812e-05,0.01771708368658178,0.05039998033299397,0.10510572120778139,0.01341740129426755,0.006719747727079046,-0.008260040536992,0.009285519656128035,-0.05977398665152283,-0.028704833729290488,-0.10758158003322113,-0.06775830452101106,0.012419738657729091,-0.04431657334989787,-0.005308360870668827,-0.0703842166531495,-0.006550609084644536,0.054784802553229095,0.0015056974408278927,-0.09811205043783686,-0.01918160025029692,-0.007851363870037847,-0.002155408155986002,0.007142303180679356,-0.00864252808648612,-0.01544684247769345,0.015002687174515765,0.015119065153716029,-0.0978911211129494,-0.10479668687810963,0.05849158824405962,0.034742795864464104,0.049035453669484017,-0.02639164446578776,-0.013575543348956554,0.006901886544456859,0.0013951247777596273,0.018808791046752333,0.049619428131704384,0.01675741629069321,0.010230559375941587,-0.026447816723507572
154.41165161132812,1.4998016357421875,0.12199719998213959,0.021274232003758192,-0.032190345083008186,-0.04809538781068717,-0.007467344790825604,-0.011433786414371481,0.0027700433047485673,0.0371141668568798,0.027897143517613174,0.008038375259818778,-0.07460460490613398,0.03523083153231649,-0.051928562140340265,0.04982092761075161,-0.049579467705908625,0.0758401725879588,-0.08479482225148126,-0.07465486860290449,-0.0049016789034662805,-0.007547221836030634,0.0006037548709218215,0.007282767197325814,0.021392478542847197,-0.014607009629503455,-0.04036387297383207,0.016496935543243777,0.03711650107695026,-0.0346799850479656,-0.005649537868457349,-0.015120773309738378,0.11937454159076458,-0.06447790281570374,-0.023118354692818113,-0.017462266315340164,-0.048436895384385475,-0.012711910817241504,-0.006767991883093267,-0.0013849907463114354,0.003933379889241591,-0.020898435546857747,-0.006421273548299043,0.029961685635562896,0.002872044119985734,0.006514806648489161,0.0019464682392456472,-0.0024833784092313047,0.060304613225486206,0.06866021635135827,0.01809954404217004,0.028868836348457345,0.06637466370902809,-0.013825441010936683,0.0005060983744839613,0.01369338332892993,0.003271092828613474,-0.023758427219953346,0.026246022819682663,-0.014894126445541025,-0.025382500423031047,-0.012561374461578394,0.09346477598772293,0.0038828109471144437,-0.047621702128719884,-0.007830360557164188,0.06327699550365663,0.006028786341793809,0.03481320272554879,-0.028440194775341068,0.014053366536072925,-0.005152996999648733,0.11362671999564868,0.06149359130578956,-0.010202773288576094,-0.01113449790414856,0.04155880454400302,-0.0073975245032383945,0.004058974648903434,-0.03463644403610543,0.0008817343179736324,0.02888281518467302,0.004157346314346143,0.0029715040132413315,0.0008172768900098373,-0.01460124831754263,0.030005197922641738,0.01958537314829837,0.006516265413612366,-0.0018477004094131855,0.008344056406810666,0.0014153789336412328,-0.002290858723913128,0.034149847960329674,0.01893211357081573,0.04886859025499486,0.019899191723367,-0.005777349291166183,-0.004405436482803553,-0.0115676301269145,0.04959640413470027,-0.10168429123597943
155.9114532470703,1.5491943359375,0.044318812118983184,-0.027286394326425444,0.04306120295621329,-0.033003431391183745,-0.029737890007742226,-0.02333431241690854,-0.0006595229525482786,0.026926074365677923,0.029270728789487103,0.008562594936824425,-0.0021205324277946123,0.022855495744069622,-0.030651020523976794,-0.09510614917590753,-0.01922276740867067,0.04902582971771137,-0.021224613185291768,-0.002741950125132261,-0.09664780764923699,0.022806169438102184,-0.029030695683798263,-0.055296848170285,-0.031709602212134286,0.0044608732041547345,-0.001069379809473025,-0.06892244156657944,0.12382527493095064,0.0014823429764112825,0.049748917409971595,-0.02041875740459563,0.0014080233441541182,0.01138289860186492,0.037619392089611535,0.024957914375809298,-0.001397930673520392,-0.005288996174182446,-0.051501686775272885,-0.003044387655999858,0.00045815770367213515,-0.053708803325986834,0.0004243291885377939,-0.036867241660861874,0.007169574618687553,-0.09480155241863895,-0.007964126633396042,-0.06840956105803933,0.022568751227771865,-0.04469371664177145,-0.016681011630400602,-0.03611770970490458,0.0021612322910193426,-0.010161877828076992,-0.0028124671122908,-0.0013058815134851611,-0.05362612265988727,0.013701222687154827,-0.0011210448636065642,0.00813054012629742,-0.001930433940250249,0.014214842936092705,-0.002122569858064416,-0.056666004799475436,-0.013230562477452195,0.00016137683543168837,0.006708393668500433,0.037444146775850076,-0.003749400751074765,-0.0015328831901002579,-0.08503494002006691,-0.11947197632194187,0.0019719434920736404,0.008739506913862674,-0.018074944384781168,0.004226899784759501,-0.015269965757556707,-0.003216582800470517,-0.019782100978449298,0.010645279478671957,-0.007872794354264797,0.030488464091364423,0.0007119521934041169,-0.006852163408864467,0.0008032193996643295,-0.008031017831728708,0.06617130254330973,-0.10176619411014487,0.024857322902642177,0.0008280588908705123,0.011157832086322863,0.014407465695632223,-0.05943581561990957,0.08491134650710437,-0.028171505657822497,0.010964877558100276,-0.0005874777002213628,0.017959261764458938,0.059088092738747856,-0.01675928199107481,-0.008917464320399663,-0.11667043343543729
157.4606475830078,1.4900054931640625,-0.11675215684750229,-0.023752025807497065,0.08719551482314694,0.0008150618432058786,0.00908192661083665,-0.008698477301872586,0.011317753417186369,-0.020195291767951148,0.09107804998018788,0.0030629674030589887,0.041346673366181246,0.03933991963628213,-0.005086189300529978,0.00032652883455934896,-0.022017289239026107,-0.007844811891056284,-0.013984397629658451,-0.003537012977883114,-0.0074305627170624874,0.008425665234138907,-0.005598884378034241,-0.02646329913211279,0.06298200645209422,-0.022354631654254123,-0.0006652975820894332,0.0012201109053647408,0.03446589791491999,-0.01106832017900717,0.005401721481524257,-0.04953435493162227,0.00335033674527975,0.043992113834902036,0.051205602910888305,0.021437684630461584,0.0746051235230975,0.0688189150436912,-0.024608985983252313,0.004111757075651275,0.006761250669878947,-0.03914208938612148,0.012333368504421632,-0.021161264780815883,-0.0007939463293803444,0.0015868946661277555,-0.0010407252238054808,0.07288339487753541,0.020837319770914898,0.006492453514599394,0.07706867149997015,-0.012351532277316005,0.002819849587781544,-0.04057516105900211,-0.04320004577457444,0.008885879621949158,-0.08768403366493553,0.021595215069656934,0.04231798021107436,-0.009664129615111592,-0.014991294451661601,-0.004194294640512578,0.006927801908038538,0.008186746923673252,0.054447818651949344,-0.02697712592810574,9.089823719024158e-05,-0.003170042738982332,-0.007788771769776376,-0.05536287473673468,-0.011630548858676981,0.029056568243509256,-0.0012719229369196625,-0.01585244039744758,-0.06464656525365917,0.014813232066808991,0.0034058996184315638,-0.006889518357879676,-0.03366737196226709,-0.0013086128083405338,-0.04408575904697796,-0.017720990987784558,0.054716900607629876,0.0026246231334878835,0.0007584828418910589,-0.013774504034357284,0.08150677550887192,0.0359702551688013,-0.05285323029077391,-0.03656342502546107,-0.061984099368166276,-0.03153861307003093,-0.06951821906815518,-0.013512579425635813,0.07278567591992965,-0.002537787136905215,-0.012864296710908914,-0.022407845163077804,-0.004034222799861745,-0.04353674856662648,0.030417809062125822,0.07059576093081806
158.95065307617188,1.510101318359375,0.06937452517149534,-0.05005703055009644,-0.005655379763476971,-0.013932086025799461,0.06712025340481464,-0.05269020237060316,0.03629273772485458,0.014236820020017808,0.0578859736254943,-0.006707997432115092,0.04777868987748952,-0.06841627189947874,-0.012199270733546987,-0.003876834313155689,0.05663197108394959,0.02816969635746911,0.01392835790033851,0.014787598344949249,0.000931520360786497,0.016572189219663788,0.030543635906124793,-0.047681545136370025,-0.02214161738951831,-0.022594839025128467,-0.01809145008998224,-0.003554122389592148,0.004729876802126071,-0.09024477546711439,-0.06254887382254705,-0.026590554585099575,-0.009883854660498221,-0.008204355852766722,0.0007839865708399818,-0.009089490280100478,-0.027551829031097298,-9.524930117595079e-05,0.025524046868701793,0.013011397708229892,-0.018987165683471568,-0.009888469059210097,0.02552062603174289,-0.008972676149098219,-0.011187142280683484,0.013803551644335003,-0.024382651782802266,-0.0035693151341912813,-0.027951020810647695,0.006516936890389131,0.045303301492765194,-0.009411077960071696,0.043150643399406115,0.01325891349401625,0.004824613520161326,-0.0012232352682863884,-0.038943684573287604,0.015522008911625569,0.0005497423523660485,0.008683085489548483,0.0012047980077175293,0.00016100719011851337,0.0006578480513729447,0.015373463841103552,0.014387256075323231,0.09055512138967067,-1.837946366420399e-06,0.002414186655271966,0.008794684773272948,0.03898662495932747,-0.00035090609127755757,0.03753980057948889,0.019434785299023982,-0.0033455431089200443,-0.04213161856493908,0.001824322567512641,0.11848379269637285,-0.04687617201680247,0.0053714064495627625,0.029275247249838453,0.0032808137363339062,-0.06208798103361785,0.002872615334483255,0.02452019966269718,0.0068147439866822705,0.011797795036296722,-0.025410452866025456,0.017425118473784806,-0.006661920991943183,0.005836406201309844,-0.08907804805610296,0.0020856622307548244,-0.09585623470796524,0.004635892266712511,-0.10777150137324024,0.004848081859944772,-0.12086650594014946,-0.03808910494068324,-0.005775277096415626,0.13294096304883093,-0.03263621431964194,0.049379351854427225
160.46075439453125,1.5597991943359375,0.048132686749062445,-0.005727551060353735,-0.007009285872133789,-0.0156010098509071,0.016138415444089935,0.10699446304151607,0.016217129770813438,0.039491650591816536,0.09381050806764277,-0.04596095814287181,-0.002895766075605885,0.057648379168231734,-0.012012656090880166,0.0019884920322019166,-0.00679817220230812,-3.2212991450161765e-05,-0.0005890039365334244,0.010013853192923937,0.007747839573208137,0.043388836340766894,-0.006603914945729119,-0.0016989016858466612,0.006182418762537228,-0.00030092067291007113,0.00027908394517373004,-0.0029777701281638704,0.008258544338678724,-0.02336268000366511,0.001351058638987021,-0.04424142462655756,0.07799377669605025,-0.0345249845051341,-0.028217419246306344,-0.018183401809609118,-0.01008689547498653,0.008248327223958294,-0.0021187283315129836,0.023992011640157664,-0.04941139581052749,0.0023352536933176904,-0.004857696779730791,0.0783223675199524,-0.0021282791308524012,0.005512290124224826,-0.03662008415053793,0.009005475934421506,0.011394972204574834,0.020009200033549005,-0.0836136000129274,-0.025208645972507628,-0.012707069825590868,-0.013791760616113105,-0.015109480606286025,-0.04383868185881018,0.008435774041068565,0.07959369244620576,0.05899815081674927,-0.052221050999767704,-0.032601130002750334,-0.032643685266580375,0.057831844466022686,-0.028879415322231358,0.07073689538314909,-0.0007778860664383563,-0.07908807657012276,0.0003786580170067532,0.026960869641645874,-0.08692695074202735,-0.01883244071443337,-0.007516942076562311,-0.00366956473331534,0.007533496764793951,0.05424429114345634,0.02738366107785571,0.004177844163452723,0.034156330117295186,0.0002763894438817451,-0.00892361664629198,-0.08688466631097733,-0.0005027572419829089,-0.032333916202791926,0.0173166786409228,0.040898361322336416,-0.03719076758137627,-0.055466085976938875,0.037728407506233845,7.885868470297206e-06,-0.006486450806312674,0.0004218318793857201,-0.0006785697716398712,0.000554582941381843,-0.0173979434927966,-0.004787247665038544,-0.00931967674707894,0.029948038365187817,0.015986309348789,0.041549504781478404,-0.04598965635855107,0.004153755892221389,0.00882477406109548
162.0205535888672,0.8699951171875,0.00896175342968063,-0.008539451219570244,0.004473192031019495,-0.026393038637276694,0.1243245414220807,0.04314898777201391,-0.06014681927057911,-0.05509026147927969,-0.014792774778250872,0.03892087295449508,-0.012991017584080422,-0.003846900977666129,-0.049276845519276496,-0.08513277278337113,-0.0877476298638151,-0.0325207590677836,0.12466300429489893,-0.0029116381918674883,-0.010148286500055224,0.014087196296200505,0.047706640118200645,0.021786821328256177,-0.04042704275105354,0.06750093378711329,-0.025068133203607287,-0.007074423343353389,-0.04043391598417781,0.019883768767450932,0.03293064326749988,0.015195975340700288,-0.00853163340304806,-0.0060503494311007705,0.027435784246292075,-0.09033011990362648,-0.018527381016296,0.10646803227934307,0.021350743185856894,-0.05254921265020468,-0.005181329902957864,0.015190695941470699,-0.041028108911350766,-0.0027038280128353857,0.006170060854374064,-0.07174256951902042,-0.017910934603719265,-0.07227966685871076,-0.005438676316224482,0.01844611431443326,0.031035499904454124,-0.012104465386665833,-0.02201530178085047,0.042620189056482405,-0.018676752448645806,0.027369115919806404,0.04060291565668581,-0.10125933478372776,0.02815585137205097,0.0034544062710574275,-0.0036939130364473825,-0.06496677493575828,-0.04936784599204808,0.018613606171749876,2.2495888984190712e-05,0.04199239900839916,0.005028358121483738,0.07424179227108513,0.016919451995613028,-0.05053236850349014,0.0624743660326562,0.005079154353835391,-0.05776232279859383,0.0065999427305309805,0.002965247004058736,0.06639812666263989,-0.09811996492990624,-0.006179240592288546,0.014759884444851979,-0.030387709271059136,0.018058671888237385,-0.03544997716778217,0.0503973266903295,0.006983760036374434,0.016975633677131723,-0.006767080369628634,0.004556257343031942,0.006281534428901042,0.014146115565725629,0.07826227107582334,-0.04532850722422269,-0.010776778281740201,0.0020346717767298125,0.00078535414885361,-0.09529646902669522,-0.0012376097479332624,0.06212182101127935,-0.010963446214293258,-0.11238654819146489,-0.03217986830405257,-0.007081079617497071,0.03566505055745614
167.09974670410156,1.6399078369140625,-0.06258545117256373,-0.1227036658708833,0.0283404663859473,-0.04996867061858218,0.055567544648284985,-0.021397476957066845,0.11104778930150269,0.008484363310583286,-0.008563408092699445,0.016480911555688735,0.034236912446342596,0.009105476660907788,0.07179207947344504,-0.05456260053746214,-0.06250798953768145,0.005500054430603182,0.00892209309093378,0.07382516453126242,-0.0033024715294504826,-0.0013275423408497407,-0.00014933872252679512,-0.0003038473105691469,0.0012811897680692387,0.04106026681035772,-0.021651916249134595,-0.005086780945107427,0.03597023903883368,0.04091298622337897,0.03410585452556984,0.02367311555430221,0.027228654181662586,0.04120933249355178,-0.05750562811883536,-0.011911109326481093,-0.009212095630188254,-8.000593848123262e-05,-0.0007756588155033066,-0.021823349691104638,0.011319584377065456,-0.006932844071025222,0.0432264632987622,-0.02144903287018994,0.0035872877800392114,0.009652471275603512,0.021623838834143802,0.029580941980624983,-0.014045938133626366,-0.004148783572686483,0.0018928026324298505,0.0017218160186851293,0.0006915121755689829,0.0001888074263910134,0.0001793966261874287,0.008806815082883935,-0.0015493752085123144,0.012288002051093063,0.009665249524048044,0.010430526520188313,-0.0004435095673013826,0.0028416630129448187,0.0003170555670174082,0.006242406662647519,-0.012149416867234848,-0.011849018708514642,0.00677788904547639,0.02516177717984424,-0.01619215263086627,0.04402480824121842,-0.03526959477372422,-0.0025436042314061513,-0.008183145275662326,-0.024346033850738174,-0.02295678160422214,0.0025272025818508202,0.09466994267891943,0.027849090519813637,-0.01928013110471012,-0.01033332277230751,0.03724065798293827,0.11603151985977588,0.02320486154275027,-0.07855336351870588,0.04106485584052929,-0.010203962529657063,0.06547455143369733,0.002100482860643878,-0.02948095229278477,0.04145237444993158,-0.010721475276227563,0.04545103438920435,0.0059451125890507585,0.00550357193550174,0.010854373841003618,-0.05693042861992457,0.097654517970833,-0.002944269114290391,0.04540526076459054,0.061801647563934456,0.08691123599746092,-0.03637867981749736
168.73965454101562,1.5699005126953125,-0.03591223236689673,0.068143776521843,0.02495820815639997,-0.08327554680165832,-0.05950795817637686,-0.028036008208952794,0.017087964712958155,0.026364527256717597,-0.01353208195402145,0.03299789411425408,-0.023921534834298944,0.031484970943205945,0.014908977576047897,0.012747545044274422,-0.081268168847144,0.028815686163409886,-0.051948315964064365,0.05239051364900282,-0.025875111760092863,-0.03641314970347327,-0.06570964272774997,0.052949562488883994,-0.07580044717253566,-0.030262163954686783,0.0060469039726115635,-0.0006175625254883008,-0.013412249454032398,-0.006269817492656378,-0.007661163477470504,-0.00030442072178358084,-0.0017441103966306447,-0.001315557170698634,0.021629650878693042,-0.014425388999750752,-0.020099357293492243,0.0032179661494434264,0.00302513171610288,0.09184821317020705,-0.01407197236537069,0.013759082546889706,4.970244059743075e-05,0.025990346812121767,-0.04979683924373632,0.010605765008252872,0.003519033647952518,-0.07746827362287882,0.03392699293992772,0.031631456817771714,-0.005932380697860428,-0.0018978451685567254,0.00646764775228807,-0.0009808488834925134,0.004756402676547554,0.002279129046605124,0.001047088594306985,0.010298941371356929,0.014943694096298116,0.030581554603660452,0.034048175027456225,0.04361739969156027,0.03140473329093149,0.03640727336940172,0.044966709726951694,-0.009094084767295865,0.00020750523553857432,0.043026404604731595,-0.009888702563564562,0.001271236445908215,0.000968930093681684,-0.01360625527856024,-0.048719611463836514,-0.04213843830317577,-0.004964843767707684,-0.01999651685898788,-0.0684952145745841,-0.008356122538611262,-0.057149540188767264,-0.02253912338245368,0.005608861879405886,-0.027186353828649742,0.013572079052331045,-0.001833723586420535,-0.029202807176715688,0.020513959414450368,0.017497293832074823,0.008271019505912915,-0.027517878740344375,-0.02544281519975306,-0.009926955013632778,-0.011350919578746874,-0.03778868910499661,0.02052474317246937,-0.04843574880378876,0.02210687680479123,0.016359860332821725,0.03954235721629186,0.010239183482597175,0.0012293924402573533,0.005894017925616312,-0.03640881991850166
170.30955505371094,1.4897003173828125,0.10625324852057341,0.024855753031772274,0.016642779150498194,-0.06915799825831104,-0.005698076897097051,-0.05611448556350105,-0.03013306987206139,0.0014100293762010223,-0.09819330141749466,-0.0557920322317816,0.011145521601868949,-0.00039338664714271996,-0.008775440992030849,-0.009976172915051474,-0.011557673862596405,-0.004108735781005406,0.006407215953105299,-0.07740206172822259,0.07682637353520917,-0.03321885525365727,-0.02287626717144422,-0.007972054614138855,-0.0039458474840305,0.0005841848969999032,0.044481666359109,0.0009914097980621914,-0.07025487571964793,-0.001318532311283996,-0.0008699906603753581,0.01197576270104965,0.0001794399687365969,0.05307948943619153,0.02512601824733094,-0.009894991940734309,-0.012669451674114122,0.00605922052977145,-0.098945478040797,-0.055265810409653754,-0.0074698606958680394,0.00023935746788777414,0.009920913163247762,-0.01133122476891513,0.0039902241049968295,-0.042660195331046466,-0.10354994112665046,0.08612591745231743,-0.0032320489029115215,0.011321605314039654,-0.01927726345841281,-0.038735655907162235,0.09069584970583902,-0.04486982726412869,0.003565313963611656,-0.01406566389157244,-0.007976648455136234,-5.578624732161235e-05,0.0015706684372987364,0.008400394033498135,0.009205335844838756,0.004130083913605016,-2.1093278300503813e-06,0.00401026462128233,0.020114013926682134,-0.055564550154890015,0.008299916055829882,0.003494830123077763,-0.07563358086618677,-0.007579452199907378,-0.05096901672896353,-0.011046553703483467,-0.017301905984910403,-0.0016793093198091713,-0.012050400134097174,0.009408904470991054,0.0024313957554373423,0.01718410544181616,0.06317833154061908,0.035042518390826886,0.011395833529787533,0.12124197630963979,0.03463340305384614,0.00021826592760540794,-0.012169101789017377,0.05513683558659846,-0.008070656409431776,0.001898793491168777,-0.011200216637674024,-0.015509456371775733,0.07864291399940719,-0.05125856389269497,0.058670708797297216,0.09409282388224306,-0.012780341882211069,0.001579336802602795,-0.02632589823452434,-0.010082645623146966,0.004304104705690872,-0.020960749163949882,-0.008729334218637164,0.012016613253175917
171.79925537109375,1.5095977783203125,0.016220204056774337,-0.004090339564514316,-0.13478226217639497,0.06412770580064983,0.00226388921241244,-0.026472265066413623,-0.1347218531987653,0.09436482817878518,-0.004052540644583284,0.012902771100043751,-0.10790164907004157,-0.0152305050314387,-0.009678876503516818,-0.035104151449274396,-0.024390779476439136,-0.02132689846683493,-0.011606783478597324,0.0011777428767009701,-0.0006190331936970913,0.009655594192202023,0.037438575658317486,-0.07443499895662344,-0.021776423229779795,-0.016018602716600765,0.06476642956244992,-0.008138099503587515,0.046622311613663654,-0.03273089151196282,0.06739048805742752,-0.005950636849082885,0.0011137230850327773,0.008532820783995976,0.00563544294604595,0.005020891551905854,0.02833532558752415,0.03062028470865434,0.1120746879359555,0.01171507064216582,0.021429313409701518,-0.06183570128068702,-0.010050761842883546,-0.01813225792044378,0.03371154033654666,-0.036512906812648196,0.003401067536892197,0.06345173025972986,-0.023501502049759822,-0.002904550469973992,0.0030246048809037373,0.027481200136165018,0.02840894431626454,0.04761843951863154,0.04078637429020489,-0.04195788146739593,-0.06666756094340998,0.044941134169971635,0.03403248546066284,0.020377806070981774,0.0026802463399668965,0.000335040981597913,-0.0017239191345592984,0.0009535016340238477,-0.001544550556581371,-0.024872864711373954,-0.03803622114635059,0.0020739694837887787,0.004718874349417147,-0.07028687348889771,-0.056691551344326276,-0.08760351805828864,0.02328340945011919,-0.039269625722486906,0.00765482951357989,-0.09384458443330009,0.003405367358694435,-0.003298027886381963,-0.002364000300972696,-0.021719031034633823,0.01331406396560829,-0.0019185047038913227,-0.031583551209588445,-0.06006607843077441,0.04775758478730569,0.02136652034106043,0.0007664991478808782,-0.024374821727592304,0.04842217654899514,0.07478833496524862,-0.02480409280455087,0.049182094754826836,-0.04319649510246247,0.034855828876623925,0.06649603203761394,0.06908081821944244,-0.026184616898314462,-0.04261229999703514,-0.003218480709535386,0.017735705545874062,-0.019843836955977304,0.08825550245490002
173.30885314941406,1.5,-0.057317832046532874,0.0862570957319553,-0.046423713831313475,0.02763823592323555,-0.016122853888861522,0.005103343033534319,-0.00449890786628491,-0.003674244904599903,-0.0076895987844426625,-0.04289905697746466,0.005164489510651984,0.004110904442151939,-0.057966754668964095,0.016171111428715496,0.0018753776780607487,0.0388978768634494,-0.025988843423723304,0.07726045110281482,0.0019144597278696312,-0.000649996661798003,0.0173957058014487,0.02535080398841384,-0.008764285197715702,-0.0272094389112668,0.06049370037814078,0.009430529398452339,-0.13119538489184981,0.004787480388057205,-0.0029522881664852158,0.024839755354353298,-0.019915555920601652,-0.04879712118736813,0.05871214209967865,-0.029783753788551717,0.05494415826272413,0.09545412277230417,0.0013328950179303976,0.008107633248369956,-0.060241383383780586,-0.04067271813144683,-0.017125934578126608,-0.002813690845765591,0.02640611665701474,-0.04030013743746056,0.004045600833699764,-0.06490450594975224,-0.0040466419913002824,0.0013373104736061005,0.01872382805231035,-0.06487791352878391,0.06840518986993295,0.02430677884461664,1.5048414844271508e-05,-0.0005330553736833781,-0.006486177847192659,0.007393809802024913,0.0010342492378056201,0.00029481682997670264,-2.9964790259672062e-05,6.530744937725152e-05,-0.00042912089108136057,-0.0015406476803255576,-0.0005968230296029079,0.0066454477823451215,-0.07360195932801882,-0.026221995151825852,-0.007140896019982385,-0.014348885165176718,0.07812779158607042,-0.03746211801317761,0.005945213973938317,-0.012629117214608437,0.07303697575682988,0.012415487489717126,0.0029512845368811977,-0.056562243112697586,0.020326613957028627,0.00486208548511065,-0.05796833903801277,0.0011195705666752762,-0.04605837106421237,-0.11068626459126998,0.03428600391778698,-0.0020160416062424023,-0.07907254951649663,-0.12507113326725797,-0.014078758613586179,0.022911274459599878,0.021168949419171572,-0.05463185651938887,0.03269546268884207,0.050758560857972264,-0.08111452343301358,-0.01135938870604757,0.08179202677679555,-0.013988557915110373,0.012347986088452423,0.02794794247846448,-0.08293560932941321,-0.00695537639289023
174.80885314941406,1.5594940185546875,-0.012995543135214251,-0.024004182327927687,-0.026870521505599397,0.037100118725498746,-0.03874616395760182,-0.016127337519656778,0.0011608277184373995,0.1121990445509815,0.025931371583300285,0.10633736248463772,0.049763006876810505,0.05132662347776174,0.0025127933397801794,-0.05086790370950562,-0.055267055825636104,-0.0365227132405277,-0.021260744930353775,0.003104559897787915,0.028496758501578852,0.07111418549757353,0.01884587329082006,-0.008847479977632237,-0.027203522134789063,-0.003475093598629008,-0.04472708734419693,0.014687928155195913,-0.06540848358937688,-0.004957290121284136,-0.047570561241958506,-0.006438697215526562,-0.032615849528151705,-0.018196116522083968,0.005806409225161554,0.024463651270713194,0.04310785741149481,0.020233427760121617,0.04597934811424433,0.006836776521859864,0.051702378152108826,0.05425325400814227,0.08028626183901905,-0.0010648334222633047,0.0007306262440516067,0.060572982996731625,-0.0072332609076202125,0.03142118530842853,-0.018917912098916276,-0.12996208100176182,0.03361900921507571,-0.049288189918158726,-0.005155810600714002,-0.0002907582604284337,-0.1149065709220501,-0.02083369719553311,-0.04686411929267775,-0.005642998231340388,0.023370695835810574,0.013158156709711172,0.009257690096347838,0.007294373099342124,0.009117282271602696,-0.0004805709895459654,-0.04313169730200266,0.004728013392840121,-0.03031111078780016,-0.007797231764850124,-0.007013555894079984,0.032168985768387115,-0.002904732266156625,0.017194053351933858,-0.014339167531958956,-0.017043982457024605,-0.021486547002148592,-0.07541877811960743,-0.005865260592726017,0.010626848656869544,0.0527202051553366,0.006959824652590408,-0.028666221614534595,0.01555653873226176,0.0029898401673157694,0.08191544160663083,-0.030489644666252994,0.05725339024871019,0.02996397376306007,0.0031716953166527682,-0.005731678361159499,0.016109784677813765,0.04749500579917934,0.008268682657124035,0.06640754795776406,0.049081985195752305,0.03550077998864364,-0.04763348004349594,0.06696086422417322,-0.026811734898150634,-0.0294805813013248,-0.00875627458946493,0.009888397947612189,-0.002917027359315236
176.36834716796875,1.9499053955078125,-0.00132673214262483,-0.0308594087781002,0.02141502765056193,-0.016536535844502535,0.00361220541547777,-0.013593511749320367,-0.00011388591867344307,0.0012520528008168673,0.014391246606034315,0.028383014094002082,0.0050770660772298335,-0.005252912430056536,-0.0019765858071033693,-0.0008786364738848451,-0.04677310643049945,0.04234630349456441,0.00040154368213464605,-0.10711454549439359,0.020246138666426383,-0.06728724620480186,0.05046838469140161,-0.03005117840169938,-0.009656985535910982,0.0740804365785829,-0.0015619116802649013,0.009116464169804545,-0.07390237616251939,-0.003889762547551578,0.0013031233103634487,0.024444270209937575,0.08068781567261434,-0.027137317660508437,0.004468657881178387,0.027170407983747456,0.038628973576320884,0.0024330704379137277,0.021648396512529196,0.05473603432498017,-0.00441523271579565,-0.050852816084609745,-0.0060176652214920245,-0.08177823610341292,0.062067802006017136,-0.016890442538376814,0.0023120825271940306,0.022156982908659386,-0.014292037702423308,-0.01822339825228088,-0.014170252578454605,-0.01198221478331306,-0.013559529008705079,-0.001482008298917383,-0.013495510690769506,-0.00795472155756113,-0.0017614991324804757,0.0050585910002749045,-0.0016144994656751217,-0.00045733462124923966,-0.002986882810843035,-0.10067782345184387,-0.010352700049029067,0.00010850983134286278,-0.007465771384446234,0.01262966804702026,-0.03447078709973124,-0.008968107231124603,-0.0356632086803138,0.03583384298194292,0.0037407713013098702,-0.05312322303086807,0.07420243140409105,0.04042770336028427,-0.0027357496050879064,0.025984035038318254,0.001197100982103438,0.0438750457308541,-0.010277399243080949,-0.008444996534748951,-0.008886497641967545,-0.03645740570663377,0.008410872035065521,-0.0003274640356523646,-0.005297885528576771,-0.049258230706699276,-0.05021346930986164,-0.05754393235632151,-0.021277595796022022,0.11493744009579183,-0.020739820174700597,0.06963118329187452,-0.032457643357660076,-0.0193752231817555,-0.022122964293932065,-0.020448039956897597,-0.013824522726866503,-0.004251896770035513,-0.00819311367330601,-0.009965975642663938,0.013582042103166408,0.04157096373612992
181.4274444580078,1.44000244140625,0.0009810002108739642,0.0940719664410857,-0.1380393943896998,0.03953083320839262,-0.031109139118049012,0.009175398933230088,-0.07680651849873003,-0.018162234488332728,-0.055112517201793096,-0.08124358723732561,0.0707970484935503,-0.08970552360389615,0.03107748315781123,0.009457065795667307,0.006371960400000771,-0.017993346152144776,-0.035072635389148794,-0.008801079754948638,0.001461175734969605,-0.006134452575767017,-6.89915041642944e-05,0.013672101705059076,-0.029573114992571883,-0.01787619414709389,-0.029595705918828517,0.1007632486418608,0.012892734245998624,0.005421287595617035,0.007274529674453033,0.000542706550328147,-0.0013776843013373523,0.005703396491003492,-0.003892313168744409,0.0035999336128292076,-0.08720418048578733,-0.03490313822479568,-0.005380118363831624,0.015737797705678114,-0.06525016714598737,-0.00805189473708926,0.031235327507992988,-0.012264159917091323,0.014640356287903547,-0.06846405090950589,-0.013853762326573095,0.0007511217538794211,-0.014258276410352343,-0.006386428054225818,-0.000740045451963659,0.026354818903789722,0.01077102398274529,0.01208473225145029,0.023542836869459245,-0.05754564794407175,-0.10334491535591853,0.01585249078981059,0.08509241787011153,-0.041227954818176024,0.052773593054508405,0.07452248446268984,-0.0021279125579557086,0.010231692780439006,-0.08669174627671591,0.032380236484584476,-0.01076743588496197,-0.015479523208785734,0.04274028234768086,-0.0008554935475288431,0.0016406076565091935,-0.03352536020680685,0.016296962193840622,0.0015632477337197614,-0.02140594820960363,0.018517093235793435,0.003770267512209388,-0.014272708845661997,0.02157914422865132,0.0251393866238395,-0.026993928646719727,-0.03620829981007721,0.054793872558983686,-0.045722658764218174,0.0049033564478219525,0.0002714444639933142,-0.0004896220742617624,0.0008809558513354752,-0.014991328662601323,-0.013946154848637886,-0.08072692771710281,0.026677990679197024,0.04767877913153375,0.01771646779071985,0.01341981243483685,-0.04713102927313306,0.10119655604499923,0.01863943688890741,-0.044581509330222716,-0.08044744827233213,0.04451889360355573,0.049873521959216224
