start,duration,0,1,2,3,4,5,6,7,8,9,10,11,12,13,14,15,16,17,18,19,20,21,22,23,24,25,26,27,28,29,30,31,32,33,34,35,36,37,38,39,40,41,42,43,44,45,46,47,48,49,50,51,52,53,54,55,56,57,58,59,60,61,62,63,64,65,66,67,68,69,70,71,72,73,74,75,76,77,78,79,80,81,82,83,84,85,86,87,88,89,90,91,92,93,94,95,96,97,98,99
16.759849548339844,1.3997001647949219,-0.2319546856651712,0.007574360006940189,0.15961975486790408,0.23413104714965577,0.2939908202562641,-0.22776715011410914,-0.10877088334522607,0.22300667408684463,-0.30306941753313693,-0.8070330880357266,0.08517613581140471,0.0011521231024860523,-0.019957759505965796,0.2690797506894629,0.060179318300209866,0.055184527312069034,-0.052226677263833746,0.01471229481188219,0.038849947084570124,-0.08291250994105047,0.049702503169634434,0.054867030512124666,0.04512549029351131,0.023194557245383055,-0.10214284090238644,-0.055859946660013,-0.0120419534779563,0.04481995805750996,0.013141966003270326,-0.01513821583081241,0.006513497613253271,0.00016753684134145075,-0.025209340045677667,-0.030973379606934782,-0.019823243885049305,-0.02109288368813072,-0.08789880059573647,-0.026151606800860476,0.06056574721072421,0.0009559340004686098,-0.04814903709842401,-0.03166345407963161,-0.08385296291078896,0.03388908426447115,0.0758153437688332,-0.10405973583206876,-0.008897086329001479,-0.04244850362428816,0.11111056828182073,0.011719982455538633,-0.03293588076572976,0.09192037591534896,-0.08788983104539927,-0.035763910902359884,0.007580755316626749,-0.044800668658245536,0.014691731926162604,-0.030040004526967902,-0.03157172381623083,-0.02594837548826966,0.03385473235532253,0.10046784170552071,-0.023195101231375432,-0.0140824764743625,-0.00674671405673858,-0.08742765877156491,0.04774585985171752,0.008915133447584747,-0.03926974361157307,0.02762145992258816,0.0014909098583901909,-0.014551777257119633,-0.002789520205997471,0.012667979955241482,0.060493274635604784,-0.06741758064302329,0.04335144355730813,-0.03578447778533963,-0.10830466970581021,-0.017277394927488147,0.009028809530516223,-0.061421947914082,-0.021909825323400325,-0.043210249921777834,0.007791847212444608,-0.06508918079771746,0.021590556268802342,0.09448547528205128,0.2772864829369722,-0.255377656627742,0.14270170787596106,0.7439212610366855,0.8995296118038976,0.20868712573582351,-0.29840061452556704,-0.003583374980673945,0.40281879965493567,0.12238654072167045,-0.038945620226917305,-0.058249049446145756
67.2093505859375,1.3795013427734375,-0.007500645966290187,-0.09933956820440744,-0.32766275985179394,-0.7867290046215812,-1.0319415877367784,0.42025929378791826,-0.11477642309894887,-0.13032095919847672,0.6274188846642407,0.32612607542362876,0.0489257033196553,1.6350611947875493,1.0532730879987278,-0.18249271679465656,-1.136106370924831,-0.07700830184599575,-0.20188879170533863,-0.03475546089564209,0.019058446975883984,0.2865522808580431,0.2816687425877003,-0.0558607968800624,0.4754459793018802,-0.15075067268795786,-0.36820125815960336,0.14175823331796286,0.8409179929293626,0.05522115110538643,-0.1749989422805318,0.2541032343405887,0.019738314107576427,-0.24619901885776377,0.10287507927101876,0.02736707878902324,-0.05116875674020758,0.008676786557621566,0.08562691308724885,-0.006439532345732496,-0.042739627313649206,-0.009702239641159781,0.0852462281429952,0.040556839895883816,-0.036432798298767506,0.05829331396004004,-0.013308438238743146,0.02031912857466567,0.07106871436518916,-0.005062819226717164,-0.008304659947528643,0.0026403675747928013,0.01349844717790909,0.10086307643730066,-0.06659501785178638,-0.031616248212210776,0.008199070565192075,0.03935037370376373,0.040374683280679335,0.04603595700593847,0.04967874575588849,0.021633107785999525,0.08555018584942656,-0.011631728932079591,0.05060354987721442,0.05669330833090811,-0.03166736579070057,-0.03802646739261574,-0.053803235245877344,-0.02682038908334441,0.06739698562984035,0.038226186629569066,-0.0013481985458756833,-0.11488166398849212,0.007591395806986735,0.10927937742037927,-0.02975546649231425,0.03613220824002665,-0.0012846622523175182,0.0691908642117361,0.017866492478821105,-0.0950359358418852,0.06149809913952152,0.005705762128401541,-0.01570712879416189,0.04392294266007044,-0.011141602360475329,0.14214503544289253,-0.04429908403911914,-0.2128911248496333,0.04063270912113083,0.010415011342885916,0.319302066612832,-0.5815577833231995,-0.04080069570826536,0.5940382730742092,0.19397567239823163,0.42769160765036474,0.6107324859488856,0.30126724669399124,-0.05211395213215805,0.25324927455326635
68.58885192871094,1.380096435546875,0.27672585459372223,-0.06588741730371311,-0.4582657576202821,-1.2444295446158862,0.24475816909758646,0.06076468063777312,-0.008728443097044958,-0.21392436346332105,-0.34431998640152833,-0.4677515963944911,-0.575231881740699,0.30587888705854793,-0.18357159666416653,0.04700112763925852,0.0906317102761299,0.01479889162946117,0.02782106873135351,-0.016387347435895934,0.029186754219651216,-0.0857222886926758,-0.21680306866443233,0.4341799821139143,0.11230233549772925,-0.10801542928368166,-0.1643435208369085,-0.14517886059723506,-0.13919951020022958,0.0982495715600674,0.001929813264296601,-0.04432010308445564,-0.034763585103449304,0.05406949996681309,-0.02080047838035231,0.051850268154736985,0.08541434507587506,0.03518348662292094,-0.054124727017621777,-0.00046096754417192763,-0.019907071767576133,-0.005128721064094857,-0.023335997395974403,0.006313828577277719,-0.003684480800094028,0.005921874389972111,0.12547323692149115,0.02623670545125624,-0.005557116349332231,-0.10044037127953087,0.10299482835138539,0.05395992765971206,-0.011969848714250424,0.003320602881490747,-0.07130184958588678,-0.002796363164948125,0.12330258304632787,-0.02018592901320706,0.05814774497590951,-0.06547050539009902,-0.048924069711124854,0.04216240506262154,0.02579130040704199,0.013126721319124568,-0.040712435099944926,-0.01263626597986579,-0.0073680706947030425,-0.012159739229783174,0.0680234966907774,0.01261910824760865,0.04650390430478836,-0.022920924484132743,-0.025451519813966355,0.06945789994170784,-0.05863457649480229,-0.07348296109071407,-0.003440152341300854,0.02703888651244568,0.027055494179870236,-0.05724077717468466,-0.05726282249291258,0.020142095057011204,-0.06836170970000059,-0.04925228906976326,0.04539504939012675,-0.032261651894905534,0.04923977952597928,-0.02321969592726878,0.010542153026965331,0.1622818793287653,0.18446078790819495,0.03731414704926163,-0.029628048341073826,0.17321889969776266,0.21239271468279963,0.5216621998228574,0.05075763120623802,-0.04281185886709217,-0.4223460577753284,-0.041061051469717245,-0.12054591344189136,-0.10736922667964272
69.96894836425781,1.3792037963867188,-0.13839755845687618,0.04056030161074041,0.36506185266207014,0.42954425806284535,-0.18233728361614887,-0.4961101946880633,-0.19857509693693878,-0.5231467677812013,-1.0164742392596446,-0.40102881271327545,-0.025342526216852623,-0.21671244491783184,0.2560587666660593,0.06750222466725188,0.022433451511188876,0.08751957413304678,-0.1241782022813011,-0.05883678748121046,-0.03559295517368249,0.13688007527981624,0.16954527976316203,0.08818307478573373,0.13240116295660356,0.0740520209592525,0.015955439761971446,-0.09807621449219986,-0.03943962675735063,-0.043418936826241636,0.010379810169451407,0.02359057385469697,-0.07241385361211958,-0.019819953993569468,0.07043972923056709,0.029500977820780528,-0.06659825207556283,-0.03976250305753895,-0.05769135093373575,0.01910644866173332,-0.012432545602752573,0.08361192742366742,0.012145246647996849,-0.044242428221871376,-0.06653163121601562,-0.012752381347263671,-0.029374834933431827,0.04143196642272969,-0.023697462954193175,0.007988454487240166,-0.04272214890302783,-0.06940740269930049,-0.040642747285234676,-0.02836336193609698,-0.0018904927297999825,-9.232971696104407e-05,-0.0754384536423939,-0.060492985793074654,0.06742085173569584,0.03963727154249742,0.04443692270320368,0.06724976328963173,-0.016395881157617247,0.045345944041677244,0.0008368024028536252,0.003935574395665292,-0.07674011841048912,0.029541403217680742,-0.014017353680811504,-0.056279343188275634,-0.01994659705496383,-0.06410640291414188,0.002605608210718836,0.10647879529249164,-0.034285838417373246,-0.034476762872223024,-0.07496184696344232,0.06640673972222585,0.04311704553047617,-0.015751828795259604,0.09650846459247134,-0.04075713920907885,-0.05436577349269124,-0.03459624290421582,-0.05768176729643915,0.06639657334669986,-0.01300810243711113,-0.08906536756857489,-0.0001594969778016958,-0.011503615456241902,0.1480055271733403,0.04967566291774941,0.05794326855152554,-0.14274102936479427,-0.029219152191951984,0.05843208257605816,0.22180717752078663,-0.13824641872529614,-0.04250797100383284,0.012384329137855421,-0.3105967041790002,0.14288870263129683
71.34815216064453,1.3700942993164062,-0.125079381332388,0.30085295748375285,0.02895028819618692,0.19521449109442382,0.12551924668954426,0.2011703780036708,-0.6168361302569733,0.26961860128694337,0.2545928858388122,0.3278734679297273,-0.08849227528970206,-0.17900752253381405,-0.2645290940819939,-0.10565853425098208,-0.08982471069758206,0.006669582987103462,-0.034861585163766695,-0.051781670693962376,-0.04216869655382132,-0.011461164969663568,-0.27679161473267067,0.5040225220821889,0.2602109898105162,-0.28389133211059714,-0.08067023538525486,0.12204246349097561,0.0678311976818256,-0.22430016240299547,-0.5340917975548661,-0.09459725913171664,0.19239336243206023,-0.3559549272280108,0.0776130035643875,-0.1132571883948919,-0.011474772101370226,0.008784264261194056,-0.03309273843413495,-0.0855125322555058,-0.022456456381632513,0.01351176838405108,0.09418266400374035,0.010577068813389434,-0.04170079244317762,-0.066026143838558,-0.029189156851049676,0.012246682393606734,-0.0008258977232644474,0.09302736661620377,-0.003949229091747591,0.011697145424053106,0.002095905775915473,0.009338026078781883,-0.001645205632585682,-0.011987051955956349,-0.002036806618050541,0.026985675953098136,-0.0389498343018538,-0.008750716714633911,0.0015606331332884613,-0.017211396171650337,0.006881297812006665,-0.07392129388357557,0.10711851637323729,-0.014762355818202965,-0.02719617090452679,-0.019221943417992868,-0.03391632690592924,0.014567584993331616,0.01995056407983314,0.0478590218831829,0.05637182788033162,-0.0943619274360815,-0.0024366077795385426,0.06884282800690053,-0.0310172448902094,0.03681569577489256,-0.06558080553587843,0.05777421259558326,0.06506821778128657,-0.02701037334517379,0.05866948927426479,-0.08581812500880007,-0.04653325148503484,0.12302500069371797,0.08296877326939239,0.015442767350599655,-0.026366530567006146,-0.1532513527895916,0.3487140854476108,0.07357997653865792,0.013345021507527557,0.1853655432398385,-0.22886636884104722,0.03721213145414076,0.04736412733651422,0.022411808737750488,0.01975018018254185,-0.3209511682590224,-0.4544512367373448,-0.6761822697085298
72.71824645996094,1.3600006103515625,-0.651126627572225,0.10827988139948248,0.043592526630582024,-0.08724147458554841,0.3102018805371438,0.16067670547326254,0.04890274724385017,0.08945558786384042,0.508933605756635,-0.4957234753466426,-0.33783094631008515,-0.3767681228776997,-0.345290362197416,0.34047106701281704,-0.14243199013820165,-0.08693109013592026,-0.09328937250555815,0.003766492539775672,0.09392195889464633,0.15631843414148153,-0.009372291384893762,0.0011601909197892874,0.022085634520812775,-0.20722032596688555,-0.20468200689092425,-0.07769569141913533,-0.11307212117516685,0.0965093722719768,-0.05420120026309194,0.46173578111673275,0.11073521081858881,-0.02680383506127703,0.015251805844587029,-0.054518637539212794,0.008130689156129849,-0.05291022383046137,0.03912282251163988,0.011980289791579708,0.024963749432447894,-0.006903700495569482,-0.004826772035246016,-0.10414913501437273,0.036615598949256346,0.12865813932394532,0.036922943362547554,-0.01697327161900974,-0.01593140070707107,0.021789401057940676,0.0367667795488225,-0.002447217487263606,0.05511808759405497,-0.026945619271730892,-0.04275480747708138,-8.097412218514656e-05,-0.025092092547822492,0.042300474046422065,-0.014344739410929737,-0.045835122130959104,-0.019184450984380458,-0.033451449374153876,-0.06451400162600307,0.05906842370627879,0.04803136816306569,-0.0021664758029353902,-0.00913862006659565,-0.007609485426742008,0.007766452339152034,0.0861014135898586,-0.018192182995595906,0.06416067526381247,-0.04003878512398544,-0.0021483568425043065,-0.04783986199618693,0.008583480879222005,0.13229237792323548,-0.05350253163568494,-0.015600749716146712,0.03463693940293669,0.048082186727817534,-0.017976404388269994,0.028147960020402558,0.02613344374230306,0.07099796424799079,0.035953806610185934,-0.0013592564730308624,-0.0725251552024487,0.01444045725011231,-0.04547009993028309,-0.3677446851199521,-0.0272279766841659,-0.32685121531815353,-0.06373813134995407,0.23001367924375352,0.0382151289808957,0.3245547775089488,0.07269207057533653,0.023342895192785724,-0.14777408476419426,0.13721099959785962,-0.08557334156834087
79.7365493774414,1.4300003051757812,-0.21589931075118332,-0.010158216508563411,-0.8892161863776616,-0.19380161889417746,-0.1194854473181977,-0.053390465533839304,0.22847748768092896,0.030049483754925554,0.142800339325185,0.5893427000163661,0.17634735192973902,-0.45447109197485763,0.004984669860319237,0.10818958849078633,0.10245021778344406,0.09486625722900771,0.607167651958741,0.87629234687522,-0.2202227554113342,-0.011993696864235251,0.0732271681396819,0.12176168071965908,0.6173419702355734,0.15863349475484378,-0.32810572874493643,0.7628844163632729,0.3497371750616739,0.3481288042295206,0.11375868321488289,-0.08271968449430518,-0.3216896057846202,-0.25055750971566687,-0.1316913669774642,0.02425714114771806,0.024539610331764043,0.06579971241633112,-0.004776360185072662,0.012950560295090471,-0.008358026444373806,0.11029915227796833,-0.2517692751738482,-0.03715061379110564,0.014491999833316956,-0.00030427271966992605,0.18573274100661052,-0.009976314776519685,-0.003714515672701535,0.015239094697207661,-0.11065081925528736,0.07041299643817009,-0.042292989244427634,-0.881638402895803,-0.1173635102224452,-0.04693016708946627,0.002688534588041989,0.047056503821549266,-0.08154307896233495,-0.0065048090721445285,-0.06753546793614801,0.04068917133746436,0.1239372499285751,0.043759176541271344,-0.031682772930102146,-0.059758792954924665,0.005698009396068615,-0.1291926537425339,-0.04004974286576844,-0.07475045838563037,0.008947883537560231,0.023435618513303946,-0.03662727056783224,0.014736867375353995,-0.06719216095285387,0.03240679216068429,0.07949372508571631,-0.07395079947198918,0.07931040257802889,0.011755347460506946,-0.09247736811202971,-0.04920462340960192,0.016440502811994266,0.018263700540738566,-0.06283598099710146,0.018571885067624985,0.01400970997773645,0.012787319920753125,-0.033010663315736426,-0.012674534415297797,-0.012940346054751636,-0.053056099772117,0.005306154121752823,-0.05890453608206091,0.08820264083055138,-0.39616626928578036,-0.20969154738787213,-0.3370237928485386,-0.02931467871603217,0.37644468142578347,0.6655094181601507,0.12042868855794436
81.16654968261719,1.3897018432617188,-0.16092851859016366,-0.38588610524420164,0.15234071043501085,-0.7522662206736951,0.9518140633942417,0.8504436610567242,0.10090758051411525,-0.13764815098220312,0.11692390797940999,-0.5958827848470253,-0.09388751145304133,-0.02309721077979536,-0.09798532557190265,0.4090484945782084,0.1910119718421442,-0.056390969566462244,-0.09562597820663721,0.300856209800152,0.24834156928780532,0.1253252131623999,0.33766352127192595,0.16234943973362043,0.382991227076386,-0.5313444955275485,-0.08325398493669475,-0.4376532704593652,0.3139687390766384,-0.044341322348151344,-0.8600803666797805,0.09488373043869174,0.10014077751040876,-0.42402219260468027,0.1322662868113496,-0.1220713951883384,0.010017891604769028,0.08750878005876389,0.04312216579751213,-0.005103994527095673,0.05439627252588726,-0.0225128247895055,0.002499243032277259,-0.049968313921975774,0.06732722697822328,-0.012557026926008179,-0.0010195921531369477,-0.021968161565694533,0.0469925670796847,0.016195814547037626,-0.02007790256722517,0.0751451742872926,0.1370395974071201,0.0957912640834648,-0.02278204330965549,-0.011961648759487029,-0.05916991965578817,0.01712619118145296,0.03889362889791086,-0.01236913756711341,0.12059312045264406,0.05474401924049674,-0.05949512083621387,-0.03120193479625101,-0.037507559192057234,0.0018327264402130691,0.0471565553256695,0.0242719016194772,0.02094650369111545,0.08219510114764894,0.006925498086157889,0.029692731599117818,-0.03393922406049813,0.05100445052045997,-0.00920993223400892,0.01475643793853249,0.05375693124223663,-0.06276744011269066,-0.006005224720027015,0.025799014566737312,-0.09108782441812907,0.019565468236417593,-0.026618299585267183,0.018592996616698547,0.024473867522572402,-0.048911609087728555,-0.01128011462192944,0.015434902506134905,0.021410547050547565,0.1502846755415452,0.2098538221126859,0.49150143825149734,-0.21887823148849211,0.050268643413399615,-0.12403140119650433,-0.15513078036674835,0.7730864492415023,0.9137384378092777,0.27318581111255946,-0.7333566713916317,-0.5915514683456953,-0.48591332064700193
82.5562515258789,1.389495849609375,-0.21983404096659515,-0.8985867691870655,-0.7989471801284566,-1.0420728114685673,-0.6136699665581695,1.128233077251915,0.7370175579568911,0.528503278713108,0.24753772910346036,0.04306433298312039,-0.08939121279154882,-0.7686951832101487,0.3302671446315338,1.0519206232058944,0.18276358218354216,-0.016953743421400866,-0.11937152959163927,-0.42449896084252225,-0.48116884158218987,0.028268731110798972,-0.29471016158434615,0.33957733121042777,0.7631839022831898,0.033790400177258414,0.18248360697030497,-0.2763171192130469,-0.08515700453003441,-0.23479864480133067,0.16308838172749873,0.22709629768228234,0.02960028864700684,0.20410871022550373,0.1494918658070712,0.04411366793314535,-0.09984361417325502,-0.11923306566528873,0.10300232565627299,0.007675566159373524,0.007236110215041437,-0.030384020638255942,-0.0668617623495862,0.08000358833672497,-0.0006194267211771466,-0.060230869960228306,-0.06167090610978752,0.009483103359275087,-0.06150952524185255,0.011550980354891344,0.03417374129125297,0.1700985443534552,-0.024710922838628187,-0.022200629134649277,0.0040281067034814875,0.011726547545281442,-0.049637700891087835,-0.014248906944519232,0.015999462192639965,0.043768016123511194,-0.020581458094339113,0.03764626940177014,0.044487144863226066,-0.01998699070901633,0.0042610813905929286,0.056060325325786045,0.010291933224488464,-0.08366816486754024,-0.14119506315882044,0.027954002440285876,0.12673624247573131,0.014483560564908429,-0.051407844060758254,-0.03506491830888773,-0.03450333642658819,0.10435450385254491,-0.08550773952597943,-0.023143991285263812,-0.0666554584859659,-0.03437979029741834,-0.02880341508764795,0.0006919549284042847,0.04715984245213481,0.016223075799370126,0.037068500104329105,0.12779619623886335,0.0031189465390780435,0.03594307006000354,0.07001929289503447,-0.0721854161799991,0.08695218066920214,-0.5438764888092231,0.19834906249426004,-0.12315536521677614,0.0692694343569664,-0.7466803890422182,0.1252966838182349,0.20839806925765827,-0.033104187978066635,-0.05898661807261086,0.8657635166351145,-0.10403945458091629
83.94574737548828,1.4203033447265625,-0.14624582893594595,-0.43307224498559993,0.6907572518992361,-0.2022480415844687,-0.27695138293786753,-1.3076908215133167,0.03094081001800427,-0.6058156451589434,0.726014817807475,-0.7737824038760016,0.29417850120523487,-0.15458260150321454,0.5829710747655118,0.15417197208323283,-0.07238146212576994,-0.07094996603984184,0.12217467423458116,1.1602544197459181,0.2278071122565722,0.40684765725078553,-0.1124534434190656,-0.2600365683456777,-1.1023065347016554,0.03260719683254583,0.12772368092567493,-0.03601398258861229,0.013718671357651535,0.1651332660620093,0.1611933297118079,-0.15867091118191604,-0.016372772699718957,-0.10296868294986017,-0.08540927282478397,-0.009657061923912552,-0.053329023534252944,-0.016094230812709595,0.05518201786356617,-0.009623549580518935,-0.023578527708023655,-0.034984194602194804,-0.028130206159470025,0.02007142885799718,0.01823597609156187,-0.030369256189262252,0.02082187644598055,0.08889264276149786,-0.014735376424454045,0.02365937048434828,-0.015686612570150246,-0.09410422580737013,-0.33124919760929905,0.08262045579194477,0.3271645137138863,0.29937013432752185,0.03735788370821056,-0.016910962470596654,0.005268095354682655,0.03221105550386516,-0.041750180484921004,0.03382469009012886,0.047171106241752594,-0.04337170174518612,-0.02852161108420767,-0.06956881034797255,0.007249471505716303,0.12255564490584336,0.013806785584783826,0.04246330645332051,-0.07049999441986128,-0.03411016848628588,0.022690153677267746,0.006190627355684018,0.062100038983993966,0.04188691660693591,-0.04993745929637229,-0.07776237634002861,0.023005974537478588,0.02072717214052521,0.0440975929741074,-0.030953940904386957,0.031778294699772225,0.03822858759496196,0.024734831323460216,-0.010021344252923373,0.0003824361774087807,-0.10968653890079649,0.029645502545383177,0.14061267567009025,-0.04471515059343355,0.11170623293636775,-0.1291139704558507,-0.10116898923024804,0.11819336284756117,0.11094713068940834,0.2048126036268741,0.28640804516388135,0.12987441047652035,0.6035103112686584,0.3430774572534243,0.17191107399001862
85.36605072021484,3.0788955688476562,0.2780819470437244,-0.010851902582255296,0.35053196599419845,-0.30107723109813134,0.45889830727929626,-0.32803714603761197,0.28922359227824174,0.29963941489124135,0.22529034193583766,0.20715569234100556,-0.36679229206297687,-0.07512036878834194,-0.3070336883604366,0.5151711842927804,0.29009685001564783,0.1395782093433362,-0.11058987663659642,0.27239112955411754,0.7303859018514387,0.5112399778992347,0.06997351530333253,0.2264111428874968,0.8847707950496848,0.03315872947743081,0.22402341768251913,0.11777198748934631,-0.08399927244058114,0.11424344987370104,0.24004673635067325,-0.04039355134186538,0.1030745068154601,-0.10929531465188558,0.011473017415158259,0.08851620205409816,-0.03284533089588668,-0.12269737644902873,0.09578573934634298,0.06917567215784151,-0.023576788351058524,0.08232727165429037,-0.05090013755450375,-0.001752225781953974,0.0020313460108357653,0.02615076363606589,-0.02783381581282532,-0.019372298039858377,0.02184145514663441,0.11303206040490824,-0.02150586172271126,0.01282619535559025,0.010179512242338236,-0.06349398932887011,-0.0010942076347098654,0.07024396955073257,0.07203551553465305,-0.07209407523294166,0.024758019309533627,0.028290253480519872,-0.05452432464159024,-0.0653297566966939,0.04135520615947259,0.08585461381914641,0.11272460600560456,0.016686460140727177,0.05436663480260237,-0.04651338951615809,0.052641816189527416,-0.008112349122357199,0.00891731205246308,-0.020337510402314102,0.0404882356971939,-0.007762048258294985,0.029560782655563583,-0.1110597388446854,-0.10477904956913837,0.04888185874959538,-0.07361146746918926,0.0011206363691685052,0.11748172617528706,0.01605587940839992,0.04379944909697578,-0.03866672232224419,-0.005683174904932808,-0.011774667488733542,-0.03277869662499188,0.014554227595714035,-0.019237216558301337,-0.05534521730838118,0.06155994885031957,0.01934643472189865,0.1771385956079516,0.12152105204773085,0.09490152614467362,0.26207031408210607,-0.1970482374137623,-0.5700816622631776,0.3779451150510974,0.038206046595828255,0.049439966695645245,0.07294852705199878
91.4146499633789,1.44940185546875,0.030000413199024828,0.31650998541490216,-0.15042908716615744,-1.2200152740631827,-0.9306162611241238,-0.26637294810646983,-0.5142537236524882,0.23513019685853548,-0.035259793014242126,1.5628586509559852,0.15706087325422952,-0.08490251274420371,-0.047758932410709165,0.7117767406584181,-0.06663675653105039,-0.16252944183234225,-0.053547006862612254,-0.04910325045293787,0.009790930397474333,-0.09802572637250247,0.013040071067767871,-0.14130606617673946,-0.21248991275040682,-0.06550340904485175,-0.0068596950930393565,0.08099937260276815,0.035386643205368086,-0.17500376927944616,0.01968550346768791,0.03843784182553238,-0.08558853474317409,0.020743275100848453,0.00899576263891326,-0.03992110508694601,-0.02507692818327119,-0.017818978515267054,0.0029437075455950165,-0.04780598636183235,-0.033015433550691364,-0.01495526866384168,-0.005525639537537087,0.018508412509518,-0.07609928749468076,0.0328509540562475,0.001877586479805913,-0.11151133126593514,-0.031651867713126045,-0.05183601290443253,0.019841357209158902,0.0443065226686755,0.1672859081848466,0.032553847252317934,0.014378620040716364,0.013339236760014228,0.007532874364535774,-0.02379313015624601,-0.02477052684495647,0.09764655122814296,-0.019594900261280593,-0.017870406773605685,-0.021772984683281205,0.005494979481459369,-0.006253329863797306,-0.10138416101772643,0.03158462161874616,-0.02958283785789581,-0.017998625213987512,0.061219555679887024,-0.0016725069619842308,0.014556384136174752,-0.0006453116904986955,0.04324053152429361,0.012921737110169786,0.03213842193425779,0.026292762946874555,-0.020522208001195905,0.04545247112171645,-0.03133918129168205,-0.05674008076668286,0.011706469399660732,-0.005097922024116857,-0.009058721306481485,-0.09077020563083961,0.0025288578086696935,-0.037175135418087986,0.06123457448884574,0.11433119588221292,-0.046294284031485305,0.04871788916337088,-0.027145062732124883,0.022434123600152556,-0.026520465207555483,0.05560942244703849,-0.4979746392672252,-0.35585923989077256,0.0683208363372455,0.18189978318069105,0.3037482096602434,-0.12592422073937806,-0.29373123049247324
92.86405181884766,1.4001998901367188,-0.3087994224048608,0.07476827492542223,0.32012068548866096,0.058122210384958684,0.06749419552770829,-0.1609923285322526,0.17335101952461496,0.4025323721920953,-0.13460659462407584,-0.2439264863730165,0.42968767872100627,0.09527478890994526,0.1419925056653823,0.270669142500573,0.09448534587958367,-0.253136012771399,0.0024026473966478152,0.017684325113292494,0.03501642299040574,0.0894186006556751,-0.030166144887700128,-0.10323047130733748,0.5008398082684028,0.6085026459382636,0.1674655946951104,-0.016988598216019786,-0.15000535842904428,0.16322850085557405,-0.008045292992677576,0.07077600469299418,0.039707333241535164,0.10078366438089714,0.12630551394454334,0.002485900582087368,-0.04889303310810793,-0.06157063516581294,-0.056086879565122046,0.019807439838461945,-0.018008825922457696,-0.002142464310878764,0.00247783228835373,-0.012457085636032487,0.07046660197535955,0.002076879693334525,-0.022751511242984235,-0.018985932241365563,-0.01149700552746534,-0.025717482743880766,-0.05539324663906784,-0.12114773828206413,-0.03194628801189919,-0.0954491835027042,0.0209140437158572,0.0024197804448056475,-0.01362573265510784,-0.019100037479491676,-0.018050425608160798,0.09455247808456299,-0.006178782387376153,0.11240491355941286,-0.016960969079253492,0.0191137389129243,0.023261489333941024,-0.04293888531483531,-0.022140123150034916,0.020324801733327166,-0.020130428984504796,0.03276077884994569,-0.006731662942590166,-0.06470787736026799,0.07823593155951165,-0.05336495377978481,0.01735575172876696,0.04328700990747133,0.0402127664160927,-0.00814086554242438,-0.04013761155654816,-0.04388958342366036,-0.006472936208898498,0.012923986292334875,-0.021292710712956908,-0.12976954087986903,-0.056693390397839646,-0.05700944450641682,0.016497870163005735,-0.06600426573758636,-0.017942871446983626,-0.08614085652774758,-0.03299050241340527,0.06409488503726324,-0.03645125801940929,-0.07275594322191972,0.13806928663842838,0.3552101372198608,-0.03573090196823011,-0.043922636263627246,-0.07360930327488834,-0.2812879107175307,-0.30187313969307383,-0.34752837467453956
94.26425170898438,1.3694992065429688,-0.19529761578001809,0.04455517913073365,-0.028390814715464757,0.5430352509805375,0.7516391222368888,0.5078543912931499,0.587019478198095,0.8675468117995546,0.0634265495825898,-0.07746736270830112,0.3373544460410833,0.2990616197806533,-0.0940874307217506,-0.7548370358482905,-0.35175773430406004,-0.007343701126358196,0.03587841486901211,0.013577213334220614,-0.05866513031790897,0.05047686053350996,0.12336170345487853,0.07214367166843376,-0.005464427327510235,0.1310743862381908,-0.0832317975684859,-0.06599776685426424,-0.056199639299059065,0.11551498106784264,0.07920604462858055,-0.23826652320086397,0.012087070383537523,-0.10193057951287528,0.10938389224830689,0.06438279351454225,0.08604154183932716,-0.12589889493697365,-0.021330965735573488,0.0392259981330947,0.08168927748637549,0.012930862077911262,-0.010623672193312145,0.10293907734161979,-0.11281023161440114,-0.08377727361362838,0.10969298327433472,0.01763893908684994,0.044076167794553436,-0.003183673149041882,0.0661726575402318,0.03509137648680151,-0.008510298712883526,0.08832410222279465,0.009248103750754723,-0.02398191273430302,-0.12762906291306,0.005399052712926915,0.081543036453257,-0.01808188292674083,-0.0016322074245395978,0.009156057783496038,0.02441666057719878,0.0675987534649931,-0.04148394296035791,-0.0020223659742281963,-0.03228380015705167,-0.06493910836279734,-0.029289114064502113,0.047080288645153796,0.05590588612819894,-0.012035666621521293,0.032811774579385417,-0.009098699439987385,0.030798933134518834,-0.01712028733119443,-0.016000924004986344,0.07300730094714997,0.06822858104767146,0.03931372369142545,-0.16635473517000482,-0.026879746407298653,0.06872740942123823,0.07958437741719439,-0.05356365121947986,0.05620176875031422,0.01413611568428371,0.03363494192158882,0.03437652046479456,0.3050366784724738,0.20220113672815943,0.25421422802620447,0.0005993037269267018,0.23974320903996155,-0.3141272526841834,-0.822915022234227,-0.5908557116333885,0.0634567694809741,0.19346246666987263,-0.32967186368061685,0.39706452160460964,0.1936410187345044
95.63375091552734,1.3498001098632812,0.15984111837560977,-0.18125619595591744,0.3034065120891328,0.45379791508593487,-0.18762609271774833,-0.23722453744244443,0.028829492865579363,-0.14603386416012545,0.28723827996443096,-0.011767747336136725,0.027333207749821748,0.07686938903370283,0.09244028252809498,0.14608826384355986,0.12394559101024646,0.005020106147596886,-0.03240013777436033,-0.02431501637380011,-0.10003576219653854,-0.15498118949811304,0.1127391614711045,-0.029839493740072567,-0.08945452960083142,0.044040855442214207,-0.04255438038131877,0.19995052750965503,0.005716205623358034,-0.030623662434111985,-0.05488778935220558,-0.07457938665675051,-0.05932464480902551,0.08666162587338147,-0.014683288421718056,0.10006891171934319,-0.03549236487446272,0.014399664041463672,0.050926983485116706,-0.10606733555744993,0.01207934265511864,-0.020279892683060317,0.0068526808429599136,0.002698828254510169,-0.05918475649555907,-0.03680995198932851,0.1283491262440203,-0.012096849669935723,0.02027446079930602,0.006917419436907906,-0.005198413819267765,-0.005836614211587848,0.0014196706211719382,0.004437080162390385,0.005240991027039957,0.05354960709280718,-0.035608374652402824,-0.07585359578477512,-0.025821756457812692,0.0010798714219258246,0.004682895166366484,-0.08654262315602523,-0.016823848141932014,0.03678922663240909,0.013445522337041578,0.007481315575598575,-0.004929882887777114,0.052664306615072716,-0.015690431758340034,0.005445337556636003,-0.07836125469188544,-0.0022200586796214342,0.04543355998616962,0.040041570157188025,0.04498286858971973,-0.059514482553904145,0.03442870101611869,0.024136002317654934,0.03942345316417869,0.021636362465839262,-0.020403760759388913,0.05909901336266621,0.04994186234547771,0.00034517095310266754,0.014288236510897903,0.033354497074410114,0.06895786279257647,-0.005074440609888542,-0.05732505703855906,-0.24567422605384837,0.07657401983690301,-0.19311386585397236,-0.20369267557552934,-0.20056275231222867,0.23923502284198922,-0.44492308299543604,0.4082071183338456,0.15067654414670933,0.1946656519031869,0.2768294678628309,-0.10786021593992495,-0.2799014563791599
96.98355102539062,1.3394012451171875,-0.15089890879517698,-0.06568699124323701,-0.0612515499688126,-0.09083028102522744,0.2177405954537736,-0.3095828867570695,-0.3400996082224368,-0.2971496878193436,-0.5770261703293984,-0.518660125776348,-0.019682379465516157,-0.12466573665579724,-0.1466221724369578,0.11483571832243823,0.3647446658398831,0.0670926398200729,0.23603357651788823,-0.16156397259619326,-0.09917682817753447,0.010118617751321238,-0.1140404927553679,0.258732425414407,-0.12441228664419705,0.0782053544380027,0.04547990175723208,0.00048518642203437823,-0.038521113768005946,0.0018828803508164828,-0.07082901557405284,-0.011366634179177625,-0.020528258558793314,-0.09520440964605004,0.07831849743429536,0.029549402395737178,0.02842533355526243,0.0359545536849544,-0.015398758471446807,0.011197109243085663,-0.008423583364961483,-0.03238657167769482,-0.033147486248516614,-0.05567733657492224,0.02970127951583319,0.006438308579311378,0.012060655735046562,0.01565615750674072,0.06017331884782326,0.0034087458856469563,-0.06309004319374803,-0.12577059282442907,-0.04944216661704948,0.0047870680039985925,-0.06488842094589932,-0.010015717061099577,0.06973390847708512,-0.03191022623809884,-0.013313602004821623,0.004030717222305401,-0.057000674729178996,-0.024076291802028978,-0.0807603106692429,-0.022305397285483683,0.011512337122993294,0.032168278122791535,0.058044021256631384,0.04945307631826684,-0.003993934396055256,0.0034914268377463685,-0.05251767461023703,0.059667083951577646,-0.004094564405687992,-0.1023535381791435,-0.0816703365104572,0.0818083708827298,-0.05117151253461123,-0.019628442252770863,0.002833305253332613,-0.027565366429448207,0.029740875086239568,0.04956003675265758,-0.09443734661813578,-0.0007742063391103683,0.008233113636659087,-0.04198939268951612,0.09725029465728419,0.036596856637113775,0.01082608973874514,0.20812064165349822,0.1388283127692255,-0.05040972400439366,-0.12564804247336164,0.11320980478762264,0.775927298762127,0.25602619879907507,0.3911705359502785,0.11006420494112505,-0.16637581143202523,-0.32607739219358434,-0.29537626205821654,-0.2548807437865003
98.32295227050781,1.3702011108398438,-0.09073730633582248,-0.06287085400418799,0.2995396673701192,0.0627623885814595,0.3889858955121926,0.1202848845178367,-0.2481681476823033,-0.07995928331732576,0.22005466266806373,0.004724501911054037,-0.06536477576955481,-0.11505580908609161,-0.03459367050030052,-0.10338883024532626,-0.14847845740291513,-0.01693986485472622,-0.08672874689053287,-0.07220401594131316,0.017686777947513103,-0.03934141551474745,-0.02448262939238002,0.05935422474116969,-0.05609524674310256,-0.034604794028366026,-0.07254683530141859,-0.0020354366890228443,-0.039243321350004245,-0.08101059779357497,-0.0030568034544432555,-0.006299129274141203,-0.09178534136006168,-0.07315631276325789,0.044658834022200646,-0.04436886885108447,-0.08365974656169252,0.010149082888239095,-0.0076032921703076415,-0.016968894059238588,-0.008907642774568104,-0.06359318750459672,0.059714278768460353,0.0062514293793286225,-0.045970144460103536,-0.08498822513412271,-0.010580194940614723,0.02868362509095484,-0.02141032028213375,-0.13558529814277118,0.0017044750477921622,0.054548830057036715,-0.014717675430867537,-0.09573525042181834,0.1179889220365709,-0.038575112796715556,-0.04120055873290626,0.05082410706420361,0.012129743195206655,0.04919822496422793,-0.03578799161746641,-0.09732979575785806,0.04987826998879473,-0.05541738840024146,0.1064218497475363,0.028906969623311147,-0.0872479777188206,-0.047961950348635554,0.1800332332435418,-0.05467386637492947,-0.015018909377687148,0.04204211563740955,-0.04516938991396126,0.032872833933965964,0.05444514357048748,0.026668398436528462,-0.012146765898460624,-0.007571624713931388,0.007043382512963806,-0.06641926200605085,0.004751085415473489,0.00889165790953387,-0.0010599318323167694,-0.058497062661666877,0.042394262016701746,0.046797417410354515,0.021602562472604604,-0.034093616475596056,0.02937074209593428,-0.23695977266568546,-0.16278963073299804,0.08954674154421834,-0.13481005633950524,-0.26789515250111906,0.011400675742055433,-0.6876767471902577,0.03917477108851198,-0.48304752999609285,-0.23469016003949195,0.11954150095765187,0.05960728628140339,-0.1132197482544172
105.06204986572266,1.3594970703125,0.025513757737860257,-0.06703917820518862,-0.1261310354864955,0.12411630757491457,-0.5355198347949167,-0.45278127635894216,0.2076333383687963,0.24981994830851742,0.4893741246294182,0.1054873603701445,-0.07852104529994058,-0.2766726435680293,-0.17829018956178358,0.038485078066365974,-0.5872342244142155,0.28263413122284503,0.015058632495700677,0.15230841689981275,0.003935550059553207,0.04380830764313066,-0.07580787879010215,-0.10005686124197387,-0.11591179193518197,0.4492410390382493,0.22941108807057678,0.017658865803738835,0.027270148697589397,0.20215750634694732,-0.1591345042345526,-0.41078450524974747,0.09989202580241291,0.0823953640989171,0.10433188741340405,-0.0567155537552765,-0.05217351189189655,-0.066701381945289,-0.010713756261379208,-0.04963902488333263,0.0496423434707306,-0.012260796917795826,0.021044590532284302,-0.016445297193235536,0.023939750906509332,0.08563982343845894,-0.04247629382945505,-0.040426079879418604,-0.01391062614705042,-0.10165226213873899,-0.08859784536100274,-0.01952196900242366,0.00809273265029829,0.04262746572698884,0.04923771219958649,-0.009371115882302827,-0.023077981052608866,-0.08496711156624707,-0.03566195983268659,-0.042289111823380604,-0.014696185459651406,-0.002643404138525009,0.003847690336429716,0.04965630277694927,-0.017360135555503517,0.060446202479835474,-0.0027147591902041087,-0.04732618866930305,-0.04095367812408859,0.10316923020345617,-0.04464684491445338,0.01827965641160237,-0.09177376892041646,-0.13354113328884448,-0.06325577450546531,0.007815633969394711,0.07377392796815431,0.01310582739016905,-0.07098018988278897,0.04785666777970955,-0.043324810062915727,-0.015147810369761676,0.044997935388243045,-0.018073579724430248,-0.019102462445139513,-0.009880728768838002,-0.04185759995339189,0.1479209682283224,-0.09622450400765813,0.01814348547555667,0.11488198480780784,-0.02738496617862904,-0.036100405889270853,-0.08145999783015136,-0.1595643802103849,-0.12216180154480681,0.02586109051358612,0.21361281740910282,0.23180614224170254,-0.17023754879275738,-0.4986951984163191,0.5702158974375453
106.42154693603516,1.3199005126953125,0.7294952764477198,-0.5264560953323467,-1.6396909133922057,-0.5506080519208761,-1.1375576636864315,0.41859772843765886,0.3992060211291894,-0.13354515483339563,-0.49566663077317535,0.011753151938936793,-0.20141622824030472,0.1329132807445945,0.38306781696624664,-0.051621557448803146,0.13180609128597248,-0.3265401143974528,-0.16152397618290312,0.01035983576705879,1.1083788181585832,-0.6299758850156333,0.15602185407558553,0.7923861403925634,0.06641029692912206,0.14362110480099044,1.0281978027077525,-0.7396048096942498,-0.3015706825741733,-0.19895725841739345,0.045546569284904394,0.09938869372332455,0.11106375287124706,0.14315569784044557,-0.22728126721292352,-0.049944151024240095,0.3042410800835606,-0.004577903139399645,0.025242041088024633,0.0645023599445322,0.0059656643393676614,0.0220109804522386,-0.0651121812841583,0.025503792317565496,0.09082887314967597,-0.018302453143536283,-0.03049940145423352,0.06609195196990572,0.0034886367465690044,0.04759825934464261,0.02391897644590086,0.011611309544028751,0.03180423946516919,0.03070263948332276,0.023890231565078763,-0.0020442527098512506,0.01150642060798536,0.11743472737379197,0.0012260486641257388,0.009974818697350438,-0.009518693912510869,-0.04845835001273679,-0.007514691736021954,0.014876206366767508,0.025031092390526706,-0.011079890616326308,-0.051284517722213735,-0.023947982435964688,4.00239550829933e-05,-0.14377775402376763,-0.0213762674208212,0.045309915935227096,-0.02908185427917484,0.017039474601606205,-0.019739414106439514,-0.003225262717734118,0.029833652459517787,0.038201085365638224,-0.07966407776726019,-0.015157868507239308,0.01457429946367056,-0.03387814411367737,0.0052911425992946655,-0.01693087661270926,-0.04030002333350425,0.002479853307106872,-0.01697017905329491,0.023569635468112977,0.04595377045214209,-0.020701542516256513,-0.2872885840993492,-0.13176865746530525,0.21420686652903145,0.22793617843263772,-0.10307824749043967,-0.1319040308885455,-0.35941810064965446,0.10537101469557393,0.04604895880604602,0.4336499451775254,-0.4317226126402025,-0.9851838333030984
107.74144744873047,1.3600006103515625,-0.714294265190813,-0.8736489014561907,-1.121003993052487,-0.307630784466594,0.674713446538237,0.6614992530424989,-0.20967347289552565,0.5378567440993263,0.8838965533200009,0.39697648239012456,-0.12630695651568224,-0.09590909881488803,-0.045604288800987276,-1.572716563483106,0.026097012618639587,0.25152062317944357,0.3177870589451134,0.04950886628009547,0.21345575023235575,0.007490586965550661,-0.40800323571154,0.12866282834157255,-0.33224525587762843,-0.2188963556102817,-0.3284005890186461,-1.0123973006847655,0.2536970256265272,-0.08620940370988797,0.11534434196853825,-0.30076843725234736,0.0517047848549497,-0.12142298500362883,-0.3670667103399703,-0.009758571601270983,0.10212008606646583,0.03204772353620285,-0.05087976894563225,-0.028586271565654124,0.0019806570587847295,0.036800144340782756,0.014886515811645955,0.01857907515995593,-0.023364120789045588,0.03296110551008259,0.0034009097198083563,0.03055404189606108,-0.04020952532073967,-0.0015323790809072925,0.024123476745553152,0.017133430673051425,-0.033132672252309425,-0.0022491600113484014,0.03878387149253348,-0.055705876761216494,-0.05688853081773424,0.012046198007900133,-0.06240380843258983,0.06248439136719465,-0.0007105665867853522,-0.06722120664880259,-0.009576092106676072,0.04789377806085225,-0.021261021245788738,-0.0641268226334326,0.04715669546022553,-0.01885013985118486,-0.05707306005668889,-0.006494135004067311,0.010717357556916926,0.026482330191185902,0.09646712400087734,-0.04868583863043468,-0.07556062425045361,0.05146930582261629,-0.0019877392469840453,0.023889219494954605,0.05077175394041848,-0.01453504456055631,-0.028557339122598193,0.06285930423329789,-0.0564576708533035,-0.0009061209836782325,-0.0047541131692554525,-0.1371284973094618,-0.019746979864112436,0.003031145490678522,-0.049038938550716726,0.3035924873869457,0.0778908325957906,0.09308449643592154,0.14684056306309085,0.07603501180349884,0.04619466374673159,-0.1569985736379496,-0.48219103523019585,-0.08550845587453944,0.29335815227924744,0.7722406455458517,0.6198064431351945,-0.11597259047946148
109.10144805908203,1.3495025634765625,-0.13353231353726508,-0.22016911783076581,0.0037840981513417027,0.35058290207459036,0.08564963177653297,-0.10590232493314468,-0.21137133399476996,-0.2757331649880042,0.35009970192823786,0.5481127562178824,-0.11232395448311012,-0.37912995287338025,0.6137805068664396,0.6347869067181723,0.13289234814891956,-0.11366910211152961,0.030574607091506178,0.11146334073069745,0.29325488396011273,0.23110366416772968,-0.1629291962514718,-0.058610190222147876,-0.21373703620076379,0.47766255522318696,0.18666957527836947,2.9984365367385912e-05,0.11213490200039977,0.01721589359466922,0.05662471190128853,0.11605527605367184,0.02983042686313113,-0.015291377267941993,0.0886803386180144,0.010426651864918014,0.01198129724904949,-0.07581280983575556,-0.1340083573013031,-0.06635208965810593,0.035780433305774045,0.025177464609053058,0.04102218012176901,0.001245532755384071,0.025685506437833613,-0.050414824998029406,-0.035518065641804715,-0.015339587987110465,0.012695054699022922,0.03413499549397509,-0.01064090607125427,0.02107178025927657,0.021755539789458815,-0.03462517633721138,-0.04010158351218688,0.07215116734547586,0.1346488943335241,-0.00592510114673415,0.06138326384285311,-0.04270458351158883,0.012280660598587453,0.09698793208730802,-0.10943004270748571,0.018143957157838852,0.11928896349385011,0.04712383058022722,-0.05004866731416721,0.020389209793622298,-0.016556695528872373,0.025781620747468554,-0.048922677442730926,-0.011900550679976113,0.037285957683695324,0.045354265039228375,-0.010022294595596046,0.07780583015056117,0.017951107748917734,-0.06544687444633147,-0.10131899694233912,-0.030358292290434158,0.11832332326867695,0.015033758145547518,-0.06034416425735586,-0.021761285661952585,0.05550758318616615,-0.004261326411109345,0.02630117595433266,0.019284377468154153,0.039701763619778396,-0.3209862483056439,0.0335712203708353,-0.3384662462701179,0.2078101575564631,0.298887708665676,0.3753693584919858,-0.22105001955872755,-0.27371902385552965,0.16275254376950718,-0.03896713087019034,-0.1702070477334949,0.25496788382396374,0.011377105885281874
110.4509506225586,2.3491973876953125,0.002599654560270004,-0.1281222629664461,-0.5777983486247029,-1.07821788286385,-0.1039471035407004,-0.056307555670370754,-0.23344994159288146,-0.1388956586573123,-0.5713359794603906,-0.38965365674799624,0.2849481439817829,0.3282107299698215,0.0482432716270044,0.14924424302245998,-0.12710106985699127,0.2096358142667214,-0.002355849052692039,-0.03913614190028317,0.005890113148974716,-0.14860331190738088,-0.0925401817238674,-0.02834215084296343,-0.02615056309558969,0.005630390716167374,-0.12887446612580272,0.03506592500460189,-0.04522133911477642,-0.067086505558515,-0.03794315050201858,-0.061228570692900074,0.05137457128993593,0.0235868332753081,-0.01101877601556585,0.10412737331757158,0.04504023680746767,0.01789937888342285,-0.005201817954850293,-0.0030476907732482775,-0.042985777911488346,-0.03245009504875469,-0.03847358090101371,-0.02025939205076504,-0.008026198535492478,-0.05077531419763996,0.019524699531989636,0.0015771964851172965,0.006955082425377127,0.03359821658490847,0.021893296388721832,-0.0752883519419967,-0.07573491998252911,0.01925799270175373,0.058524374130855435,-0.03649199529974829,-0.013568758533793156,0.021967454286025024,-0.03713840256476504,-0.01251176346475291,-0.019524240149268953,-0.0002212823702503441,-0.03907684019653125,0.03249803795749827,0.02423232124018946,0.12843851771778372,-0.04441656055482253,0.02762333424648506,0.017740513908777067,0.07673987355171628,0.022260076256175106,-0.033573047559385866,0.05360071395235739,-0.03230620048631892,-0.06647727976072856,-0.11503046870602324,-0.06930440447356333,-0.015666465435461806,-0.0028437565694760998,-0.003985901219444858,0.023460818828294323,-0.029383091775845884,-0.08446655070659999,0.02324539620621206,0.04004643835141149,0.05323785761586826,-0.0011164069135375359,0.16532105278654624,0.021491258255420656,0.12047404870835594,0.009258825932394826,-0.28519724348507336,-0.05239974505345389,-0.02344925668329875,0.30379693407099706,0.6992464448237554,0.2857344729109853,0.24382638198375667,-0.12231975295813584,0.24833813659707824,-0.1553944439556952,-0.49195970529099253
116.14005279541016,1.3697967529296875,0.0591460837325348,-0.13240326332722852,-0.07561915313883952,-0.1786653227948946,0.018546119219231015,0.2803246709401765,0.0318094843755981,-0.22293856418746968,0.966533056598212,0.14755846664192218,-0.09936036162092833,-0.25337091143986296,0.03891525359423803,-0.10096135279218615,-0.1434765833130532,-0.0714232145580691,-0.07011227966344648,-0.04282690886830644,-0.08270272589370739,0.08290301403523598,0.024172711727847126,-0.049939008240630064,0.013063975473967468,0.059537719736260396,0.07426026237476788,-0.04993646534536296,-0.04843152732444017,0.07814924223644938,0.03898137664279363,-0.05486407688395065,0.021604976192422184,-0.01634260169516122,-0.016131098204042942,0.03038556700170201,-0.0042492844404726365,0.01693237849675551,-0.09668336796892879,0.003966257261901098,0.03356134695892001,-0.03354162562994612,0.0236774566476745,-0.05948865351781676,-0.054866297302012354,-8.925634043891817e-05,0.004302854678986376,0.09808218986785458,0.07480656543675049,0.02069440786609572,-0.006229773646271267,0.09140298000507274,-0.06609591756315558,-0.0831999342374429,-0.03616242681211332,-0.004893027308053785,-0.0018573057021009972,-0.020773313668947344,0.005260644668989796,-0.008215454070455997,-0.0009634924371078966,-0.02506243672912804,0.0613595312390422,0.05962788466915906,-0.0767373300131577,-0.032798558492984395,0.0035448765990165106,0.05156967911124725,-0.09004704793576487,0.031360905609898584,0.07409621148679635,-0.08193852178504768,0.04946170177613178,0.022355761622532444,0.04763483175743996,-0.0461010923251075,-0.008521847582950692,0.04535098763448408,0.010364469499434923,-0.11079344228944325,0.026249784382686502,0.030926196579319547,0.057039379093996985,0.0031650602758655387,-0.007479761441745759,0.02556942607095563,-0.04103490120351513,0.033078780861850524,0.06144169270362799,-0.06138116561512373,-0.05450447629248902,-0.21800497929822743,0.20012821456250507,-0.0036271207456091553,-0.007603520924368737,0.16352816731209738,-0.08825390073844462,0.5942458020791236,0.14350196073231616,-0.19383644391348223,-0.3686252714924787,-0.23611132261837553
117.50984954833984,1.339202880859375,-0.06939630409726305,0.03665630525137689,-0.3901120358221834,-0.3912393420958201,-0.18573995041352198,-0.42533105871301335,-0.0414819970468059,0.5785631609952554,0.1794984465001035,-0.09351867755917101,0.32649741033093616,0.4224237319569422,-0.17561320598266866,0.43321331496833015,0.4916100423744439,-0.14968547084693445,0.10679586182384564,-0.019924911653566288,-0.08467172839834636,-0.029114204680912532,-0.04114899972791548,-0.0719248152400287,-0.08417686779191298,0.055066915014507264,-0.02112768144033188,-0.009898107707746741,-0.03232820838011612,0.01857897581924008,-0.014113794245140287,0.04897716065070369,0.022363162272306863,0.004496467394307407,-0.026807033900501064,0.007570883656959278,-0.037621439510366374,-0.017750893464691084,-0.10872265675956956,-0.0357561775182689,0.0007504086263247787,-0.05374023785719608,0.04945454720501833,-0.06502631710279425,0.1177019105490216,0.07348610194424937,0.0030135067726070725,0.03669436305455956,-0.022146022065433053,0.025019904822947525,0.007350391657218833,-0.01185806970661528,-0.010587735940621002,0.030978914342793432,-0.0466858918032824,-0.05738066844822091,-0.03571110146581782,-0.008865962003187098,0.09907976678537743,0.03423832299022929,0.05046664904996725,0.053119525105588525,0.02022224742237419,-0.03116029407457982,-0.04237696551261544,-0.0784587343392576,0.04861419418289608,0.01574198239114236,-0.05135934360797042,-0.03081411016874002,-0.03219883313408128,-0.003083140836021251,-0.0037177901879705453,-0.05162784761598577,-0.025126110230681585,0.13577529977093575,-0.013370327448169031,-0.031111127884216647,0.013962512680148819,-0.0012533649969253685,-0.0046068555410784095,0.03354773730358262,-0.0730288806058795,0.026094582133587695,0.12719572282795844,0.01201189123972703,0.00795801670579134,-0.0034029512865004796,0.003995300419831397,0.07902647227512227,-0.03338668557401645,0.11698541569226716,0.004614775512106038,-0.5312716600884888,0.29505815579384537,0.676123733937854,-1.0958162688544377,0.37787307331115544,0.0335994317655739,-0.3870779495363526,-0.30749403357147215,0.0343192604142433
118.84905242919922,1.3700942993164062,0.01010279732679879,-0.5043927652598993,0.09704172357709541,-0.08899246288651913,0.3908116347278965,0.39129965087931645,-0.13998727780464712,0.4636249880594083,-0.0790837335841472,-0.10120228570005652,-0.4705347858428344,-0.41583262466640164,0.5932663816205868,0.5723182689872117,0.12180039083497485,-0.10081313714611215,-0.009514295685876181,-0.0659550774226368,-0.050440108790044985,0.08498481120073124,-0.20673531316103608,0.3267706319748297,0.20143730855093736,0.3124122081046694,0.00029543055858399867,0.4070913461935978,0.10160996708812453,-0.07266911558599955,0.1000039929528608,-0.029184940455306084,0.08773061748800683,0.06497754106929032,0.17859994391153122,-0.20626166917147745,-0.0412207453518824,0.10251400074979623,-0.09215526519762626,0.02328028264571819,0.022304932485143213,0.050866101094507336,-0.059273578304398354,-0.03437906522451256,-0.0017474681324747695,-0.09632385942804439,-0.06247073862068345,-0.02323050785076397,0.0010286286444438843,-0.04936110012546749,-0.023265084392533844,0.04579491911798468,0.03129446273827718,0.013014102184677799,0.022210789849214194,0.02105797732355507,0.0067887904593498935,-0.023249746727442108,-0.005518459560574459,-0.0009469090350565025,-0.13848266277059149,-0.006839642373362178,-0.006817396225271277,0.013259884424270434,-0.03513427224757365,0.07712424060414141,0.08976315440283356,0.019749749926505963,0.009105921182851319,0.03541659084996324,0.08976372491990536,0.01917703245200413,0.028099370132918883,0.017739213727113668,-0.06600285177635767,-0.04549196991722535,-0.06240976882681992,0.006955985315027647,-0.10124683106026656,0.06083831586987963,0.045777239191671225,0.020802937006873884,0.10644532776349869,-0.002432334873870701,0.00845682483451904,0.09569970949188109,-0.11791450798595428,-0.018373556092644624,0.029987798969977653,-0.00866945785485239,0.4898505048277484,0.3285364882590121,0.028240956022214023,-0.3556771741764456,-0.17716848487414844,0.4258684117247422,-0.29741057454835573,-0.2634727696219972,-0.3890827415512949,0.13872302564423766,-0.4181492618525421,0.23369545757816157
120.21914672851562,1.3397064208984375,0.07187477832505615,-0.10007114640337735,0.184910237202466,0.4693885404457542,0.24225969976867595,0.09371942930945082,-0.04879074721990494,0.4890330837132282,0.25286317318842483,-0.5619487902554013,-0.3873215493485063,-0.23360960098547146,-0.35878409521713245,-0.017213269324901092,0.1262961115493979,0.4218905836925193,0.0715302274357319,-0.00724855911093486,-0.017584382125601983,-0.07854337507349408,0.16783885067049092,-0.007644170243708389,-0.2070200138284996,-0.088462496521783,-0.06309202620950051,-0.10130306867271673,0.07163816975347015,-0.10472329313068247,0.008899611635457428,0.04954845298635959,-0.05112841285048828,-0.005044770362647816,-0.08069848872851058,-0.044895786046585826,0.05747696529543452,0.060054705188636606,0.003998082620087441,-0.03565695604938708,-0.06135534198320071,0.024117568733022864,0.01525616002815005,0.018738127671673013,-0.013194117939564222,0.03291012946699841,-0.030762601502050825,0.0039099407796026366,-0.031860031515825255,0.004647738395337756,-0.017319624158400812,0.012115523027115398,0.01751455077444744,-0.01751870684236158,-0.021833339822956613,0.058643288544580806,-0.07034092183258081,0.026996678982654,-0.05319695354506997,-0.07039606599516718,-0.035272313726554545,-0.012361863455328477,0.0638301849487387,0.008427427302851096,-0.06105787528891568,0.0017843477189286167,-0.0620375663531636,0.016052673920226534,0.0019592541764102177,-0.10281026527863572,0.010809732500294211,-0.003929045060168961,-0.049074281210277876,-0.031106516237511227,0.04986178330842306,0.04145735472942697,-0.01935936344754308,-0.02858558385785264,-0.09032508758393637,-0.03816776572231687,0.09560291703817275,0.04554901080301297,0.08319626841116551,0.03100233609922766,-0.05053700804126346,0.04153136703253432,-0.010892522182592273,-0.1136347820404931,-0.08893851636998046,-0.03605425316007065,-0.04763133151422723,-0.06273696001743098,-0.15389727133830522,0.1672066056693846,0.046087704916056016,-0.05694539355446776,0.28118369172275665,-0.09806222560352926,0.3139321947300315,0.07028697727464446,0.23525078305963293,-0.12450641221940043
121.55885314941406,1.2996978759765625,-0.15855581779450245,-0.5635714851764744,0.0882460625847631,0.11821954964250311,-0.10869135994267833,-0.2983472561444724,0.17471210353552344,0.517482434890386,0.26033871715668644,-0.10601528126667403,-0.06733412935940263,0.08133901523851293,-0.07659672756514639,-0.2316198389702537,-0.6845260287712013,-0.21717610238955742,0.08288292124650257,-0.4218827634214967,0.30014262113802775,-0.0653978432000695,-0.13156447622513356,0.07193169962445307,0.16193315043043102,0.1403749974377575,-0.08538595559892957,-0.13362921090979016,0.09279593826343807,-0.4063330499268445,0.029212937690629354,0.070103897804945,0.05503339651608413,0.0469017413750471,0.021045762148470357,-0.07850406978701714,0.0087890291571165,-0.11228763851462405,0.05479513849090967,-0.1375825072338344,-0.0029552679611180048,0.0958761618147847,-0.03474481968252858,-0.02959500518180508,-0.01157344669273244,0.005641413509089183,0.017813476149706204,-0.06107069805759968,-0.04549802013870035,0.004266065392960307,0.01912031085191534,-0.011213997352278932,0.058770933739403515,-0.05148875704872726,0.0635648305777764,0.05948026790249972,-0.01748789678168564,0.04140933801437207,0.04111771972431667,0.07390083183066379,-0.0031264186792112594,-0.0029780066369243115,-0.012097201315296199,-0.0009027491871459346,-0.029766765179219674,-0.03496616035527211,-0.035328474458335014,-0.003757713122430428,-0.0037304550375005154,0.04874945134719799,-0.005829153177034235,-0.03899546256246339,0.06975472401778379,-0.0762259067498563,0.022441383333058968,-0.0514193490140472,0.0009213050002782936,-0.008349800490541213,-0.029632227409493405,0.010299607944729988,-0.03669820921407569,-0.06843521169480696,-0.02235595847549931,0.017716794751647537,-0.07446951153623156,0.04187176333438456,0.02312020621039344,-0.04663528786059543,-0.01887201090689455,0.2478309501200867,0.39102752849737743,-0.01934850201426481,0.014090019321611594,0.4673944552086139,0.14605539004331214,0.04663201376369003,0.23345857700963213,-0.04192301869100276,0.3258445640303892,0.07777496213234719,0.034470424720765884,-0.07800075474218444
122.85855102539062,1.2995986938476562,0.07729235283112335,-0.06218893921924712,0.14643504885872993,-0.1611054709876759,-0.23840411836299263,0.007951700716194502,-0.11457697273388866,-0.2543275601759823,0.3638371966047974,-0.46750609006533655,-0.003775360355707924,0.44846243908130584,0.0010269798950013394,0.20047733849756716,-0.0601600632201353,-0.1429232728042383,0.03722950687870184,0.03122979353871655,0.032132023944535626,0.07744983030027147,0.046021958334049776,0.5900126984519413,0.007910403412610068,-0.03168594055997113,0.006647227551761305,0.05613926961869869,-0.009585829404706182,-0.01440565509817885,-0.06586626495148332,-0.09708148891617827,-0.021483251073721243,0.02537588667525094,0.01722381580731854,-0.07717687384182735,-0.08644358980519301,0.040098970729126014,0.030218391594696355,0.003510973385127237,-0.028357981165092992,-0.06794233758858668,0.06843640615584533,-0.07728582355283939,-0.01006582306691461,0.027445155201475023,-0.018351893020171914,0.005545088712041456,-0.03552639735734452,-0.1351378931336806,0.06287201175615507,0.008851017285758083,-0.04709328110540454,-0.00969973632933781,-0.0027932692033801106,0.0009051553371091257,0.0286990220626702,-0.018574513479529525,-0.0037050371994298004,-0.014642337978066883,0.0010814817465269293,0.07868000844010058,-0.049203068585847554,-0.022907725044873525,0.05902875222734922,-0.03064253615955101,0.011412232223254859,0.04309315169418962,-0.0696843630322413,-0.06824071247777494,-0.04346254866254492,-0.0828545337045673,0.07975419929465247,0.0799565650599528,0.021126892931509177,0.09333525784895996,0.022033848951672146,0.04895460547684644,-0.03636392654786842,-0.012553335618223872,0.06403005239896765,-0.05780161739734637,-0.03977836156434891,0.043572409042523616,-0.06002799693007945,-0.015048034933826346,0.08125626730252822,-0.11776779496197293,-0.1197158617737691,0.03402538370317333,-0.5880769712794605,0.16147994898087067,0.03820811734915961,0.1894161657700073,0.14563166020192106,0.43625985051954586,0.1461256602578005,0.4962668309613457,0.20132612287087978,-0.9649812604318333,-0.43314307288782167,-0.47570877813547624
129.74754333496094,1.339599609375,0.01048748903803964,-0.16926190316764975,0.13792392382831972,0.48818012284598783,0.5536261166671698,0.7543338652637537,-0.08090465031396565,-0.240858819285436,-0.023891098807752267,-0.5801300604867529,-0.13395824828275377,0.02351086407263257,0.335695054082893,-0.07404043865207555,0.14052311287252103,0.4110314518800959,0.21398483051283818,-0.1488218898477883,0.11654454313434401,0.194040052784362,0.2622337417084657,0.2888224655856282,0.7007940930314074,-0.19111941054988635,-0.2771807428315126,0.011813274769057275,-0.019248793050957,-0.01063757946764621,0.07510673448853147,-0.26205343018374555,-0.08328181419919573,0.026101951249232057,-0.04684083389483429,0.06336733492917887,-0.05223578406305482,-0.05721131913724363,0.03894085374211691,-0.03292571801771892,0.017591466579937,0.054782886681645465,-0.0040846902070962865,-0.021633565024469434,-0.10647288828245219,-0.030036847986240463,-0.017394431435546136,-0.0675536475698938,0.0646953348406388,0.1352225927566142,-0.028904652104644442,-0.00328921513695702,0.004692909451424268,-0.060108600863734554,-0.04285346401653364,-0.03694175691614325,-0.007239648657356263,-0.05145204276671757,-0.061385278583073244,-0.07005569811588343,0.04995703762102668,0.034266818406237395,0.03424411699449046,0.07188499120219716,0.056180390992482045,0.045100178021315294,-0.08513188629555621,0.03585667129579351,-0.10058840985074587,0.013055547703257318,-0.021266999266879177,0.045969156402183825,-0.02088418199798715,-0.06267821009018525,-0.04928224633467209,0.0009373671104099535,0.023685737650691648,0.013289114151739837,0.012522969171655775,0.043243352415219635,0.012451957506682204,-0.06658320291644836,0.06772878924432153,0.016464715200657235,-0.035874878140720164,-0.040757254678918095,-0.03794291430500065,-0.03868292515612957,-0.01473343835109869,0.2641943589155336,0.03437092188458239,-0.33356930902167364,-0.060880530331354626,-0.05576272987026722,0.5287450188558906,1.2329282932986225,0.43725309842243815,-0.685388882495513,-0.18966065640493052,0.2813781101475647,0.06175615065058175,-0.02113208166076011
131.08714294433594,1.3195037841796875,-0.03419293292042762,-0.3248623666296303,0.18425107346352743,0.097961690967606,-0.6041780238344339,-0.3890048807672724,0.10094393051355366,-0.47697464981809207,-0.7709994711681636,-0.013386991490573902,-0.033893654396533614,-0.16525340177119816,0.026536201876218978,0.3401040459574949,0.03314178401103557,-0.10508514936640403,-0.4871888441092759,0.0019212947424306441,0.0390447763018096,-0.014008206508132082,0.008257700899613774,-0.02955871423366282,-0.05582357049872194,0.002581753889843078,-0.08817542222850097,-0.19376081334649548,0.02229498920372683,0.066732111820466,0.12113709745786971,-0.08297949888395803,-0.1573252636065295,0.009288733993584824,-0.03225320113947264,-0.07852124018641954,-0.004479939934962635,0.06557596916863255,-0.026925932226355125,-0.0630706945704714,0.013969644449390813,-0.020988332198527353,-0.01153502843378143,-0.005462185310471601,0.06098440569341839,-0.02221866473364952,0.01577161538823768,0.020359723762086224,-0.031596331970170206,0.00631429150389648,-0.06046019322823598,0.003595669710236973,-0.004306365451382566,-0.02940294177139357,-0.03325464561543754,-0.0028903946838486367,-0.07548052258889307,0.006128330758840313,0.08109505185252996,-0.006271098725762757,-0.023059379620481112,0.04365404287394452,0.034641138096956015,0.029770910036685472,0.06394346298095023,0.015951345166663244,0.02614482581770814,-0.044251680451264375,0.016062110140355967,-0.03901294660901527,-0.052064545036512644,-0.06790105593560983,0.04644592383941763,-0.01369053600081313,-0.03336220350558809,0.04076766274061876,-0.0293687881143465,0.002947192254800476,-0.00012841276377278694,-0.005415209250241711,0.010511683712124938,-0.100678136382932,-0.05518983649975795,0.02802785031530966,-0.08760823201450088,-0.03949375866943135,0.061891287395283365,0.02039225028517737,0.0799920539060725,0.06536326997885997,0.01642000631940374,-0.0504384210487326,0.06536578692868482,-0.4584752317982446,0.6052651244936169,0.2419827443728606,0.33700477002770696,-0.13004625249947688,-0.01521200327107282,0.6071427233663709,0.19425909482492118,-0.3157589036354804
132.40664672851562,1.330108642578125,-0.1878067478985222,-0.629712591413795,-0.32366053220610963,0.16367511760617307,-0.33605605126514554,0.19340404876714365,-0.41038518769849763,-0.11568665515547465,-0.01225426342834618,0.00014414210794942662,-0.038159822513600034,0.2859182433468674,0.00818134340649894,0.07521728682393099,0.06262095199665035,-0.02426560907118676,0.10737493899935818,0.1196099962003895,0.0872221014904786,0.0327830976218402,0.10332941507538727,-0.20264495991349463,0.02705555857690356,0.07730523450321866,0.0821917739582027,-0.03248356610382344,0.07828295984331729,-0.022859235308879414,0.0028933053429457106,0.0248422375392158,0.0009950859854646987,0.06352906338189598,0.058564264095282155,-0.026856769383084247,0.001004237332306066,-0.009253644327211727,0.009286473088207637,0.01755872658315411,0.028895467324083157,-0.011048555479240205,-0.031742784922773645,0.006122512963642676,-0.03136222626213371,-0.025380135804256382,0.07479541208974554,-0.007972580753870575,0.016141900432615444,0.0008065170757042487,0.027430679723126686,0.07912006985175969,-0.0014448250732379457,0.019606039951885552,0.05014896424277732,-0.051721876621048976,-0.013405541076876588,-0.02631768519393632,-0.021321257685369993,0.028864508010877206,-0.020745137805350873,-0.0016393850548226895,0.001985604617872591,0.02421448188615715,-0.041954134382151384,-0.04028127338573228,-0.058680891866157533,0.06623757041666012,-0.021305325728482028,-0.029011629558248837,-0.04077225021164131,-0.020758459096892827,-0.008314454202943578,0.019392332328057038,0.0163352453114267,0.050564333003922844,0.051578734239833224,0.02694275079926279,0.10390077783115438,-0.014542541318913717,0.010520850994889908,0.050826409411953974,-0.039635251490095474,-0.05209631654607707,0.01570951524581686,0.07049749694178424,-0.006162135519117292,0.04295979314723983,-0.14981651614409208,0.16296679671643607,-0.06301573274581686,0.23300435943757888,-0.5020141220560359,0.2902287450565075,-0.0285390753826454,0.3018552063870123,0.21989613588652102,-0.07262463780108117,-0.5525494264543689,0.1772917368484936,-0.34371160886752067,0.018372200643162695
133.73675537109375,1.359588623046875,0.017666301847820892,-0.0729305593891994,-0.10091406943063289,0.012588922793523444,0.022486537424881825,-0.10507989217632502,0.9111656221804818,0.37071312835841985,-0.11815404246464335,-0.0462265493916918,0.13206319546414874,0.01374304319559581,-0.017939984030772058,-0.01794837553756906,0.06339174875007668,0.011900414296522421,-0.1602605308890339,0.10547202405390727,0.020393721542813617,-0.038832599569488126,0.010777092450655529,-0.04254415504432728,-0.025583065212994742,0.07474925551534048,0.006669288526226073,-0.02788033077390785,0.012211399333766951,-0.07097418288928632,-0.07445677402786952,0.036848390749426724,-0.09716878761924026,-0.049341879387529056,-0.018593247142914913,0.03342695526931963,-0.0396910333418095,0.03903835671801313,0.03802957294748868,-0.00941785550072963,-0.04571495587126453,-0.029115187608938543,-0.010496254041856537,-0.091461301230853,-0.03975074394670461,-0.061720568893507466,0.014731358296297112,-0.0026806834054183895,-0.009070584500782665,0.03840956139994201,-0.05983272363233471,-0.022404608705591023,-0.016001240886382575,-0.09107511811738103,0.004210698508448027,0.034453619328572514,-0.1290284646876682,-0.01045569475916685,-0.0063306311260618265,-0.012664024699755524,0.036352963757659354,0.10247690266099636,-0.05940007485687103,-0.028287153907004356,0.10817094480112832,-0.0052135128208734526,-0.03161408164591327,0.05834978220295832,-0.021208501986459287,-0.02333972800302417,0.052493309277228256,0.05535745151314419,-0.01664146764182388,-0.08345602861415435,0.0012579690116374163,-0.003212180206054408,-0.0694210790728374,0.019910302537595646,0.01501903013353634,-0.08367232792787903,0.0026255637930676814,-0.03730661559117651,0.00852232147079077,-0.004772212586936232,-0.009892676913025814,0.01042339856741788,0.09387482736335766,0.03537757719185139,-0.03929254344251772,-0.15364263547296958,0.35613777013486936,0.6350228564496951,0.1911374186959035,0.11512869165168976,0.15206456525650644,0.4794010429199202,0.17146429546312972,0.29221468584510646,0.3462935825053547,0.013768611872014898,-0.0348801231522035,0.04808166602375066
135.09634399414062,1.37969970703125,0.04395538962702968,0.19452163346376364,0.36746451112245426,0.39460394370294094,-0.1790478948959055,-0.028441221298437146,0.07946434495493723,0.14186853812462885,-0.04597737437305119,0.2811013531527909,0.05255088817938829,-0.06808250151204188,0.026042423778430388,0.021332147259040226,-0.025566971721106564,-0.02995454973883523,0.011149059451564317,-0.06635413974440829,-0.03364561820905915,0.09202393261768119,-0.016416135821285188,-0.010638064152534508,-0.07869389927538774,0.004922134686088018,0.008441759298337695,-0.0850133476827677,-0.04532731017869984,0.11930813821244984,0.0068746436458485185,0.026032351606452973,0.004234205091401448,0.041623757232457356,0.03981250082048357,0.01673592796851905,0.017577723837962276,0.14810178665544413,0.03773955265900538,-0.020038627329674475,-0.03647714420547795,-0.00036914667840370853,0.06908228153407629,-0.020285242180143145,0.007992138523857878,0.06594672088816608,0.06755607883991203,-0.019723485985121157,-0.05106706560764689,0.024376198745513944,-0.0021636720259678305,-0.026636703890635993,0.055104229721636186,0.11077021504318094,0.011780662447013323,0.015200584157985537,-0.008836139149015041,0.07814984918548837,0.04806021356768383,-0.009647967648964534,-0.052456878365855095,0.12927852548709526,0.08081667916790547,0.007415148408659469,-0.058141355339750865,-0.0005782065420191981,0.01609846397610445,-0.021329036762270832,-0.006748073155506773,0.1072554955273803,0.008596742523618632,-0.012496042205958312,0.002786142804393682,0.05018075671596656,0.026191534865109518,-0.043098186036921345,-0.0017115545061743799,0.03550947014567743,-0.050625440158129226,0.03302146140851919,-0.06046911170318285,-0.02990452049040715,0.012204212395067601,-0.041756056691221136,0.07034302130035083,0.05307516228012914,-0.006472719701125692,0.004254608480280581,-0.03734783495849435,-0.024714394026775482,-0.12488681089028209,-0.3722687882463871,-0.043079862709461715,0.03646458328417658,0.4075718135330087,-0.16638650402951752,-0.7078689137789067,0.16937698196720855,-0.16259788091957544,-0.17000927363161075,-0.43300218971303905,-0.023394196924245714
141.92535400390625,1.349395751953125,0.40098360462367755,-0.8448131406830357,-0.8188183916379485,0.4800963163726343,0.3875416606689869,0.3948426979767048,0.4624240206351024,0.41559550076831775,-0.4184925957891857,0.029939415103408862,-0.20369360097476946,-0.009329299739023116,0.6522290952251484,0.4456672324919736,0.0573454864355408,0.04098440767678049,0.034803406249580324,0.028630770945472107,-0.03897887435792502,0.005691819252705357,0.09265423947565779,-0.25057688381694715,-0.03638518168167034,-0.06681919132179863,0.020551964205948403,0.050526502263762735,-0.0019084269355155747,0.050133783771231455,-0.044267474260716616,0.1251825353391363,-0.04678754115305189,-0.046223566555587264,0.05856601628428584,0.028717490852802754,0.02698266264928243,0.04964369787216068,-0.06179982347224314,0.005683982429432786,0.08898352152096389,-0.04603587959932039,-0.03145598546618441,0.02846246635640101,-0.04772226128059327,0.007651810708174967,0.09752735406562311,0.012659112627676349,0.03475056359974977,-0.013958471701363578,-0.0007562113166068264,0.03949313117178495,0.10989402772615438,-0.003448360944288127,0.03529291225658216,0.08840030018462214,-0.007359294259261025,0.00837058773089339,0.03515473357566135,-0.03281239856239101,0.017838141020667303,0.1223458066715429,0.03967802102461104,0.0064772040999399455,0.047227001487679734,-0.0006110506290064703,-0.01303612233681042,0.05138690823769423,-0.011540325751865059,-0.0102096085003942,0.06920499815634455,0.007321393537927254,0.05442868146704597,0.06349354481694652,-0.05671927744681704,0.08265603232341483,-0.013069360934435656,-0.022744925130399316,0.022845568031317307,-0.09509126525214878,0.05256412775446832,0.033456146661140544,0.05873017037910128,0.05199669042724561,-0.02053868091141776,-0.02782702369899227,0.053437540533288454,-0.04482397022337525,0.06635587933749997,-0.41914395389762615,-0.05441564469421347,0.025559411886509897,0.06103650751274289,0.03955694332611822,0.49454218913599124,-0.10726035026651898,0.4164080426837716,0.05374569642162467,-0.08139170441697134,0.056072214869011844,0.05093330964244878,0.2426264162694173
143.27474975585938,1.3498077392578125,0.249434028318426,-0.018146708014504572,0.19314207347345305,0.2312846039122917,-0.03850052395685,0.05712757681008052,-0.10069386187519529,-0.3685262898187635,-0.07033812093741167,0.5362265836776994,0.22114172219106823,0.2613029770467328,-0.4553077171751415,0.07650812365377273,-0.04460870877183665,0.05710265031292504,-0.13892424717386934,0.023860755013167832,-0.014169163844152685,-0.0038200468240233154,0.02262362903872048,0.06361136624476818,0.057968188079871474,-0.05564902878860033,-0.0019004274556988663,-0.014301479979542184,0.09153747061732515,0.04964666366690223,0.005570932737289095,0.0764950646638991,-0.058732921196241926,0.014794958412279045,-0.08050334656429556,-0.030847399831257352,0.10164145171819594,0.009937152839055418,-0.008024289502861881,0.04202389302184467,0.005027699320443346,-0.04672875168522031,-0.06764199629508554,-0.0028724863442930538,0.012536351875980366,0.02383572529646194,-0.02391301027262206,0.009046675492094178,0.034489638254075736,0.04705204861287848,0.10121563606629032,0.09134096149053886,0.0538441557934444,0.007216818342189041,0.01130252309644263,0.07477111385195799,-0.023322097335560288,-0.02113811179596798,0.08874173932993104,0.01824120140031227,-0.028500615950363153,-0.008969850532015766,0.0021912519669998786,0.007140293857377749,-0.0037835537325206212,-0.025900770106795326,-0.020651642949517882,-0.044561786299815435,0.04006708518765605,0.07898360373466887,0.055790357668106264,-0.04113248956595951,0.06008170018873229,-0.037785334960476494,-0.028086579096276564,-0.01022167392491323,0.15203650889256734,-0.00046465584333496904,-0.00692247564302892,-0.05264752843066924,0.026574426964036356,0.023229205436104287,0.0171555336081571,0.016736997801484462,-0.018628469710343407,-0.03618583551788445,-0.10504916259794035,-0.009323567622948947,-0.015382141455001462,-0.3326035888332165,-0.09758575722109634,-0.04445183336147925,0.13645361196842798,0.04095386335466569,-0.27844939511495603,-0.4819583972052579,0.07629576673655644,0.024090760234643745,0.2952298538171615,0.26881088914779633,-0.01892989414970246,0.0175390677543931
144.6245574951172,1.3196868896484375,0.00719662134644267,0.3011553108492786,0.46786392656197606,-0.7136906907346968,-0.1501258107012876,0.13689508903537637,0.10184735811926414,0.07806839061797494,-0.5755385065945767,-0.048749442651832633,-0.28421184503264957,-0.07773156453238037,-0.1880147325702794,-0.10583721921970456,0.19881551235726194,0.1815328157982844,0.010493662934200112,-0.05689794764398627,-0.03619388212530621,-0.07729197459123717,-0.038299069065511636,0.013377338550429198,-0.009283538936785227,0.037820872925685076,0.010569092472572705,0.004781661233523632,-0.08389117784231845,-0.00702785148759371,0.10539712477272133,-0.012548172822723901,-0.05390527753606859,-0.014768425321403378,-0.023326437179911893,0.016980044922799628,-0.025759021744985493,-0.04049500604887224,-0.022273108827038982,-0.033639252273611,-0.007319636349074447,0.09904735729236105,0.015028331473890863,-0.06091364588791383,-0.007861704968322789,0.04332412558293854,0.0567481912703282,-0.024825999573272146,-0.015207850159913659,0.0996735175635278,0.031936478995456985,-0.04341216793753133,0.04776294318347547,-0.020825710122238418,-0.012875981533809472,0.01647672410639942,0.003450951711869779,-0.0036752686831003425,-0.1313046550186039,0.025151388844587192,0.0015696573857940748,-0.031341701126714874,-0.0021056219747354315,0.04347305116261585,0.01385656105399777,-0.010031861355949231,-0.04429513900477292,-0.008979051186914692,-0.0008321308359571578,-0.05246300738341378,-0.07653864261215815,0.09473503252228693,-0.05385154101061663,-0.03195124681694451,-0.0074004370396738095,-0.006547352863357996,-0.03327516226423272,-0.13765086134050838,-0.023410605924087315,-0.06061561492238317,-0.07686035791347966,0.019952718042581193,0.0722804218859904,0.05158106353450275,0.018077690132996614,-0.002589244642474357,-0.03663090877706375,0.04350859726064253,-0.1059018886496117,-0.2993992538568898,0.20488676116556886,-0.18179831523148532,-0.006759936068089398,0.5711775996841377,0.1590070338431308,-0.6338037862506473,0.2674957951533953,-0.282912489199311,-0.31736734416365847,-0.2684411491797013,0.18840380497980522,0.17701528518378612
145.94424438476562,1.339813232421875,0.18960677800470302,-0.20489501618350156,0.308737436461326,-0.08703104463646938,-0.044251709122187774,0.2755428961335127,-0.06662061399116734,-0.45639468340603856,-0.43082664423443406,0.28793492708950835,0.1491027411387395,-0.15144888805274537,0.13998740463718784,-0.07790185230088634,0.35572644620364025,0.10500197580502053,0.0864432830543323,-0.08395317602710962,0.07560906554079812,0.002564559240621249,-0.050250905840086416,0.04847259109223967,0.019385432487389942,-0.04412258629263881,0.008672767338496406,0.029297807519989796,-0.014134665441651796,-0.03866163013933731,-0.012879258847048512,-0.00965549794039268,-0.02414498629444909,0.0026804171827278164,-0.042621189833043964,0.10429102714544627,0.0028648925227890754,0.013659326127508161,0.0024563661895942684,0.02055216625181097,0.04377279974964781,0.019171595294220505,0.020361251638695368,0.04894945934771893,0.01156622011447292,-0.03491675659933233,-0.04313779861180785,-0.015277922906378406,0.0037916058764544793,-0.018618245932930738,-0.011418194821293777,0.0007932931247976033,-0.03053271022482896,-0.04082209737928769,-0.07372656476595513,-0.07661416142330409,-0.04903635042688722,-0.05361271402609602,0.047009215286334755,0.04807098859580837,-0.004598233718970219,-0.015393108549367332,0.0489575498608053,-0.0005185697868525354,-0.1001272601025153,0.008179557999856833,0.008844247786685099,0.02648398901993379,-0.03474789143318485,0.04153053732291656,0.08309623112738436,-0.046819216893936685,0.013043411087055812,0.0017067352132754607,0.03957939779167576,-0.09212348663732842,0.05568886937620185,-0.025602475246882493,-0.01187751934712107,-0.019897313016995318,-0.004153389284494695,-0.03201163704250416,-0.01040255448872126,-0.051237912093033154,0.004047496530922318,-0.021516691817201117,-0.11246226237815064,-0.038463140210931814,0.006756458648219454,-0.09084089018535581,0.0045594373749408695,-0.03812597365467892,-0.3106004344524544,-0.025929337882449537,-0.6262141631203698,-0.20331699059800162,-0.32588282593125084,-0.9298517159996049,-0.1563581444727534,-0.026439993975113735,-0.2549846548271281,0.2214066426165052
153.03245544433594,1.3302001953125,0.5184591091476229,0.18325483560208544,-0.46732001376441723,0.06125509267847912,-0.08924498334070885,-0.42546276399696514,-0.3499248625166513,-0.04314214076638425,-0.5813775714009541,-0.5369178577391611,0.16385546601205284,-0.046618754592845986,-0.11752268593812609,0.1477072101008666,0.004551967996277287,-0.07732690060888069,-0.06519595976236278,0.06462614084573313,0.11796445636173818,0.03969202357180272,0.0049146012377678985,0.0671855600726302,0.05443359310441292,0.05637031514853257,-0.12004825970733474,0.06811903309850509,-0.04785919615350611,-0.05778926263232351,-0.03671346456326347,0.05034853426178108,0.034447650859213315,0.017132675994892575,0.013748066191126795,0.026680015602463057,-0.012887045599875222,-0.03316090030770508,-0.010759042973416023,-0.026765840599946265,0.0007588493481038403,0.036636136171332205,0.12154122037318153,-0.024365454386312026,0.015675933247950864,-0.00853378681089329,0.0034435871226658477,-0.01223906805433359,-0.041454945269486926,-0.020658584614157944,0.0067173165443541235,0.01854228489815629,-0.07207894856855934,-0.027715221330459998,-0.007205178672464142,0.023291187264789355,-0.008692617779613915,0.057034523620762695,-0.011617094175715822,-0.11688246975194722,-0.02971104334994923,-0.012301930926815662,-0.04471497985491214,-0.041017289654789166,0.010225084414578312,0.025179075872504203,0.004690426860040554,0.019918980199981312,-0.011697643954331814,-0.0014507850960773208,-0.06756987675838648,0.023893849358426176,0.08272577970847984,-0.0699515191776943,-0.025376191465862508,0.017704076706615474,-0.07289986917038685,-0.052414180381216036,-0.05081346641478297,0.02423772269472887,0.04993173241604017,-0.004602889313791797,-0.04779741637393454,0.11993468466046303,-0.001076475071868574,0.01877909950681286,-0.018311335659743518,-0.01648446407433689,-0.08767775706923436,0.028350572602617086,0.43840995779490616,-0.05943559738274504,-0.25709382976935236,0.5746490921368982,0.15685979444290812,-0.12116860068618218,-0.5566788008072798,-0.17663081299103806,0.03887805330240508,0.040949460028300425,0.13035552948532428,0.4062636857489504
154.36265563964844,1.3397979736328125,0.2784583902524347,0.1925252129201412,-0.010801721284636925,0.33672519064514334,0.7706083510728647,-0.07920183396985211,0.135019221837636,0.169782211872209,-0.5069153933936755,-0.37136282715870406,-0.06627567339942655,-0.15786340821352854,-0.0012279795294587864,-0.0774926004072412,-0.19524475953387269,0.011176906301410371,0.0208558928699817,-0.05454235846654798,-0.03942443416321618,-0.0776481386753039,0.03163174428505062,0.032741429562804944,-0.045458444677055454,-0.0568395649273179,0.031022637688473947,-0.06065684853948239,-0.02827179909488344,0.03281028320519531,-0.06586038579917045,0.06304556639713807,0.0682857079805253,0.04886897281078409,-0.04723666372870504,0.05799659869510338,0.08134074176362123,-0.007973051536820187,0.020309840556173468,0.05144922544345756,-0.02978005061199525,0.10650068937848946,-0.005544470592228167,-0.002739729610729061,0.010044174488519193,-0.07360424863772165,0.004841140639163918,-0.08138167522053258,-0.026002776017158488,0.034149235797773556,-0.07542487807177979,-0.01435451879127002,0.04714511044470143,-0.08564059153664395,0.05707976566198275,0.105450328040408,0.026884247924039126,0.009633358539950516,0.026072123006756057,-0.00017493731702045303,0.0340433248982743,0.07739087542805606,-0.0009324119147930015,-0.008743319720582605,0.01867507338216899,-0.007235807017018009,-0.058094324059078106,0.02018568093322819,-0.014096088695361345,-0.02636262223902998,-0.045722428565665094,-0.048396564533584784,0.07271795942151449,-0.070818237636604,0.00560333249556081,-0.053251438708302956,-0.1216071419554265,-0.06554505430509035,-0.01693201496075571,-0.027592474730150886,-0.029721000833873475,-0.0345844098995838,-0.025014398814938065,-0.023463042451625622,0.13360340685451605,0.014098725263200391,-0.03866253866481915,0.055876967150417,0.08772320363420998,0.3200285427671411,0.24113541729707255,0.2560918037299619,-0.012552219901706187,-0.061180425783533346,0.6081912167837991,-1.186282156258518,-0.1831070586241059,-0.7303288764797431,-0.1637384811081236,0.2030705196412941,0.14594545766720032,0.021172204416765095
155.70245361328125,1.339599609375,0.019774205890575713,-0.01365269185369692,0.0929838773818792,0.1500527090107739,-0.9438927773213401,-0.2431228909939422,-0.15265535810613645,-0.43691476270331014,-0.020365000416242042,0.11616779102113371,-0.06753796524194253,0.29387338350634973,0.08736633542455152,-0.15191824013449992,0.014699497355477672,0.055585216345603254,0.013779466910265633,0.14719110941017982,-0.01959919277506913,-0.13185297919998956,-0.2588659558997575,0.08382143716928153,0.0752661000881984,0.5166841383594617,-0.028698949879122415,-0.07410010655775716,-0.07509061925894459,0.06842682037484074,0.001971326055120487,-0.04227562316022366,-0.015520814240745473,0.08081305150388107,-0.0022570269457078307,0.02204993640507802,0.046216801278322964,-0.019162951090013168,0.014886107470347201,-0.002793908733924679,-0.03820232543637851,-0.04871196042722822,-0.027951303479995915,0.005784754911573261,0.04427812481971143,-0.03965950344479113,0.00018501416007804864,0.007263980618488026,0.019863327975786875,-0.04577435280443512,0.10546461293950556,-0.008503203499901139,0.01211763809546111,0.07643401494995189,-0.02235965069744615,-0.06755714224013554,-0.10864415886055097,0.034842212604657904,0.03606485992185637,0.006556009584206605,0.062157822358020254,0.011384014647310464,-0.0460901871836995,-0.07510206020284034,0.06790430053316815,-0.02279459746959538,-0.035679622483428146,-0.03189874639560417,-0.01739272713958972,0.030722736591763018,-0.026847183992867413,0.007569221204479752,0.05275232117765869,-0.052407643759876235,-0.05799861421100974,0.04002442368824561,-0.05468860495453027,0.08104695221882212,0.07745043355339508,0.0012637097836838411,0.0753885419892181,0.030779363170180634,0.029137590199582314,-0.04741261233543907,-0.03349343730820172,-0.010265157610056364,0.008396078967824443,-0.0416003999207801,-0.14782824652003737,-0.12254852734358454,-0.20359456875711449,-0.4211823561072837,0.3599084407796994,-0.4352123395859788,-0.29932835817768166,0.04532640720940201,0.43240632742364865,-0.9490089444838853,-0.34692022886516927,0.16353086700224817,-0.10070290631392982,0.13215719114668104
157.04205322265625,1.359893798828125,-0.027115970921200966,-0.12398594819696286,-0.4197099532115181,0.08227521048690414,-0.1711392839913009,0.6371517899521569,0.09799742132347365,0.5779033430100043,0.4515876405806095,-0.2335194242002977,-0.2745751988308891,-0.06916759838484618,0.08940634457383892,-0.3715465179022684,-0.21313219989655804,0.1322810190496277,-0.004025082399761731,-0.02360156462770685,-0.08949879443713961,0.08355074131038523,0.013095218606817399,0.00048714657940970044,0.1033005318465805,0.12959289048558825,-0.13221116215799122,-0.0461414416093078,-0.19590311507389466,-0.055411759714044176,0.0008585554513146175,-0.03163172510162919,-0.034460258645540746,-0.06021554498594231,-0.1750923796435055,-0.06855356799002811,0.05313025420617768,-0.14668708109856005,-0.004609324305918399,0.0116038924314636,-0.003338758177314159,0.05597962406335368,0.05871478493795838,-0.059218955901496895,-0.01802998954286171,0.04422667220184536,-0.021015486267710395,0.015718942411240507,-0.005483618060775613,-0.030006014405260482,0.014764801662283925,0.04211571953530326,0.12990267142181489,-0.04904650483383214,-0.043106830109638714,0.011505966898324622,-0.011683222209878278,-0.03902530872036665,-0.02907995507765327,0.007404512200501431,-0.04009859417811146,-0.11212253594617502,0.03476600223281462,-0.04693237961536347,-0.08247807462735539,-0.013915886464982027,0.05863866629804515,-0.02991241681388793,-0.017435628292952834,0.05541106037037661,-0.04785249821434796,0.02487670714502203,-0.0051177209279612244,0.015544651879416057,-0.024693711326942192,-0.03252704445641993,-0.03888030988936762,0.048300167686806346,-0.10433960759618972,-0.03697371120398552,0.03457107907522968,0.057330801239969906,-0.015268260859453467,0.12605030276137744,0.013222972904745918,-0.010923206089301528,0.009861116360077186,-0.0631970465116928,-0.08807990531888092,-0.4304684474486972,0.1005963008321152,0.29320571368864784,-0.27384181883006803,-0.014932830983982463,-0.4429930053573331,0.429202804330236,1.2443449149253791,0.46502799123415217,0.2513275958125674,-0.29333161938289726,-0.39309656869556386,0.14578030438834877
158.40194702148438,2.849609375,0.0018255127381916203,0.4275003141817555,0.4526713083694175,0.22531986135105794,-0.2292913166916834,0.4400445987466815,-0.10993399369248372,-0.3997720635783806,-0.035188670945707434,0.003136555302116234,-0.2455844094195682,-0.04349321673315783,0.010910440168761772,0.051912344484587855,0.02384359509235459,-0.003983546721402411,0.3785042119886667,0.06695498924072348,-0.04115447052464506,-0.02188150067890366,0.11800816171720249,-0.051116780571077096,0.11423577603362299,0.11367107790770008,-0.027818601779246253,-0.04235078023575013,0.010564439318073672,-0.008651159523453529,-0.023762281175263827,-0.0005339763307365738,0.012835821556219321,0.017518448570233342,-0.01513162734203112,-0.111080277738405,-0.08719862383136688,-0.09870522358379714,0.03286995466219133,-0.002418119901724497,-0.046975396408204466,-0.027057660546418907,0.015498194521365883,0.039708978156834086,-0.03666773144752689,0.033960040923328744,0.13971989428744924,0.04189227467290148,-0.015789253004369515,0.003144576521351944,0.06239985584580806,0.002758115008119817,0.02904044457597685,-0.04736748750335498,0.015739237814424375,-0.012651926152769576,0.09289528808511345,-0.04109254713408127,-0.010522284009814557,-0.003694271316763097,-0.04059652876272024,-0.00860470893602325,0.06031364375059209,-0.028451826667156274,0.02082555566593735,0.038262923028498284,-0.007129549716122115,0.0003907796717644435,-0.001014776725931227,0.017134407109444853,0.008273369249730378,0.004394430607065484,0.06725705624374671,-0.07013842746752544,0.04353410389955374,0.09490775978560234,0.006349656985843503,-0.01344023350031398,0.004053396055262044,-0.030731922142281973,0.03829443351810614,-0.06810699472592342,0.035193945340623575,0.004505979187164837,-0.024059103972721735,0.00038679063305880517,0.08695730288682037,0.0038166064140698537,0.06853954077329644,-0.07458871096660295,0.311337219796891,0.1932471289014762,0.18678496852512916,-0.09837874915297261,-0.3519197512019498,0.18248219271287097,1.140193184224727,0.13357383716136023,0.04688977118101117,-0.10123112525155895,0.38318135363631134,0.19856622764569162
163.93104553222656,1.3097076416015625,0.06081000840089108,0.018566416638240792,-0.017442413744385474,0.04680778078594576,0.13911482570488604,-0.00044442752920053095,0.36693609587822007,-0.2697000547203614,-0.4390376594163228,0.13096067902246875,-0.0010989170184570116,-0.28157760942001253,0.8253537795360325,0.16613218200182908,0.0057985296412027924,-0.35536986580728025,0.0153711711437814,0.06520448535123739,0.2572750857288598,0.20121348740238867,0.00844693263890232,-0.15714172168122628,-0.02034278596145022,0.17982341112938202,0.0811159341947623,-0.04853480395904913,0.09381999285000378,0.004256497358165979,-0.0437744255434723,-0.06509550183215737,-0.018882573647950755,-0.044978015472560993,-0.013170421294258208,0.009771361458558775,0.01867490004919968,-0.0006523107012933091,-0.016772557324200327,-0.030802399353123303,-0.02015696236932892,-0.04088806724365649,-0.09195350169093798,0.022942535904972857,0.06729409113361326,0.01335090654111379,0.041206907739795975,-0.02284681732062098,0.017307971854153788,-0.04882708414176803,-0.02696771206986929,-0.04103101833257008,-0.026638639857874617,-0.050441186774883864,0.020743393338160554,0.038232052895799576,0.047936745131943855,0.03522307728672195,0.018536954552558885,0.021189175353815117,-0.08788296920212035,-0.1566235763327974,-0.0715896811788096,-0.051494993888540494,-0.031047278797785217,-0.07259620790006133,0.041032839704165915,0.009385884994833369,0.04138607579403311,0.08138246916688555,0.03206639873935514,0.009561224811955316,-0.04829330956269011,0.028360542694714025,0.061026854305485725,-0.09381881088830525,0.041133388040369,0.04455314888098509,0.004549955276619975,0.0712840057029915,0.010904195848469925,-0.05149505194554564,0.0719487795812569,-0.14768413303033884,-0.003318861643328833,0.059284515019562986,-0.004326006732430046,0.03775954357516795,0.050331783979015284,-0.10122130263217984,-0.4704709084287628,0.21036292893603098,0.10404484180671435,0.35065095096644494,-0.08742747004121479,-0.4943334711279415,0.2418165694124845,-0.333922207041563,0.1306562948493571,-0.032124944970294105,0.016902794632813682,-0.1530286968974817
165.24075317382812,1.329803466796875,-0.33044284756536846,-0.2972497435664967,-0.29298647217974444,0.12693875972059077,0.5232624031695408,0.3102583050725992,0.3464397592756668,0.3150518117798668,-1.0596753771776186,-0.8673019419076178,0.12314538619653609,0.4161491064269124,0.2171125969383802,-0.0028441511648994236,-0.07887839268000295,0.08439544815040231,-0.0011132066417607529,-0.05230060873221327,-0.008805251411725118,0.0793097151053968,0.009072962972308167,-0.048546839572493186,-0.06841040880854472,-0.06623658197943415,0.04556323846083179,0.11591802191532287,0.0037201509501074174,-0.03843889245816652,0.09462248766832704,0.03537402606799564,0.02178908259349415,0.04931754282538006,-0.01992021293994638,0.014151875633919987,0.06306553459937084,0.021780558516626452,-0.048995922483701056,0.06888830340128005,0.01616017251767091,0.04096680992182264,0.06156500858532749,-0.06686618645265874,0.0026626556091894358,-0.02866827331114616,-0.003940420085191807,0.04884880088597483,-0.03931428485721021,-0.0019761776461193134,-0.07565488463754534,-0.04437107286127588,-0.07450472990032898,-0.028587711542348078,-0.026764833935475494,0.0015807371204212479,-0.0008433382227126499,-0.02847798791807918,0.006233202176539155,0.02305757685049548,0.08863229656964763,0.053293421679180455,-0.02507091427205538,-0.004521583277262769,-0.0034320356686756604,0.0588304315755137,0.009242261604204877,0.06977801097943666,-0.01667580496847478,-0.08872317702547558,0.11108749792112035,0.020153163240731454,-0.010050751983253444,0.12197349693688284,0.02377268684660388,-0.024270164804952116,0.0860011086502536,-0.04435017622053528,-0.012260585090185903,0.007993620536527725,-0.08483172436780236,0.020548777860005918,-0.003583405943288944,-0.021492842275614314,0.0005929674022439749,-0.0012962997597498194,-0.05583955522753124,0.05277365512368799,-0.005071371962381818,-0.04222200464390105,0.08609791642207279,-0.11623328154386119,-0.19415174478109265,-0.23799250486136062,0.3781528944690818,0.009950123230204791,0.23705820586154502,0.2529219524565609,-0.04223226998830598,-0.15243377926818338,0.18300337334561495,-0.022666004729442774
166.570556640625,1.3097991943359375,-0.03817412098877679,0.07360852544033542,0.26632256373211627,-0.43073085510129117,0.07908493987624968,0.11457575990176545,-0.04874483049558885,-0.012299458239740987,-0.12436164798965724,0.18359439918208592,-0.29640032697652546,-0.19522130355535786,0.04985333343282864,-0.28396520452675694,0.32357336734517744,0.5187354486338949,0.340831239886565,0.056363599528337485,-0.06041043971000191,-0.06725470635662516,0.3797579468188819,0.13886974021948922,0.03798527854343345,0.22524984236098286,0.03138646928601199,-0.07223705822954589,-0.016727977602389064,0.003235659260321361,0.035834781676750756,-0.052049746413615566,0.004125850856830135,0.030441892545388004,-0.12977659608788766,-0.025864634344363445,0.05694744414262178,-0.056775929228597935,0.035845631062369404,-0.10199994864593127,-0.05683905940459237,-0.02312799365808055,0.021802555910958147,-0.0052499467664805675,0.08238046391264683,0.06972340812925559,0.02193495131287442,0.02422485342770862,0.045966880045272204,-0.048532613297941556,-0.03450414722703381,0.0036466201851375335,-0.027253729564307935,-0.0020025326376349097,0.024148311161447028,-0.024913310428735038,0.014519647877501003,-0.051233457370077805,0.0034592207309748373,0.007797202994171326,-0.0008471170676970357,-0.02418722225758454,0.0343876934767557,-0.03699492267353016,0.0741825220740912,0.024907370957725362,0.0022950180911732376,0.01379549302478332,0.10099025551929967,0.0340576241458704,-0.005158355801898797,0.04691665331664227,-0.008238392232980701,-0.05898709454369252,0.08087817865875102,-0.1063684162075425,-0.013350467142530787,0.06827341362794957,-0.02920057038750962,0.012541468867920787,0.10053355395925599,-0.012612293305311615,0.05800135773092076,-0.016549018576683214,-0.06565761047639627,-0.025164575086388113,0.007552381891052742,-0.016777351392177852,-0.06788309003144327,-0.12909457178450562,0.4693865381448441,-0.2838255992793782,-0.14063254428212907,0.1489661036555012,0.5904265650353939,0.09542082090913259,-0.6389498987173589,-0.3184506597612745,0.13889666963600672,0.20979741263759416,-0.03861783432381294,0.26699772487744705
167.88035583496094,1.319793701171875,0.11564788130751033,0.13136329025370416,0.07251054970911171,-0.49317569260707106,-1.0140650926935222,0.07997273668465446,0.04769438643687485,0.07178950272066775,0.19603490960494216,-0.016940254988723147,-0.2575001704607144,-0.10857991039489365,-0.13681154462061257,0.03427586243443444,-0.0238034035699726,-0.015256862035932526,0.024887453568034196,-0.043106782525286574,-0.036059114662357186,-0.03666018890416425,0.03781616381421234,0.1091284731218502,0.010704864849918056,0.05950720144860139,-0.045460831663689596,-0.02178604708562748,-0.03422663293553112,-0.08079734327257221,0.04781830932458178,-0.026645406128817353,-0.051813024595904304,-0.019384635170114534,0.004843049383587929,0.044596904852938477,0.04604186745115795,-0.006063650183423752,-0.056859261921678554,0.015343559831026522,0.015537966165669189,0.004005572452971682,0.030030286902296185,-0.037200511057782895,-0.005963978243661512,0.017780717615034858,-0.06859037412371298,-0.0066458838790750124,-0.011927310688898648,0.016165292660823054,0.08751195777190685,0.04147778683574558,0.06480857426915292,0.07058986056224159,-0.05965578871887631,0.0039758525644866035,-0.0007265802617798245,-0.09351118550037898,-0.007483265338857536,0.005606244599846393,0.01447445454619364,-0.01480462285888439,-0.04760152340682646,-0.13215823414187883,0.036548285808486444,0.04343609536510017,-0.11046568819826083,-0.05883883654103561,0.005816083254049856,-0.055821002373314735,0.019709367635866087,0.06928755358958755,-0.09802726682611701,0.06679592015055935,0.06393835311979859,0.029821038897795124,0.029509379316676496,-0.04766845372362358,-0.009511027857334028,-0.027398554113237092,0.05673570345717771,-0.006134209789478793,0.02624532128386545,0.030943260349870893,0.03992592387934447,0.007438680332529557,-0.04278991587616297,0.09041604542709247,0.04537839619597868,0.1770579580740781,0.23355329861847215,0.22805498852287986,-0.05539569793574907,0.23713214911877112,1.1097183301926332,1.0427362354279024,0.2581218867181701,0.41051072016993123,0.33824834250921526,-0.22275922224688582,-0.1383595360303819,0.29913294511660393
169.2001495361328,1.309600830078125,0.2857561986733927,0.21397527794928914,-0.528156337471998,-0.2770946970232497,-0.1265217346985677,0.039510235783310164,0.32492563829141585,0.04173445125369332,-0.06610555916266267,-0.26946420542624516,0.11639383101886436,0.0072701785392264295,0.024058533218028172,0.1455545401219657,0.32509088670895103,0.02068073893410901,-0.22496769935423472,-0.029388342158725714,-0.04237473823433434,0.04575283459879542,0.03508512304844977,0.09555810696741758,0.10541988272001707,-0.03371797838061821,-0.014656298715126082,0.002148502042737008,-0.030129482856622116,-0.025004200080902275,0.09077032014535547,0.0498739154523561,-0.03984082417694169,0.0019173627204407575,-0.011910709578364362,-0.0064775200718159625,0.010738701414971295,-0.0030986553450156515,-0.010970358238463153,-0.0005606485060100754,-0.0031801229975854522,-0.029227856681334555,0.06535453113812711,-0.017812392535373707,0.0015299058212292817,0.08963309906413536,0.004979419476597644,0.05884370000364776,-0.024718849311421875,-0.020371799464284274,-0.0335411244202834,-0.022534823112346954,0.0007271863365006255,0.01875811923460018,0.03138366243204196,-0.024496176721699844,-0.008026696604573861,-0.004639041184244496,0.00399004334946398,-0.07708681455520201,-0.019990032697283347,-0.004635749804226978,-0.0790120022973381,-0.020967468271431894,0.043159600573427485,-0.04897646608783057,-0.00930640460716918,-0.025115765290402804,-0.06827229480001164,-0.004933287893764224,-0.04493876577039075,-0.004803543340713828,-0.03646091170913785,0.037462286944171905,-0.018588402406239796,-0.03389033003081644,0.06977582088973416,0.010172062294806598,0.01110009218258849,-0.04264576656447888,-0.05352799293154174,-0.01260333996800217,-0.03715518743108573,-0.003992428635099208,-0.08938962937937597,-0.004258118551452181,-0.02493660075422652,-0.02168066602553729,0.1826818169470203,0.05322309199685825,0.11470104155931289,0.07466977134914086,0.08091622658078979,0.3921702371280103,-0.11657307736357048,-0.002875897366213881,0.44094615971065615,-0.0767922091037972,-0.19761039637738387,-0.2563763060934897,-0.01116289874386045,0.12300767219433972
175.9783477783203,1.300201416015625,-0.3560477342206507,0.14249153036764153,-0.004107792210533853,0.11270519088111695,-0.4057552831454503,0.2147398913537011,-0.14143077068957305,-1.4169267730944073,0.19746405371399964,0.6013226415582269,-0.13333865081914495,0.0012363523409356925,-0.1521234151727355,0.22106420166903476,-0.10048865437516495,0.19120727932928752,-0.012295520710425136,-0.027349431377140982,0.0277016624388527,-0.011060143245678153,0.10732051132497879,-0.059245989965915846,-0.07583431501345868,-0.053044103584777944,-0.21984075237202697,0.021682990432034074,0.05270876938716893,-0.05527965809336516,0.01725991291325779,-0.004198115962749384,-0.058154343673215966,0.003472926492923592,0.005792558365596992,0.0021019017353743393,0.04827370494314541,-0.002247877575764178,0.0702522656368122,0.09171774479927895,-0.03813025409650288,-0.015873916570424015,0.028096693634893626,-0.06417328211949891,-0.007957075518563573,0.12910563671496295,0.002719577134639481,0.0779138963789456,-0.003570541353312239,-0.040425151685633216,0.0010413425270758823,0.04571644450633454,-0.048833596935276946,-0.022819637496578296,0.002269720259000638,-0.06281214216800735,0.004643498051712483,0.023141037470980726,-0.059738597876235686,-0.026996831090722623,0.006918688550302694,-0.07374275429473715,-0.010771723115008059,-0.016217776188041298,-0.06452690726413812,0.05246011225753266,0.04396503351269359,-0.0038494071452595553,0.01015098622413734,-0.013751065991842778,0.022018716036773207,0.05161507544091566,-0.020182500515631537,0.020751757800279394,-0.009900702907894396,0.027674499311759505,0.04186116300068294,-0.00920495954127701,0.00051346899474122,0.03319664065013497,-0.01060716152469117,0.08302854922778032,0.06235047150378279,0.007396476279284844,0.03695066314096386,0.08087794720784085,-0.002337749552409285,0.009031873784917986,0.04506635996821019,0.08822054090271526,-0.13255596500174935,0.21182169718248586,0.2304744622899375,-0.2966677652463424,-0.4335017002396502,0.6432168366254744,0.18018526596487905,-0.050452744984727495,0.012099230824077628,0.01942602708205449,0.030731606361096054,-0.38961962702812947
177.27854919433594,1.3097991943359375,-0.5227745128247345,-0.29076111565500184,-1.0228653595822685,-0.8050091185569687,0.9796056079526498,0.5790761695033544,0.3975568325357243,0.5740221715451415,0.8392203000808225,0.25282324498507613,-0.04316581625315427,-0.17285251222071005,0.11207379902463853,-0.23914857772438153,-0.4387766189247107,0.08013431212445335,-0.1643082752452465,-0.005787246084671252,0.010752961789544487,-0.1592005319602208,-0.19132892996327128,-0.08495571095288344,-0.0676150368281512,0.01737029956434749,0.07600872861294326,0.13422370452610194,0.0033774015984708704,-0.04294647922576578,0.08713178429489239,0.019076489329995276,0.01385229697106148,0.00258961655743458,-0.0026711232751257404,-0.027518440650990593,0.14762833157844352,0.01343523857490906,-0.04984446895540008,-0.022330779800650055,-0.018674709643216537,0.0008034916269840396,-0.0183732821851908,-0.06564872473587341,-0.011902865804200797,-0.05081840374691644,0.0038582289616073033,-0.07294342468024709,-0.002834761543935521,-0.028602252398052766,0.005642046006571795,0.05013513607854836,0.09536646683981355,-0.027723910042538664,-0.005427964067324046,-0.004304800741849674,-0.009452178430733371,-0.016385479472125323,-0.027382929169504654,-0.013133968654770258,0.016040626438842086,-0.04545978887033701,-0.06665369670049265,0.018922953313878457,0.03768639756055637,0.024758555488966452,-0.09330177765548864,0.0027615819168154915,0.05866914281594156,0.032285711396634956,0.030074169938646582,0.07717412738818438,-0.03352397825647658,0.007843567640350456,0.014141835870200592,0.012949585869226074,-0.00380455690045553,0.07272269542103431,-0.04064298616991579,-0.03759637088270764,-0.08180454473607221,-0.013736726035385003,-0.03908589366627248,0.03856141122226149,0.020703340158287745,0.018233675387186798,0.004414436482008243,0.05054385898684546,0.019768080248325142,0.11811055969139009,0.4011123987424607,-0.0014285696049267374,-0.37067544743482445,-0.4923945099582361,-0.7852432489345093,-0.004181524993148122,0.8909467115239273,0.4762494485202667,0.01174827537404163,-0.31968029366253936,0.044369454168553354,0.2406697807971302
178.58834838867188,1.289306640625,0.2591387842254177,0.08256870978485109,-0.050905095328278166,0.1208127788123789,0.2840726743792951,-0.3833395173488849,0.11465748567702619,-0.32535216323389393,-0.09979163128561193,0.2897042788418789,-0.25879554375047287,-0.024906629884467332,0.10705462046063063,0.49256922385873203,-0.19490898199379272,-0.01720535067541001,0.2147009144271319,0.15453895558888772,0.0389460827248771,-0.1817867217133309,0.09689215412371184,0.052042372971231196,0.06841456896277763,0.005241842861128807,0.14110712151502752,-0.0790857881125524,0.10973226905223897,-0.07507615443984021,0.0528200725734963,0.12226586115412977,-0.029689087068145742,-0.0060562197240378035,0.012773865419196716,-0.021881592545006222,-0.054545037180744715,-0.004872160060628446,-0.06016832963144339,-0.014424565871889911,-0.05554790901337522,-0.0404352313519063,-0.012427092888633386,-0.020421278658034166,-0.021093009634703962,0.0030916491187193786,0.008696626125308218,0.01630529078828066,-0.05415693978640615,-0.0040342643663982825,-0.0015035456685372206,-0.0496483281049118,0.06910554183493056,0.044643216369436946,0.03162377604354559,0.03246801262435274,0.006788466788753497,-0.03730510059469732,-0.031059547250725017,0.07845726558264166,-0.01828635439360248,0.010523369407675861,-0.01945060131220501,0.040037428136809466,0.04222735814091027,0.04596254690385506,-0.019197550036287803,-0.043453301425635506,0.11341425075680658,-0.005225588218733217,-0.028028025240501696,0.04697553234908697,-0.061938205970180855,0.033702089401310156,0.06764882951173376,-0.09446845946638517,0.006436718148793277,-0.07008778357424293,0.0034398456176696294,0.012717248709938586,0.04532033990191367,-0.024421284378051793,0.007677910109752246,0.001406225495354215,-0.019587390237513474,0.01073410484746277,-0.022928023586458506,-0.02666314536687713,-0.04133576506793045,-0.2717130010588136,0.7729493099309138,-0.028692906490324,-0.12057014540865285,-0.030957304660315335,-0.9282395939104405,-0.831614781581355,-0.44553972313419576,0.5395970773851488,-0.2011534744095626,-0.15805443695712162,0.34744308635645244,-0.04835254637598863
179.87765502929688,1.3199920654296875,0.08529919019866444,-0.09204671137600894,-0.19564681253401414,-0.7103489598375262,0.062475041952827826,0.1692993535471538,-0.33163729526223096,0.2080252509641947,-0.5163900312758932,0.05338569041501419,-0.056728882164457,-0.23691491009636578,-0.036659178902292644,-0.19548254235195656,-0.3027152042958384,-0.2189977710673728,-0.06197031019278697,0.1425417487979186,-0.12798371284954047,0.14466266287063373,0.0992178886251295,-0.15467854077460882,-0.025553299666839238,-0.23299865987603532,-0.1487008893295339,0.0890699293582449,-0.0623212251168449,0.06338842230246061,0.020666925267740697,0.04979509016225445,0.09181072967579665,-0.0411984255389119,-0.05625935841865392,0.019175048437235304,-0.12436651713997791,-0.04255776183230482,-0.006863931836809757,0.08638679705757431,0.043179646254736054,-0.003806203345022802,0.0731853776195839,0.012219579257944953,0.0012690752596042076,-0.02536589805551457,-0.09531982828236799,-0.023441017186005258,-0.08245594752125698,-0.06423182703761429,0.04379653696412478,-0.004667948084648359,0.04154137389635458,0.035531042812256435,-0.001962821500564498,0.0938436505156348,-0.04081942460436029,0.042617913012829294,-0.018780660308163638,-0.06177094864078014,0.05709961603876021,0.061968374858108154,-0.013748539222386134,0.035974105281139285,0.0031951520499713185,0.03839551540087856,0.022576026537641094,0.02486354604994011,-0.01718557408041123,-0.03128082111229587,-0.009648957456566805,-0.0043723966858008586,0.03469728971123291,0.032017789854797404,-0.030239741437092637,0.04181942085539556,-0.0845222219364257,-0.05560593188939751,0.009313721248450188,0.015166215703019223,0.023371003437671362,-0.05117825370721017,-0.025765573444533584,-0.011243820055374942,0.0377029908379564,0.011163448118631885,0.013739081223945248,-0.035456016841067126,0.08199213404722483,0.10908453304466756,-0.45035339030476446,0.48247121621531497,-0.5572341026749628,-0.3367548513553997,-0.4468259860488905,0.476598362650697,-0.4734118569276694,-0.24322303107769927,-0.40891546966824405,-0.26039842426405385,-0.07373072381406125,0.1789996959080264
181.19764709472656,2.7996978759765625,0.1990110749536782,0.14882122809694004,0.04044131622325341,0.19768060681295338,0.4623367526761405,0.0027380834870091575,0.2883241598915389,-0.22421593799427134,-0.17278080012185618,-0.35472304015287404,-0.16064842105096178,-0.008718438775197151,0.16127298900860368,0.1527575680704429,-0.1716263932437837,0.01138045711040777,-0.06638485180973111,0.024601677375072826,0.11451627597345529,0.05160027885858654,0.002540421619863016,0.0183782385909739,0.07409514718489754,0.07751212520768151,0.06555769205567866,0.014315937773581451,0.04311700699991015,0.08800553497234857,-0.03268414156541881,0.027674840826850004,-0.0023809728772140075,0.0073412059810815024,-0.0868986815107942,-0.01887305771103914,0.04451265233925544,-0.007507621343483541,0.04391664862513256,0.05855863721141473,0.011594859692096657,0.08188634430416654,-0.0012516134921788532,0.02469636685778693,0.0027766242636897303,-0.041874628060081846,-0.016794070111745007,0.01378634690172678,0.02790135142101316,-0.02477183641164063,0.00038105322755375656,0.04972789749191173,-0.018559733346930042,-9.991520943896477e-05,0.1019055842860299,0.053114538463355204,0.0028407355520063196,0.02962167932940861,0.008578413370569499,-0.03049184850184689,0.00015434442669011005,-0.01680116911924915,0.0019920792387727653,0.017163837713984498,-0.055175999416886515,-0.13448864616974632,-0.023188788294040825,-0.065690859577147,0.01680713006214919,-0.01496233786507601,-0.02134180195989241,-0.013617000952251462,-0.044576180112890836,-0.04690929804389034,-0.06022393616369173,0.10484672344252692,0.043167519502167885,-0.09311382222067024,-0.074309920576857,-0.03427570898499022,-0.07373579624780283,0.02517471817924149,-0.024219352465282347,-0.03248806987892495,-0.00643711377796427,-0.1015182474913834,-0.12425029086971107,0.013926724672066543,0.018907344840511403,0.035908577998574165,-0.0010382086212493901,0.005248872654171094,-0.06307385391751508,-0.1314398565640325,-0.37211450970764975,-0.251116361849262,-0.006756138566611839,-0.2390261513642637,-0.5822000196177352,-0.1803262987665215,-0.04840706402212254,0.2568918854610309
186.666748046875,1.32989501953125,-0.13540892713018143,0.04362293187640593,0.43453208721860437,-0.9147577778065837,0.22145639573983375,0.10915954078027773,0.6956240098810165,-0.6783064297141871,-0.6497564535792533,-0.20618484246109897,-0.5294826502035943,-0.4225987252999219,-0.2706620864418768,0.25247130059980843,-0.04977388337801764,-0.06587379154894295,-0.01696553464784959,0.0032168320760191244,0.42014167482756554,0.11767040313461397,-0.027727148592861062,-0.019640288493067468,-0.12056366414793533,0.06129883781911186,0.17796369737657355,-0.17768365589873275,0.07413185703623316,-0.02620937284272995,0.06816242010619619,-0.07687806216651911,-0.029628481899454252,-0.03825728710531638,-0.08376618638197922,-0.010509246318712027,0.026599615696672116,-0.09563355781536004,0.0974089622697969,-0.0530533768666787,0.013274267224219548,0.014422964695729663,0.032169890801081076,0.008033742158452506,-0.0924593715208571,0.07149456138851444,0.05082115237017428,-0.029119581961822336,0.07959055382779635,-0.03371238869217998,-0.024078256588076306,0.02249636836958584,-0.04351672698280266,-0.02116618097245147,0.0058014096965889874,-0.022488791198354452,0.001893124248454078,-0.004437948172680788,0.0174621030405486,0.012917527686518717,-0.05186417750092831,-0.0012919636916672948,0.02842785527732831,-0.08133124236496102,0.01119100684673896,-0.06764209157929442,-0.02693995006732975,0.023184768392617065,0.036646411909708375,-0.0737469222548632,0.05599373081207655,0.1007679673643403,-0.06848191342482135,-0.008101598554529514,0.11053520151067697,0.022568105464597907,-0.07270835549562393,-0.040957182442489734,-0.033411692353494886,-0.07657675661357233,0.010495415920288846,-0.0708532083417059,-0.009832900090697153,-0.0022332013419402467,0.035235854481524595,-0.0027497471770082005,-0.12237566426560598,0.05090188657319309,-0.023399084085241488,-0.24531468316502683,-0.5968431677401915,0.10267285030233261,0.2327227809582668,-0.14247209341890246,0.0024356689221732676,0.015187607372334672,0.20179248452264031,0.4684971130441198,0.5207826294099274,0.04444485974154831,0.12698485154304992,0.24612775352518562
187.99664306640625,1.2996063232421875,0.2507454947841025,0.46086236497272864,0.7492070931223629,0.4191671000480576,0.028996358066740665,-0.5652969938096997,-0.078761279269699,0.5755136606905583,-0.028820225890344775,0.17343849789074822,-0.19415939421058692,0.23533763523883802,0.402723941844438,-0.07145937676258708,-0.07757410811169604,0.10497147034539635,0.054925281882172945,-0.10365961812661216,0.01773089060114148,0.11488328254496982,0.07003581637845449,0.06308410576910188,0.03678771093852162,0.06403882249879485,0.0710026809947244,0.05108936041864803,0.00811002434349184,-0.004359652598821637,0.08444667956139468,-0.02534540765047616,0.0290404134579184,0.033965173384765915,0.044530974148271736,-0.008518317747453886,-0.010715330410694088,-0.01097717957914764,-0.008143987003881116,-0.015118033001204102,0.004813604776129047,-0.03180055491214627,-0.012728599550919312,-0.009818476536827839,-0.0064876381573198,-0.014460487360888322,-0.053372367317625985,0.057936293697259306,0.011997171082970992,0.002867523994832678,0.12669473704492795,-0.06311920851154218,-0.030953701908112405,0.04443879462042076,-0.02510408118627315,-0.006372709436255235,0.031036168296397805,0.03462757567065859,0.06549672458001071,0.01922998278061006,-0.09775708322385354,0.008422331138192535,0.043903354519520585,-0.05937343605281392,0.024776886840159405,-0.06373156999854324,-0.0321973041548837,0.021405786983091157,-0.0894264400409397,-0.007932733831935861,-0.0317332346899607,-0.07302118748735331,-0.016359925750278448,0.06376278333046051,-0.08213513297144964,-0.017504268311599645,-0.015443104504301104,-0.05991739636127718,-0.0451273132368702,0.03180013128484509,-0.06303635391066412,0.017404380466147493,0.07374702009370226,-0.04039012888068167,0.021301668820399498,-0.02367034950034018,0.08020453834208924,-0.007435648880643688,-0.02910484010425688,0.11931583721226194,-0.06296206894448093,0.061849085847331155,-0.2162547563953956,-0.15212112472406067,-0.0482026329614765,0.12550060979185715,0.5237220719467545,0.42766684550895245,-0.026401764875759758,-0.19668422552557213,-0.058300590410544174,0.25576103067703787
189.29624938964844,1.2895965576171875,0.2971177519174402,0.12882307030896545,-0.15184386298085978,0.021445624501182883,0.6919216043579821,0.11172795596636338,-0.01250412769086759,0.3389397004039082,-0.3546180971576036,-0.17116584417574687,0.022360495094747326,0.17496052201318707,-0.14100032056850872,0.13253585108689006,-0.010271644110226522,0.05345303780498222,-0.09217512742349877,-0.07698318247224856,0.016530224932730195,0.12209002227537831,0.14365107249806644,0.01093511170764841,-0.16927693021226536,-0.3771298272838973,0.09082469222557686,0.016333884913282117,0.1100391035442786,-0.11490848851497876,-0.08576452224801412,0.018734203725646457,-0.08468557699826972,0.028447178147858933,-0.02744390342765922,0.034120599025277504,0.0018683179357309667,0.02365265476609904,0.023682791165694928,-0.0017931533960968012,-0.012277640571775402,0.08814390836848118,-0.10112981739306035,0.0187124823751107,0.04271224166163462,-0.09967824138191586,-0.051437504167593115,-0.06982143871075948,-0.035805394369968685,0.004486895914232897,-0.058440685826454265,-0.0006521618045581656,-0.032945679180111404,0.004935613118594508,-0.02620569588023951,0.05089569537761943,-0.009722678841544445,0.11416637649241256,0.0014856688675024745,-0.005457714888320531,0.08405413747094037,-0.05416008511024791,-0.058290093997520775,-0.005253375173633841,0.009941466948300871,0.02570022918268655,0.03301086882316331,0.0004591375411076068,-0.0275966552212113,-0.021242468139519126,0.029573408397793894,0.003950179101431335,0.11188310266237977,0.049513462022341526,0.04753542245248664,-0.0002082524062494845,0.06764425478757138,0.01219662324637423,0.026090383127345452,-0.014201863727967515,-0.05639994951868225,-0.02284786628698065,-0.020560823305318887,-0.120588667683432,0.07920067145972388,-0.05779116056633665,-0.08882282435099917,-0.03327231807190208,-0.15145649445423576,-0.3613867716579118,0.1472599937320521,0.3010288269663682,0.5228022244747674,0.515979993026392,-0.17277721265454907,-0.3205153281397585,0.25074594519758797,-0.312252088551994,0.0332853669557108,-0.3562518423941276,-0.2600830227186919,-0.21311171869565193
190.58584594726562,1.319610595703125,-0.210017784795177,-0.07862934072116995,-0.41919792963044555,-0.06332718368193813,0.23444661904430228,0.08597972863343986,-0.30623920497224777,-0.2151112680594665,0.30949606786821704,0.40063978732277294,-0.09396263900235538,-0.10177887766582802,-0.04443011426684064,-0.12383606857220239,0.010617509327939686,0.10733350355893678,0.008378089769098495,-0.020567922063539697,0.06156632318166437,0.007044269689128676,0.038735893907645175,0.01077438868531814,0.1269279286006313,-0.041460422714016586,-0.1182225598405053,-0.09842609101490694,0.060615901721438735,0.016550488589423158,-0.0002159111140606234,0.0068631972139150885,-0.00891058982873396,0.019474172680706926,0.022122580104315087,0.032015330629789486,-0.05564682438628456,-0.04930801605393642,0.07413329564128583,-0.07824418475406578,0.0007581033687048295,0.1336582665172635,0.018242398864764486,0.056698586886581345,0.008413914845017873,0.12743343709298632,0.018028145316395766,0.12680714515609753,0.03298087885917481,-0.0572921549915761,-0.003671504858543009,0.08348679053008695,-0.018340904310746208,0.012965448363860195,-0.03905562974969941,-0.11883479182612328,-0.004154893585484312,0.07913484495323458,0.10891023395190154,-0.02519269660112881,-0.014706752123506224,0.061569296739631886,-0.004663725664826861,-0.022886247717045834,-0.023118861204353296,0.006987498611756113,0.07115652996194531,0.06932987497821214,0.02638900434097074,0.045459479440172215,-0.01445282693834818,0.1231469346221996,0.018679522243937586,0.09597105537089269,-0.0404075419792467,-0.05539972002862086,0.04358188276326116,0.0760603266765535,0.07154934810075879,0.002428838373570148,0.05993078388929254,0.016998795661286186,0.009315726484621922,-0.019731526432489217,0.07704717113127914,-0.13355335321529013,-0.015052690412621257,0.002233784851138439,-0.1027069357900761,-0.3409121655794771,-0.572150197144472,0.038585472115395245,0.255480111307561,0.3600108410582952,1.0475873173708206,0.06373130455931392,0.5751686480559203,0.7781514436584246,-0.34621987868639764,-0.4483149181816452,-0.06291832456802109,0.01275548147428679
