start,duration,0,1,2,3,4,5,6,7,8,9,10,11,12,13,14,15,16,17,18,19,20,21,22,23,24,25,26,27,28,29,30,31,32,33,34,35,36,37,38,39,40,41,42,43,44,45,46,47,48,49,50,51,52,53,54,55,56,57,58,59,60,61,62,63,64,65,66,67,68,69,70,71,72,73,74,75,76,77,78,79,80,81,82,83,84,85,86,87,88,89,90,91,92,93,94,95,96,97,98,99
10.073349952697754,0.9589996337890625,0.8247930108145106,0.29186707218750596,0.37472183914616647,0.10649637632555614,-0.05234012031812729,0.002143033956761454,-0.6282092232684409,-0.03504826456382854,0.6144500725723241,-0.4849940099935716,-0.6851997629700969,-0.0765467392684074,-0.10611638575505626,-0.10528184526236689,-0.024926957587338195,-0.018614612388981062,-0.0980634783182328,0.10609922716332458,-0.029856503642430983,0.03138728877486378,0.03725967397834827,0.006998425237938641,0.1062025500874737,0.11843044408297801,0.04995565762773534,-0.01797064973102863,-0.07937079127715405,-0.15618566892285463,-0.028233287082366196,0.23075584793935258,-0.021450939977385182,-0.018922587524376325,-0.03040356105772041,0.27678201926923396,0.26879773527632655,-0.26746570252851365,-0.5494039009593491,-0.02111706886660571,0.04474733985960849,-0.07562292172459036,-0.044634937384024076,0.11841597828582623,-0.029320647125096324,0.20382314133025464,0.46548302286249776,-0.10060155051873623,0.046970687059372754,-0.19684120380411416,0.19397198110595296,0.06408297031935775,-0.006084983643258407,0.039084504597915626,0.00703726901782989,0.011503393418862048,-0.004063837561041395,0.005656704604779582,-0.012777706180314333,0.02991656952418094,-0.06985651501522791,0.08459115366320369,-0.9113072771262533,-0.0009574402274142284,0.649117646935561,-0.35862727443055986,0.4976362633300636,0.1836765727888704,0.9251771871806073,-0.6316445780030009,0.10218828821736557,-0.1513922328659722,-0.4889222061614289,-0.15539442877557177,-0.31318490886327277,-0.23334718557299405,0.6682401286539171,-0.007875046318260165,2.0214707249825143,-1.2238055012663107,-0.4447771787946126,-0.4184240773491734,0.06864948507926036,0.033806012262409986,-0.13936846337243905,0.06790412593602255,-0.27643661034830447,0.23646090263557146,0.7016332256440108,2.1799517738040204,1.5606309904396485,-0.9874745125581028,-0.9130798995732184,-1.6223459960255215,0.20495247972600264,1.2459274486858107,0.2179154350051807,-0.15455698570033907,0.0937952812675353,0.04101782550641182,0.03707551497242943,-0.5024842817224606
11.032349586486816,0.9787006378173828,-0.6795268272735255,-1.4171895955614449,0.40541588476742035,0.44638973253430164,-0.36696346322189616,-0.5552593938150236,0.057617918631674286,2.629377682029062,1.359219308228314,-1.0033575347187298,0.031433842188255845,-0.24718451067664313,0.14427914579227719,-0.3216906884994961,-0.18042572548729632,-0.12383290925467777,0.029079584719840325,0.06704047998080412,0.01826314860358788,-0.025768651973402747,0.035107258934109944,-0.05569604270827697,-0.04616103848427276,-0.005972342212015572,-0.12176276738878176,-0.0667938251582076,-0.10317569937387994,-0.07749285325367396,-0.1674675770841525,0.10867095716099356,-0.01655574843617487,-0.0320120143696999,0.17397377184181725,0.008710322618383264,-0.17870090576073977,0.1121240104091992,0.020926535707796838,-0.17030174241358964,0.3577650133664544,-0.19250338975013717,0.23433677285246834,-0.43317989242236354,0.10004572306704818,0.0835089019269327,0.03370434351657592,0.3287715200328977,-0.08364790969384112,0.0893504474880495,-0.33630654183734354,-0.12614930918963074,-0.471754763888516,-0.020353740235078775,-0.04292482072341473,0.08440254218859158,-0.08141218555872505,-0.050356820443814,-0.02892527161190104,-0.02558510168264193,0.06785735905286323,0.07076567226891971,-0.15533622170346667,0.574800207278525,-1.8730523980654161,0.6216747335436474,0.04862218916639529,-0.5576599594381537,-0.06265369967211065,0.9152889770638755,-0.6230619490206382,-0.18030933262338994,0.5051924459842868,-0.20554755232818078,0.17624678359358167,0.2981999508412289,-1.0697714308564332,0.008587013345690411,1.0876570430132586,0.6732999020949021,-0.2803754003941124,0.11664614489449684,0.09099418980630998,-0.27900425717483374,-0.05888209259116078,-0.08207326973852562,0.11484725663733793,0.2963127026340467,-0.8083034311270344,-0.2996367157154444,0.12606136593475667,-0.2582071669363685,0.8805069618957951,-0.019398818395530773,-0.11771035697673227,0.055423738511936646,-0.05571621916067411,-0.35505095803758624,-0.4613786142556738,0.1826589663073818,0.004295330668491665,0.023185548105185028
12.0110502243042,0.9590997695922852,-0.0646638979323047,0.9191022678754978,0.5218562906454532,0.598926337971482,0.931900885947534,1.416612715021143,-0.09618736155762661,-0.6714422437597032,-0.8418977529356753,0.1683524157310119,0.5219476768347642,1.3850739541961257,-0.40956537389561937,0.10531180282655843,-0.15072534351158848,0.062252538951788734,-0.016745837078508567,-0.033243958978003155,0.01565406615872969,0.007883221867331378,-0.10027887478678277,0.18593460706499765,-0.025114651443421666,-0.05562744954380705,-0.02425024602193176,0.07720982958318884,-0.06505339932907647,-0.004456745058469997,0.06195463345054996,0.01625535532774514,0.1462265811979872,0.10432228967593078,0.037628487393761886,-0.06477572685472384,0.18827335318315389,-0.046373040380418125,-0.12745248517636495,-0.2539676542854184,-0.2673757789258728,0.015603327884640892,0.39573348681911835,-0.27824708053452124,0.23858661967173841,-0.00634800477111894,0.47628876633882017,-0.264977785613706,-0.133201988772169,-0.06772627394605475,-0.08708740347531456,0.08124708912052786,0.08333871750372575,0.138054153956091,0.05306797365185247,-0.006252407379309635,0.014741289508033913,-0.0040652200612436885,-0.00025890020986498173,0.016122673511089078,-0.0040243749979050475,0.037169415852904564,-0.07667440890786656,0.506105184163089,-0.6936077424408559,-0.10615408744748053,-0.3037674205101709,-0.505734283503958,0.2795879207023488,-0.2709958152207078,0.23662758442556972,-0.1702666501837242,0.014808169021953786,0.7064563798616068,0.41369376457125573,0.48151069156153026,-0.19248202351807145,0.12414143323628159,1.4482467699662493,-0.8120444646350129,0.28355862553196026,0.05624467162120864,-0.4885070068418531,-0.17819255008459792,0.07315123106497315,-0.12747447785710767,-0.19963432687699129,-0.09850537005694289,-0.2386622273180444,-0.22415977551175167,0.44557126354080373,0.12100548156240434,0.03815360084842545,0.6116365146366408,-0.35252870765528127,-0.6082330575645553,0.38782928374035014,-0.12658347966239705,-0.11548343941763978,0.3906330791969892,-0.5424150839384798,0.12338254539869853
12.970149993896484,0.9684000015258789,0.07473682089838868,-0.15653144233730562,-0.1573518710627972,1.75866996170868,1.1177586727713853,-1.194040550242844,0.37351202132465716,1.2227239676370878,0.5849640429839177,0.017701107453118828,-0.006111343153958917,0.2950763973778767,0.08134110007105652,0.0034041259098538455,-0.023651141376242885,0.015504612028968903,-0.029884037600261343,0.0752887119843586,0.029479323796518634,0.08418408250698103,0.04185347321879374,0.027922738713869407,-0.06643375600196907,-0.16326874222363105,0.11481815525982038,-0.03117719834243618,-0.056373953955114575,-0.06760684118769189,0.014576927165712125,0.0009440638967348793,-0.03348197433430239,0.007920801614667397,-0.026558536146290907,-0.0219274259542455,0.003275982526814515,0.09525264999843491,-0.14529025992135847,0.3111896480859643,0.05267940738749858,-0.16001026709421365,0.11320679664566674,-0.26759475888579054,0.2335665880520423,0.15622700875576634,0.11657714869904204,0.3611049640190975,-0.1559583331956024,0.039204668128081994,0.008960101374781346,0.00040982274419269207,-0.09467852815234679,-0.012161795424837012,-0.01221227987551553,-0.041022534751999996,0.007874772751167373,-0.005063096517332347,0.030411311122990017,0.05253315843567856,0.04647314089733747,0.028741918826160402,0.03978007309054801,-0.06940429339979051,-0.6745767520954769,1.7193958687964843,-1.3559859182516765,0.8528101613680925,0.330303512423292,0.38093625692320965,-0.2147670895595042,0.444851039832929,-0.09599308209253404,0.19895431698732857,-0.21104047814512322,-0.5961249028117215,1.0274872122954486,0.7601457824250506,-0.692552508743547,-1.1071330005561812,1.6903115433114115,-0.6387346843190326,0.2638212858670124,-0.3488189931582468,0.2738644373974557,-0.16796482171998792,-0.2977299591647126,0.22083203882000457,-0.07262316559138754,-0.1593945946114873,0.6237598224042064,0.35614251535442754,-0.08761311542252284,-0.5092269190086777,0.26178833137358815,0.6603916324489173,-0.19469398095109738,0.18178727072548434,0.018178478033921183,0.10222847976386093,-0.13248915737650238,-0.2987800362152625
13.938549995422363,0.9693002700805664,-0.0014797857400944414,0.5028614927590902,-0.7467276326233993,-0.2294782211609516,0.9134072027936411,0.26479642240758344,1.5044876207630764,0.6802520407901038,0.34854897594235545,-1.2265446610854809,-0.2763300735822681,-0.3232184329996242,0.5822555828767397,-0.08780609167923004,0.038127138129751985,-0.022227555853907746,0.01655560701751138,-0.016268098219536037,-0.031533791166695566,0.03141218304367451,0.008217273365374771,0.004974655906211508,-0.04975588504190994,-0.0015111100150345213,-0.0017417936840656745,0.04800432597049556,-0.0009688527420438423,-0.002769984205474585,-0.007403238913516869,0.02429949119557989,0.10643909800050431,0.061622110347722844,-0.12422759704770762,0.12176024013282517,0.05058215725968937,-0.0007800008550128759,0.055930555897301476,0.11012821766159837,-0.044626608383750266,-0.03434518018380882,0.035941616372573246,0.13297371979846856,0.26232332562247995,-0.044031393197136455,0.03859448666792531,0.13740790977464468,0.07131295889317465,-0.21050859119025417,-0.2613709736911625,0.06614487428102607,-0.07668537910347664,-0.06989265897842857,-0.004171312207200835,0.031935834197081285,-0.012586960610197378,0.024578912448667993,-0.005143664970999216,-0.006430473093839698,0.028162975343730915,-0.029488852379957787,-0.19214419744696698,-0.529693147869576,0.13639095217533606,-0.06439664020276366,0.06910779133655182,-0.2991169706959737,-0.1956796167822873,-0.009934565383262116,0.18588202894984315,0.27629482359888285,-0.001287227888557469,-0.20510300308525745,-0.07736716396688136,0.6492958263741115,-0.6952021527247022,0.2556512310538722,-0.18422216737503494,0.3883290935389568,-0.19846011487225407,-0.1879441588470595,-0.47757893854259964,0.02605099130650243,-0.0894435171866969,-0.1460870290960921,0.033280481218390105,-0.2980475789350493,-0.3512948052432915,-0.08473635123854806,0.6131788253866859,-0.6937489525545378,-0.10634007677880673,0.1781303664434507,0.6729628090687276,0.23917975491011761,-0.1830151079609869,0.3646881265599163,-0.39482328678911716,-0.323367266031068,-0.3286226418896083,0.41756572817518545
17.84454917907715,0.9490013122558594,0.14149616206795146,1.5015785994554631,0.5015988032930007,-0.029103532618485792,0.37157864283322933,-0.3228252602214714,0.6631389008007054,-1.2252754540369464,-0.5119198685644114,1.3027175185793314,-0.8287876565105541,-0.1555648401107659,-0.2910322120669721,-0.14876169601162814,-0.32526714053641703,-0.04976693229302933,0.10060905671559157,-0.06403375228347029,0.053730251355296854,-0.21349493653911478,-0.011639265227303576,-0.07301000582195263,-0.0044804934811675315,-0.16742048835284729,0.017943968689923998,0.029775016232346997,0.00346074537752044,0.062409573403416185,0.14051289795721927,-0.2010560133092226,0.10973093119838523,-0.14782065670396213,-0.19474728093299143,-0.06659507291894654,-0.16022509681985828,0.07286302781760108,-0.11192859910248511,-0.16975478444107706,-0.12793484712309364,-0.1524381497208606,-0.11736358854491778,-0.29274062191925887,-0.3463437793191706,-0.30790098178173453,0.13714895136180555,0.37423451443680256,0.15337903965951433,-0.03461097595319545,-0.08886161811374908,-0.12118135975683499,0.012906633328678882,-0.05384946561007774,0.1537489027542993,-0.005982328944948058,-0.018104515889260733,0.03159541546128852,0.009823091219157492,-0.025103389598020553,0.026146789618245,-0.025174580884117552,-0.004435482834511713,0.3823593385080485,0.6240881622411178,-0.9886658290980744,0.44845219865866115,-0.07355864414713649,2.0403550021686936,-0.43593453195995074,-0.09776045226531355,0.009016100076605672,-0.06416324914232355,-0.36788307377911356,0.5008183417729809,-0.2676520096468086,-1.0258537968929213,-0.33943878720322285,-0.02171291916484458,0.5158854725962997,-0.3245769283845637,1.1054319586311445,-0.10445219557736662,0.10887011034087872,0.19949641282252106,0.03160178756033661,-0.0865739872907573,0.23628467849068963,-0.06493169297931722,0.4599720083182652,-0.42746614172093667,-0.4708248856904173,0.18724522482479367,-0.6788604415505695,0.12921749469676788,-0.07340619994785022,0.2621830193658877,-0.3586607988561241,-0.29159991786095907,-0.0014960448444812091,-0.6158843835372023,0.5941289971802167
18.793550491333008,0.9389991760253906,0.6997185741885742,0.03601449311951346,-0.640136991722157,-0.515400008222342,-0.031131776054661407,-0.14951001799253813,0.0992714905867068,-0.9179098653576214,-0.07548714059482678,-0.6390278725052281,-0.2033084125698488,-0.01419309509185917,0.010493060833612008,0.052701078908998444,-0.06450897208918942,0.10011919709043623,0.07693647751167476,-0.12313103058973866,-0.04196759662798921,-0.06297650003824824,-0.05331212016450211,0.0020610082223691886,0.06439681730721734,0.029287540095347467,-0.04667313906330468,0.011388778959556192,0.010706760059098425,0.055721611388780505,-0.04162460939869417,-0.04432944558501117,0.06640020315330909,-0.009422900533111539,-0.06974323494463622,-0.02510886454266262,-0.2262487839090434,0.0714326547951465,-0.10751913219603876,-0.0656131171509455,-0.013228700607966415,-0.09158059428060024,0.06280465918113431,0.23858072734636854,0.09485959368104556,0.1191550060969427,0.3100895701900117,-0.032895185968377164,-0.14912135459594097,-0.22589362335177524,0.11903008744612484,-0.08669580046250273,-0.10412622081853658,-0.020429209122529907,0.03243686678997884,-0.03474768752118955,-0.0016905620567029536,-0.007291301607654889,-0.016275012149957198,-0.04510779449451113,0.007926984753734405,-0.033204999192076284,-0.04789714564541676,0.07083878306434317,-0.4375715031201019,0.6746039411474162,0.1430248731775826,-0.07554979227141415,0.7088713949198723,-0.13774644705931177,0.10468175542450779,-0.39798280748343484,0.4514182397011135,0.3287263461884102,-0.03128686717661061,0.3962188784957636,-1.2534318223550798,1.1668665997575367,-0.3618277169726353,-0.7987847739632711,-0.6808173601052272,0.06537363730976624,0.20051466374662782,-0.06795990176831962,-0.1174721548834149,0.18064457553131072,-0.24204345780216763,-0.1963563393810194,0.2766265644234288,0.456760560654751,0.732303927304633,0.8515498743317216,-0.7137622014480157,-0.435323447077595,-0.008622959020438692,0.508130729400084,-0.18592122248255671,0.26610172917590447,0.17709962586011513,0.0439120411610905,0.3272956211977297,0.099002294100408
19.7325496673584,0.9689006805419922,-0.14328873352246085,0.22567314067225452,0.20637704171085378,-1.3234291202751625,-0.4499402546441206,-0.4230403238865884,0.47002768094464364,0.7800096083618588,0.5892279023756196,1.2536823391812661,-0.12643775925703526,0.08642797304156269,-0.07304983066860699,-0.0256085512849852,0.17369971258659764,0.007007994713775647,0.009238977861028255,-0.01597055256901491,0.081612777105544,0.08357550889752725,-0.16878247913276662,0.04842481101992617,0.10643836978904825,-0.017364518563501435,0.019876857701768592,0.11659682160498483,-0.007794623691474864,0.04774239261591569,-0.08357093769520307,0.036505430066319663,0.19732128747381517,0.022398402410077053,0.18727402140881988,0.013141267489112308,0.10142742648888015,0.16211085692856883,0.17717789978919177,-0.1844995250629056,-0.14030016700939,0.1683017993526035,-0.14359743827882754,0.27784838158178626,-0.16941642714228944,-0.012326442466887091,0.11421980515843252,-0.07435822174660713,-0.01812016729594272,-0.018328254671750262,0.026254380684278752,-0.06687573393562564,0.18036610568557826,0.008028582692520861,0.0016049129463645236,0.07120491438986008,0.07902559118106552,0.1086064427278199,-0.017470779371933406,-0.012761647287634311,-0.010069376252577823,0.11146276430000207,0.01419721250666502,0.0951220673889828,-0.4181560799295431,1.1610556893701107,0.17413611214677532,0.41605561522308226,0.6677437157838562,0.11090488893110668,0.23723811447110912,0.22720485081248035,-0.29901228835809307,0.09221926562280863,-0.057320209607393674,-0.6436177865544073,0.9884392301301859,0.07999092972979444,-1.0576925803829482,0.7196472902738694,0.911572028614995,-0.8713874918456449,0.3323086574847529,0.21551783622421705,0.2920928968956938,0.9043635476106942,-0.18718549331275358,0.5927094046622478,-0.3666297709614739,-0.6475017013079452,0.14743475294668457,0.9626248765296199,-0.1943944040001711,-0.26698894799762896,1.1312965102763695,-0.5989005087610645,0.05828441585767455,0.1889855160915055,-0.43789816451929986,0.22896815134591753,-0.21988694139789983,0.06749232073476599
20.70145034790039,0.9687995910644531,0.2966410659517825,-1.5746199458130425,0.01039438685761862,-0.3710429870141065,-0.23488452971549081,0.03341249604428483,0.40545203926770795,-1.0754356195147279,-0.55713152043637,-1.2307787181356655,-0.005807715987980732,-0.1956811212185361,0.05946767511523257,0.06909401413256908,-0.017232439472078098,0.030719721138461956,0.05903698305916959,-0.17049722522137356,-0.009902193563489332,-0.06171529771061366,-0.08522391037409813,-0.005999478054498025,0.10373165025996685,-0.1460173342748726,0.07319909451769832,0.011704219017288207,0.023293623601050938,-0.06938954709698043,-0.10262393815715072,-0.018971626040570507,0.08367106328585297,0.09687312359842269,0.011845983847921121,-0.0016399315499003118,-0.08406816936613763,-0.05040939639259215,0.021312528285412937,0.02207891497421724,0.10003945751160967,-0.17697076120678107,0.04735524926531777,-0.28721131738237704,0.20419183697131096,-0.24821527794277565,-0.03459542856303245,0.19018285363254708,-0.18571466433976774,0.23642344523633407,-0.008263333487966349,-0.1512661666070533,-0.06224695748972545,0.04337088977741971,-0.0005008057151240893,-0.0697228881971009,0.009097958028671253,0.03909932370564647,0.016876598820915155,-0.05757251668105885,-0.021755866131143282,-0.14168785849907653,0.09026240356782464,0.6848074632984665,1.0249053576819618,-0.20354578302955317,-0.228805927502724,0.6893621073307123,-0.8823304042952653,0.0752246728872358,-0.2777727220005983,-0.034483516795378005,-0.4298837012161467,-0.32365971233512975,-0.024451189515149484,0.4216442831696009,0.2169645355661725,-0.39533662412952386,-0.011015172517198517,0.5264486451340987,-0.5130661742121616,0.010744540397468721,0.5230059933468257,0.412204640116488,-0.4353723516711863,-0.3144387854920898,0.9922151586170754,0.05257262691515206,-0.061364362422407635,0.6063686517649512,-0.423289225337834,-0.3882477873114436,0.023121277873140916,-0.0024941628530833204,0.645504375259859,-0.21240393257225854,0.1204203948330331,-0.028548886003309803,0.023457496429429403,0.8213353434488517,-0.6234184226377496,-1.0420401812636078
21.670249938964844,0.9689006805419922,-1.3223911937230424,-0.16191859570009115,0.13007671813970328,0.07019143402592724,-0.3300735825157641,-0.5365789786575111,-1.3509420597031614,1.0072208663328681,-0.3400744296401055,1.300870688297605,0.19267056413879613,-0.9192815593543031,0.24454280258106262,0.5029291486637207,-0.12313180578008905,0.06355034859946915,-0.049813138973664496,0.07458672395507789,0.08024869762474003,-0.013008292522838211,0.08759444448041881,0.01522016508515874,-0.08237755419293614,-0.033554165250677004,-0.3400648267197211,0.010950653931124987,-0.9022818010603529,0.24924638685908668,0.07009955432076706,0.3096465415650641,0.47820461776977935,-0.08653166600787153,0.15610239668131912,-0.036139994016115076,0.09672655803528989,-0.008715566804643568,-0.010390344682202617,-0.013690094858560457,0.255401035676418,0.12799211854998357,0.15043630336991282,0.1706409876732294,0.09953403129856063,0.12705038492851423,0.05694384149060461,0.03837734508920276,0.1410183664406218,-0.2160996448101583,0.0675194737627613,0.0010685934669434159,-0.051044022136692346,-0.0547356680122382,-0.09911121380995125,0.019088572686063336,-0.09420910051939507,0.0027456687472986203,-0.10497659327250637,0.02545304356956913,-0.10919809324355544,0.18696954058032308,-0.35201398131067996,0.34317889298202175,1.7605049080316386,0.2707751125050454,-0.0484562882529439,0.6633318209357817,-0.6554324957213726,0.2384531481236694,0.15923163396230058,-0.04735799988526419,0.4481298834409017,0.11131357530811314,0.1279867507460374,0.007018933200670485,-1.200953665125872,0.2385727063681023,1.1969330766966007,2.767320681672583e-05,1.0377640573164595,-0.5442582574225101,0.3181489836322331,-0.20389922981910125,0.5454867658389464,0.1921511726005234,-0.16068988131100467,-0.5312680705019662,-0.2095293870616214,0.3625727115505319,-0.4676178377795747,-1.6364297135663306,0.2375918337619673,-0.38445428831612016,0.10406346216049951,0.04918641302440087,0.2086770150767877,0.32331657939813413,-0.23757862571601246,-0.13645016834939186,-0.031105205968667667,-0.15021690193181214
22.639150619506836,1.8880996704101562,0.14860412608608087,0.22141573393554712,0.2181285178496718,-0.15030632281111886,1.4894121548113937,0.23365189740715228,-0.2855107112015127,1.1150346894991396,-0.28838947916678526,-0.04108133403007859,0.0015023264606415301,-0.034808172217442805,-0.044417710191728244,-0.07079083173475967,-0.04033063175704275,0.06172203612647529,0.04925583284805542,-0.0787480279067467,0.10083573002464769,0.0822733834306128,-0.040669682590591616,-0.01216031089600636,0.0006736464766784124,-0.038751384820716654,0.1050412692713215,0.019541537384718394,-0.04833917179485232,-0.07057895350903379,0.021872826841700724,-0.11042973825720633,-0.031753487780558795,0.12140651697963074,0.08140901160928328,-0.06922840152665513,0.012308320567561004,-0.00735358359993367,0.017801398298162314,-0.015950815324854418,0.11433733918408295,-0.2547162868228796,-0.0325200141021935,0.06742605420605659,0.19064100440127768,0.06517131689589653,0.007480219703416877,0.03356772828528539,0.09778097847293261,-0.058162310635261456,-0.2995531974039758,0.0594471382685082,-0.13788268696930492,0.05805786194402609,0.007043529720854165,-0.05500475674290308,-0.009102584370468153,0.020373053398659607,-0.036261300972568085,0.04853628415757788,-0.11396826373212203,-0.09989202355437092,-0.6117323788086123,0.4090834528655032,0.5520553236504526,-0.22480424462821813,-0.2988791837958596,0.5067424671133967,0.5749207073287541,-0.21808917478119944,-0.7077786412046924,-0.08817291545834148,0.14478942993597854,-0.21236757888774835,-0.07510381739096124,0.567212613558211,-0.6648001658699039,-0.21054030448345568,0.19962615052845234,0.09762897286672369,0.5178283470499573,-0.6207207644593222,-0.5454397175203023,-0.17392786549956202,0.08511943831558122,-0.13684321863545573,-0.2032038660074241,-0.05268167080820366,-0.26051467348608903,0.39934836537265894,0.595960771567064,-0.3583137916361579,0.8358772174528594,-0.35436105183069466,-0.002961637811270429,0.05530731750278865,-0.046345954764279704,-0.02364521882451398,-0.2401772834261352,0.2617832976505943,0.12203864662386918,-0.9412569046188206
26.474849700927734,0.9286003112792969,0.6747323387630647,-0.2506847806723313,-1.6328339358430437,0.5257086722362839,0.596947639403296,-0.7893850541759561,0.18499396753609523,0.18609650273030276,-0.5287320455905744,-0.5979484495736931,1.8131086153606677,1.2113494383010817,-0.34059275068395,-0.018573745491376092,-0.2914625395987677,-0.3185219355962108,0.7009640015009878,-0.008667375167303648,0.0754913042182905,-0.050333511559970935,0.059024389345835634,-0.119011326646663,0.06379793327752215,0.01405076973682868,-0.0577792891521563,-0.05605711337342922,0.28043008682481607,0.1717894876977755,0.09571558847215207,-0.5227820362692441,-0.13746482006273436,0.02103713346912922,-0.0038202095923683664,-0.17915387130659438,0.06203298388465453,0.05299924350748195,0.1752770196697458,-0.0280290016011642,0.17790621324829312,0.13398852328495905,0.05848563981507799,-0.06528109307045768,0.05073230597578987,-0.030167681890371407,-0.016031994935974,-0.5998367353848263,-0.23969011668773907,0.3829749096939261,-0.10518544812451046,-0.19650712391053543,-0.023134927606013635,-0.019287733849355976,0.02241974982686596,-0.04276242165426696,-0.011561091623953725,-0.04296449892815636,-0.02741412831910176,-0.003271880367596548,-0.02838557033172505,0.10929969652463342,-0.22360299175700646,0.13704918193907856,-0.08431992607891657,0.678848541555272,-0.30738065608834764,-0.06398580831030094,0.9976876415679432,0.043100875754354936,0.2696392256205109,-0.4500787502550909,0.7388976004232743,0.42700677776525664,0.28078963822350866,0.2647805717552058,0.3349606957091446,0.6338960160753094,-0.9195010289856738,-0.11709078333244918,-0.03879727468340338,0.5181639265558202,0.3054888773214322,0.23015142955489742,-0.17763461505395395,-0.14344838919162423,0.48879468386744906,0.24397924105437663,0.20920752589453576,0.1905407739262186,-0.5090704892901717,-0.13415611998128332,-0.2636793497948606,-0.7870888137343203,0.42986126581989786,0.021676127022723826,-0.12113942914732903,0.0067459930350561165,-0.18787062543378868,0.18763852339908327,-0.16590610329290736,-0.1768795033428901
27.40345001220703,0.9193992614746094,-0.2728975747739224,-0.16135578706471487,-0.02556877908819072,-0.2718174312566811,-0.6914331430650247,1.7263863871390903,-0.6776569891577051,-1.1363364963662712,-0.9987949070755614,0.22808181954228066,-1.4233903792915814,-0.2555849748292301,0.02574328545125433,-0.11452002502192436,-0.0005056795416347125,0.019130747025017693,-0.013780834786608485,0.07556407756295513,0.047182486884328065,-0.009046889167581602,0.001303636264358755,-0.011712463258603178,0.06531380864010583,0.0412283753169061,-0.04354927663540782,0.0705736501541382,-0.0118674848675938,-0.040789522881792134,0.007315092927102024,0.013182521521363021,0.025377921527765558,-0.06059536271682454,-0.11735620224247945,-0.011868074229425143,0.22147128576700217,-0.1639963268693317,-0.07812661944146808,-0.03471521686899736,-0.4535781622826103,-0.14620602984039285,-0.258126306221982,-0.15480730971198267,0.25464870287553376,-0.09660343379874606,-0.011871150065144456,-0.25257054068121665,0.03352233873071749,0.23229208141335714,-0.08893229961964413,0.06301054600408318,0.10466180708159743,0.034350727681699875,0.10410998625555075,-0.013823634456915713,-0.1042135275432679,-0.03676413674244024,-0.19858699007285624,0.08658781859577852,0.022636996117295152,-0.008728784189850836,0.035765322138841635,0.4770642955312029,0.18500755601615293,-0.4485292809486081,-0.4562320097184405,0.7500249075032235,-0.2844790616949824,-0.33495195960943897,0.8018517933965831,-0.5226434225821085,0.6442828277155704,-0.21419045717121854,-0.1905865046505044,0.35410010596242314,-1.317154472976162,0.2262402518229678,-0.16637229183011457,-0.5364737447773191,-0.028949859713977254,-0.10070286838305226,0.35780701125025516,0.11956528564435083,0.14547979106300654,-0.15792896196244194,-0.4327761910607941,0.14335185871838546,0.8104389688257471,-0.27015725162385834,-0.5017826925647727,1.2538432304959783,-0.15665466683406298,-1.0194555755519734,0.5261264892314031,-0.4427923677288098,0.8337634342954277,-0.8150323633413433,0.1315602495854359,-0.8069864184758487,0.15484826257501313,-0.6896854122240252
28.32284927368164,0.9490013122558594,-0.4172490221332835,-0.1752833684603541,0.580239271528444,-0.13357866280993044,0.005864273461220685,-0.0734388545516454,0.2729594601753695,-0.6984007468762821,0.5281890499817187,-0.044922887078923474,-0.4139251621050147,-0.8510059553919982,0.6491602652535096,-0.3639418738462822,-0.24834516919715438,-0.1335234893348157,0.03581479870923273,0.0718990881091461,0.004447989690066201,-0.060979357702869635,-0.022382891008699116,-0.006833089620937595,0.05690939630891958,0.07835504200379367,-0.002591080220689025,0.021425894203261905,0.07546563382181518,0.03279378133732552,0.2016671826497104,0.23042714058241476,-0.023470638485908805,-0.14723280652222903,-0.0792515471620523,0.024711822240333844,-0.12556201657524535,0.1942788479228811,0.005523108778082952,-0.12457003544931668,-0.08746238994342684,-0.2449742512944124,0.10900821057842969,-0.05754945879203213,0.5208839370966517,0.19907514266120127,-0.16140536363407482,0.16557783314871496,-0.05358349465217484,-0.2232379048947145,-0.0632536932383831,-0.13077742371055456,-0.06760634811765713,0.041177552450003194,-0.03281120134795412,-0.05528857658532749,0.0033213576856988974,-0.007559295253010426,0.001632347076065827,-0.001721679600586093,-0.04660971891541211,0.08898789432891252,-0.06410067855171728,-0.039387268624719335,0.11720242057636379,-0.4608003733817907,1.4497172693981768,0.9718286114340238,-0.623109115938157,0.491882092889778,0.029875367639410687,-0.5381220505420806,0.5689551084228006,-1.0127554160037935,0.41881374542468197,0.11718286886639802,-0.07153745175853378,-0.5668830713432197,1.1693885241071167,-0.9477204867375817,0.44293973494140715,-0.6061711278308033,-0.07518557785819223,0.03496684440665243,0.17733745199474457,-0.0880535325843052,0.0966579127435797,-0.18443515894433396,0.24463400028628934,-0.10465756722816565,0.2154079350778052,0.4177869042062142,1.1525862996602658,-0.3557187705736422,0.1282586873056602,0.5056306680888635,0.33080570187262304,0.6761378554773934,0.2731035599039126,-0.6093534924118711,-0.2219133467678315,0.6634112318730133
29.2718505859375,0.9487991333007812,0.7579295721764756,-0.10175879428421038,-0.6886046223965399,0.9669777213152824,-0.5018373021851052,0.3439112468879998,0.8619804190021816,-0.2664033448686671,-0.15635378222250554,-2.5441905524580855,0.5973281268830167,-0.35925307880415475,0.09658756471170524,-0.37123402760156926,0.5181926565020201,-0.39559169770520386,-0.10975044624026631,0.05686524039392814,-0.06204376050711259,-0.18622159114636674,0.15350104550948923,0.04720780700055497,0.042456630965020455,0.05817732143327782,0.04776707068719692,-0.09263013952899626,0.1796901852101936,0.06930822975899456,-0.18593148365667553,-0.04211866311436029,-0.07471819591602946,0.021618442404714926,-0.06709919623854677,0.12583563797767214,-0.1369242523604864,-0.20944269920347083,0.19903749916694222,-0.060547888337448674,0.05630359835120304,-0.14706803501676954,-0.06252839525365507,0.03663105187926553,0.044486848771026585,0.19576342251041384,-0.01637310768572285,0.005712152357251088,0.2932308152466721,-0.39147338352822636,0.11410196466158416,-0.07028046840643927,-0.06995902020916184,0.032441334653175065,0.005097527842290035,0.02860255577196526,0.010642013470487597,0.006578980185613385,-0.0840965585579137,-0.03651328081556958,-0.07216292005467835,0.2054821145384172,-0.12428353246048138,0.8641791357067272,-0.7725903292960552,-0.0025122762067947154,0.5993510860374408,-0.4389954865461725,0.34410090640691415,-0.21496614165876,0.04284000635091812,0.12429152904109457,-0.09094422498852174,-0.10158491315824181,0.2429459708297697,0.10024427163523365,-0.7440682655575621,0.8338354325643581,-0.64470939052244,0.6238849978830822,-0.605553100223907,0.2163910791831316,-0.2205442969594827,1.1930155264223117,-0.16024741979311488,-0.5521044384155052,-0.007245695909109284,0.5153805167868273,-0.5335479884080616,-0.12603861961152896,-1.5864326495734156,0.2603019556080557,0.16503215953251527,-0.39154515435418247,0.3975423974871987,-0.5149752339397481,0.3452910016946289,-0.047339659638261866,-0.7570797205333238,0.5757923101977239,-0.9419096785972972,-0.4079183292119771
30.22064971923828,0.9689006805419922,-0.3914033755344923,0.0381442081028308,-0.7474370179201868,-0.30905956633709913,0.35388201250874257,-0.4323472750080171,1.5420300684302204,-0.9735897253462631,1.3350301942773513,0.09581451208965966,1.178455096846084,-0.7994246359295737,0.30959429258355553,0.24356718904334004,-0.026453536945184788,0.07995201956337919,0.09169714604444211,-0.037605478276500515,0.07301355084187576,0.09752789691592231,0.12880265702929852,0.09180998097753573,-0.011059597384625027,0.034220668323726264,0.11648121223141876,0.0010633529668007263,-0.14011419148886148,0.037797990576797516,-0.06360291811601258,0.06654593326838476,0.05632216104988983,0.14665625278213973,-0.06747906522236469,-0.06297476142776992,-0.11272305081837872,-0.17004130299037126,0.004810891663243261,-0.09333323768097887,-0.0011996287627569966,-0.13054484172735964,0.06888677187069037,0.0440122060154278,0.11863810412468317,-0.33009347412442136,0.3835577504529625,0.24595757439551968,-0.20562109319821434,0.12043710872766727,-0.14461101168846796,0.033877355705116914,-0.18476810935048624,-0.015918679769815047,0.005034618388566926,-0.006966224567083307,-0.02271387457537645,-0.011273972452316258,-0.0011009393491819008,-0.009229222933538367,0.08862151444060747,-0.3577957338265187,1.0457108173511778,-0.6110052415169909,-0.8588734439942589,0.128563579003758,-0.8102990060207911,1.3721068659061821,-0.16343078340576989,-0.4021051519968553,-0.425994177167133,0.6654623781794001,-0.09352042245179461,0.20234982596239148,0.13282997849457373,-0.8877675275100559,0.5452842012007523,0.9352273741730329,-0.20228510069110595,-0.2038724305247996,0.19852838626326746,-0.46524534661472383,-0.2945199300272485,-0.42227727178080743,-0.16383518376911033,-1.0120331554490611,0.3574241091126227,0.008904427221826123,-0.09498790347153183,1.21731695860432,0.10637652581403405,0.08188754244259805,0.34967946020496327,-0.22021779973576525,-0.10446190927884995,0.26760673027236265,-0.039777427949161184,0.07170577132756593,0.013174678932422726,0.15688031273676487,-0.30859403798573937,-0.6383396887338894
31.189550399780273,1.9280986785888672,-0.583728744532036,-1.3080646556123814,-0.12839682387014278,0.030884243252991633,-0.47829738478892053,1.456681687354035,1.472572461358439,-0.28636666848975534,-0.5147409221316656,-0.0768850932633448,1.7942157130117298,1.2434024528122227,-0.6664818596148169,0.03937992482459985,-0.09386289410137749,0.02222225692907666,0.1585554447127291,0.12932916692545515,0.04865024487293817,-0.009740352434691638,-0.16313876226437235,0.013072988691008324,0.18460048666891216,0.005199784948304862,-0.09451551617418107,-0.008923328219833826,0.044212177385390836,0.07602855925371567,-0.04645811120764763,-0.024088663364615386,0.017076349352114824,-0.0033663081884758445,-0.020724277254219912,0.0159487567623009,-0.1307807046232098,-0.0298726990952807,0.02128788900895677,0.06638386214091312,0.0707684908324222,-0.16733364612883003,0.29220523166729306,0.1362728557011899,0.1157101515907523,-0.19190164835433599,-0.2158971361220065,0.3825536538082197,0.30317008780043886,0.29073274448786657,-0.03453880442160934,0.10815959013702349,0.12975528524243163,-0.03540449466849131,-0.06118295046757305,-0.01791375453097641,-0.023390477418406865,0.0028933907292947644,0.013459506770496905,-0.013409294908644745,-0.03258491147155529,0.2068598766298315,-0.27282706436573206,0.38005148739970507,-0.8590240835200094,-0.04314649446097113,0.1164149516037629,0.021101881748776447,0.24478859457035107,0.4768231701688577,0.22594027768858735,0.25819890095909054,0.2541483263621245,0.10371280857304772,-0.1677825685728842,-0.4133584908261395,0.3813548901443209,-0.3218275421687634,0.6434595120267959,0.14290076466279236,0.4970453860107189,-0.06321569400191175,0.29843018764954365,-0.15354306245544996,-0.11202875647616722,0.09357429671479371,0.5745493011464481,-0.1274702254256358,0.3121285698315926,0.2513946878205948,-0.3990328379594858,-0.5776432748817808,-0.6343794365803992,0.01904414754770041,-0.12059960075222946,-0.04391652285057432,1.1430347978494597,0.045195444741630945,-0.07655174274680068,0.5254483434752366,-0.626487381633495,-0.2654038392617941
35.03535079956055,0.9687995910644531,0.14945693285245398,-0.07362265045700485,0.3431643043755476,-0.4671261765260111,0.5877822167780801,-0.2800653547521965,0.5841067601449724,0.0834254839543471,-3.247005524418581,1.1511863480062419,1.0077460528600455,-0.46219129368373324,0.18889032801824865,0.40233484083583276,-0.12584758698210113,-0.06945970804198691,0.20844028256155772,-0.13768325664854278,-0.13219735292823948,-0.0312110097598573,0.028660197551802116,-0.09554495675476254,0.11838448762723189,-0.010134069754396787,0.03036489583307332,-0.07426404959344705,0.2042384659683979,0.046547888091172496,0.1209175759369202,-0.0027524707686969077,0.0425539101412156,-0.09189689295642413,-0.15685021902971866,0.0033694834182456503,0.16881643785624648,-0.05925985000243816,-0.1857724292844063,0.4102622615238851,-0.030489145222170423,0.16875510654140588,0.06995114866816557,-0.14919583582899357,-0.3183964013122895,-0.028042654378380535,-0.1291357210875789,0.039395404125032604,0.14570767273714663,-0.20834908218512432,0.05371366275503503,0.009232628959910942,0.05547271439583157,-0.024245327834972377,-0.007078556552284439,-0.04104178505651773,0.0014968751255908853,-0.008306190327140552,0.008871132489898903,0.019311778471813403,0.12198573957171199,-0.4413912072529912,1.1845885346809948,-1.2018316661839534,-1.0209654084798174,-0.48808130150693,1.4217203433302816,-1.009238189718106,0.7808179702284803,-0.19915504535128165,0.3362180740398655,-0.16747136577344926,0.06677575695945938,0.1974879586203132,0.3481981941558637,-1.1344222496333327,0.3859485056875137,0.5830160153147266,-0.4574511159042917,-0.34044068125163796,-0.13877662291551465,-0.48743457310971167,0.09956940827736617,0.05287870928024526,0.014280086146262038,0.04230287551580869,-0.41866340741205527,0.48655258569541643,-0.9552510621835733,0.2746691872332136,0.9570678495131512,-0.01726729762752713,0.28164145585681616,-0.7164525317494186,-0.002320909998359908,-0.6174010563926506,-0.06731058215334151,0.0745784681889415,0.19832501736279678,0.33544959013114994,0.2695137129556723,0.7587474755734983
36.004150390625,0.9888992309570312,0.8053849333090337,-0.023234878474173548,-0.4217369810553563,0.08797213256842568,-1.6398619027363033,1.0204877757783952,0.330631637849307,-1.8496618380784924,0.7481018302408883,0.8034930279140067,-0.33367348870935826,0.19404016422441547,-0.07144020729324717,-0.02347996893866735,-0.011018547649763259,0.024705037717091843,-0.19505385328863167,0.1888882826389028,0.06634511253737221,0.002123446016367267,0.01296419238659435,-0.014774491964368112,0.04712488954083238,0.013008794257196138,0.046555022945043524,0.09875870183649153,0.0562254598376211,0.09987442311981681,-0.05515364132814941,0.1147048919191917,-0.07385566891268332,0.05959273606877354,0.16670891100895893,0.05312854336604847,-0.19000918253771282,-0.15096218551187768,0.08582615733868873,-0.0816910969808149,-0.08037097074359757,-0.07567242915581708,-0.3605327898987894,0.13625748843810698,0.008581280872924202,0.17494838555809356,-0.09318588966830191,-0.04935505870621021,0.04683951863190713,-0.0524185026107907,-0.14652114933153024,0.04608939740151967,-0.09042741743419387,-0.04711824989624739,0.04005968382321059,-0.10504154098968116,0.0061599941568734485,0.002191005268422397,0.009287395336329617,-0.060139159358080535,-0.03345227528722164,0.007005341528981898,-0.013039037166399379,-0.478760445819801,0.9755893267746046,-0.49609790996895536,0.6735542183652192,0.03730760404342939,-0.03642947048119169,0.2990295789007416,-0.37308810685360305,-0.22314629638063993,0.3663911558047719,0.319616046217044,-0.2927664412365527,0.25422347427293934,0.6650600895749642,0.011561726444850234,0.35813065893338875,1.9476361239326976,-0.042204455274039945,-0.17528266501808912,-0.40338671023955874,0.6406388545311107,-0.4490968230744391,-0.2637582934736246,-0.2874263765243511,0.7326585770627057,-0.13263970938910297,-0.47332529763355097,0.23804952434167978,-0.8538846680731401,-0.07015333163982113,0.5972575423892427,0.26038840953190995,-0.22221048184369246,-0.06682715154688693,-0.16571473771224798,-0.17945840716922187,0.07127686843168869,0.3128888293399462,-0.14145815915197213
36.99304962158203,0.9789009094238281,0.19260191686015338,-0.42437983786665123,0.9392494032103484,1.7419621174555286,-0.84660372821171,-1.001997927695865,1.1298520354923705,-1.0547513147073786,-1.2072595794484466,-0.193284745265774,0.428423027583662,-0.0573008730111181,-0.04732499422739706,0.13469185387362123,0.07718188282283209,0.005365083131751644,0.02436749627145331,0.007629320940695545,-0.029688931096719946,0.002889338092345856,-0.001920931446496347,-0.0478715430512039,-0.05976935269263823,0.09767383919005954,0.08646505465600937,-0.037340830871771535,0.22010470775286758,-0.09030771337292039,0.07120901430593264,-0.059469752286343665,0.018125138242704047,-0.02319491616649059,-0.00881574900914903,0.017638820643916458,-0.11387045229416498,-0.012838269580962538,0.09052853633321889,-0.014566105816845736,-0.10309761843582584,-0.11965224146723866,-0.17517028725406447,-0.26473213577340304,-0.19320911396372434,-0.14658044006997614,0.20242454916848293,0.033167519482372995,0.05905599121517327,-0.5051224511517222,-0.09169215647003388,-0.045214874979190564,-0.039830840560047126,0.05104946862685952,-0.0050051285637110615,0.059721455403030504,-0.026930109996686682,-0.057087313173004146,0.002722659764332696,0.09485803659784448,0.022826926682444418,0.12778294783586366,-0.11557016105119515,0.1984285744765369,0.3482027101669041,0.43096455612912227,-0.8504885281089437,0.23999054602258457,-0.873180724280031,0.5773561151140328,-0.2662752446491405,-0.3609316596532727,0.017234462993780897,-0.24559948981343852,-0.08710364754160133,-0.47007500928589063,0.3174256626654691,-0.8004969967525247,-1.23720797883645,-0.18017982378122807,0.7594377917036921,-0.3540292663459579,0.0027949924473176894,0.639450564226035,-0.10276619359220508,-0.39883858590023996,0.3454706966606423,0.4038393454171459,0.5471740395625728,0.18914912782936436,-0.011903096380250933,0.6201937954250678,-0.547766493229834,-0.48149769737177284,-0.6026020327902826,-0.39884484608480025,0.12147229668681563,-0.23747050068714082,0.30524846471619893,0.6969497812532558,0.5990373455451167,0.6257035879978348
37.97195053100586,0.9789009094238281,0.680432028533891,0.02778168788988921,0.05858182814086956,-0.019748940402420662,0.21772071419021033,-0.8177911685458606,-0.5310243013544725,-0.7471923777191901,0.8207606325909207,-0.4122233153413609,-0.430454807149451,0.012344277817351333,-0.02593897790021559,-0.0368260222194927,0.06148214711031333,-0.05612449903498734,0.01059225411581017,0.12762393129485156,0.02239371227781731,-0.1288749716926004,-0.042498097965267254,0.15706867205208486,0.1272585046932872,0.042338552772852235,0.00962300715408912,0.062459264469151954,-0.14377192997462154,-0.025898649551939705,-0.06999982930170245,-0.08523390314727933,0.012770882441069163,0.2213230364931898,0.028211325055202904,-0.05991287076198033,0.06277326571214376,0.1134324291331118,0.15533858495568537,0.2818822472684419,0.004723052019834597,-0.2938467013710263,0.07441395454353147,0.020114279694563475,-0.22051798404217707,-0.148028379001721,0.5068382987373723,0.17115252522015403,0.08580262188308203,-0.0018034665478557782,-0.0988498859558826,-0.024072105198732197,0.04616656339599886,0.05350457494611855,-0.01820577363823943,-0.0030796547451768003,-0.007439233931065447,-0.02095914654304107,0.0017277396189249873,0.004148177106575719,0.025198744329837097,-0.012937609314416489,0.08233966045571364,-0.26645314292461286,0.2697679409094313,-0.5199697213468262,0.3735339750582581,0.1665882562091353,-0.3204445579706972,-0.42075733943595434,-0.11362844463703631,0.9546541397274484,0.3632519013698566,0.04948227530770094,-0.16965290697469046,0.11032964478789248,-0.27726876447171483,-0.8016757627585243,0.459535522824417,0.37803040084792866,0.5795343554286092,-0.7089504350059643,-0.5494986897590387,-0.24453617446639922,0.15290116710718782,-0.12675815451367733,0.09246928657850619,-0.18089264657874415,-0.08913959819892292,-0.005848709385607359,0.8546710498009588,0.09716252610685078,0.32532024666730125,-0.5364810996809115,-0.16782549046739895,-0.2205701151296055,0.16180153463277636,-0.10780610559674858,-0.14752330665504798,0.024998721101297278,-1.0496504599733412,0.3745854704843341
38.95085144042969,0.9687004089355469,0.4246916542092055,-0.5882823623511656,-0.6472428264085802,-0.4312818880751863,-0.6548800276017188,0.19731733247424085,-0.00782780744714269,0.5154162647565902,-0.02446752397155158,-0.42105125479967215,-1.3393390049522649,0.27257344630718117,-0.3018131785169955,0.3180203217601072,-0.03712652601816256,0.01193216024804096,0.018719853369254025,0.12921885461478405,-0.015269842034396514,0.04107846564939524,-0.06700764533948796,-0.07433749057857368,0.009705622251568496,0.0033960271810424035,0.020883861168447482,0.026189668874001384,0.05260460880115756,0.026801227435519426,0.04356028865294273,-0.020768886478144725,-0.11219544258129414,-0.038085140043350944,0.001306011879931518,0.09722208318573534,-0.040209280480622264,0.021787306344897353,-0.010153926180072326,0.040278693362509214,-0.05985732792091003,-0.024866179271080858,0.19083424245918854,-0.08310524473301507,0.09910361006330784,-0.29992255356590763,0.20950979190698518,-0.0773012717545473,-0.013380099993943954,-0.03500203753068192,-0.15301079756831598,0.02065525220630144,-0.1015347563194909,0.030877605662659298,-0.005993661903029086,0.08122023229973938,-0.10146333428419217,0.12663455170704602,0.004207997762192498,-0.020161105601625828,-0.02091175156418019,0.02875513315992403,-0.14685143287930155,-0.1373001282314511,0.7038762837416924,-0.9364080992169685,0.49315069288691127,-0.8791046975169592,-0.656711535636707,0.13095929506603327,-0.18093803411387466,0.35649877212198805,-0.04904703087857727,-0.08303611480238202,0.016471113988418065,0.2484422856989893,-0.1500562890833784,-0.45292913682488284,0.6217810055197381,-0.8229307020450466,0.441429694125639,0.36855888624384947,0.8934440765356954,-0.9455255370113278,0.8324973143628489,0.24177692366385833,0.18481880726033334,-0.2230077193071829,-0.23728556058088585,0.7665928160976568,0.05842304316872969,-0.38251969233949035,0.3468763000789758,-0.483006084445798,-0.125538025428174,0.634140459174068,-0.2643368946579425,-0.05000229126023331,-0.264504741987632,-0.3135300529856209,0.36008377204344555,0.14233768852226059
39.919551849365234,2.0678977966308594,0.19986309705964256,0.28884638611669566,-0.35402837782662017,-0.2313869458978128,-0.03252627228447546,0.46492859079586757,0.05966674906765644,0.01960706420104963,0.5565576938177392,-0.7156092504968325,0.548923422982253,-0.1564127533477019,0.08866956182529873,-0.006625846715586618,0.012629352986646128,0.008993780589390354,-0.10575728942732403,0.05975021279699214,0.07181634499853304,0.06483426677489408,-0.045244261032184825,-0.0012201165662641773,0.01763038684762745,-0.00291132718470459,-0.0760460346146617,7.8311086437416e-05,-0.22358916440983584,-0.026604663022356353,-0.02432827677635506,0.10993209814594986,-0.057453813346257,0.038931912128831694,-0.06059417663103538,-0.03010622048581985,-0.02893104134325872,-0.1895872488751742,0.03453004398419793,-0.12987627615885175,-0.2815861036086893,-0.08290212808640916,0.01280190092509519,0.03067195946874388,-0.3642703486507567,-0.07744284587761001,-0.1826033747792904,0.1568139597416421,0.004790256125789484,-0.31565300262645046,0.038587922557635886,-0.009706040154159667,0.09993803583386072,0.1052664822017072,-0.06317447413835608,-0.042636495090208365,-0.006656382971094642,-0.008055606301624834,-0.019942125522172192,0.033783551522221324,-0.09672048238236113,0.09245448720381935,0.24641532581488898,-1.250452011678554,-0.5741780017016921,-0.22845514963807,0.7634734814210553,-0.06571218556637626,-0.3581675706980561,0.12689849719083687,0.3530810825138391,-0.3898920797254167,0.15550509269152712,0.013342403337597605,0.6970150964019415,-0.8269893305850132,-0.23577230625336532,-0.037537317304114554,0.1045196670869751,2.054560087571395,0.17603399668999561,-0.2927382068472575,0.6107050298666682,0.19074774771180955,-0.16441672464312096,-0.35562492628917375,0.4836310515205889,-0.45859563785493007,0.2857163446750184,0.6423944146426577,0.4733684774613226,0.39170825885920374,-0.6368115897222446,0.28737743789100345,0.08625065606180707,-0.14993834867670514,0.16386126905853954,-0.2862593222662964,0.2819084130340046,-0.2012251252204586,0.04614626742640607,-0.8716167984115719
43.89524841308594,0.9591026306152344,-0.17278904102509313,0.8122723936677473,-0.5693922005626223,-0.632030534096741,0.3875745564159724,-0.2707007096982819,0.054304754512113,-0.34973322434642584,0.4424156499243347,1.462182876216105,-0.3191420192229284,-0.8307507404128657,0.20611253962931889,0.08647359030449281,0.0799025840965698,0.08812923937775743,-0.07516966901394168,0.07570594718019451,-0.003005246404114659,-0.05344600518847079,-0.01257073457088589,-0.16707892955142492,0.06765865356183051,0.051315710273664356,0.012184696396593059,0.01719501433597655,-0.03231440369192533,-0.18984698613525847,-0.16272358045988394,0.15658459761680954,0.1535051163320257,0.05969549970570967,0.14903830838269122,0.11727526419065264,-0.18954534725268216,0.05000393155829903,-0.12876106269203302,-0.1285228734773198,-0.2169268867992085,0.1105156429188417,0.023760645241381217,-0.02921525538483222,-0.21251607548874787,-0.3542729956195424,0.06809768353495735,-0.18117537867063294,0.12149433548497572,-0.055580900935707764,-0.04323854676264123,-0.08749297533546119,-0.10888539375980165,-0.05870815149079007,-0.0262154245302805,-0.04441718189335341,0.08501669212599108,-0.02980304802698912,-0.024456183367379758,0.16481226867312843,0.08377389007829282,-0.059662969991657426,-0.056763906531536255,-0.01768117793727799,-0.16989407502890935,0.2140960086087161,0.003836648401028264,0.4768617592824687,-0.8553607329173194,-0.05071695294343571,-0.41884062851356985,0.3013302477779826,-0.26178894683629944,0.7807792334619833,-0.2704984563388305,0.17979479827739211,-0.5695724042382728,0.23194212380916637,0.36705891077638547,-0.7121244337644951,0.22919860145776033,0.450126909313251,0.47714387488716925,-0.2585146233892576,-0.02091485815378856,-0.40312564589525235,0.3329622390626095,0.7311545286435244,-0.23272539941293302,1.073229435013408,-0.3441725945967602,-0.2449638450863036,0.49672670463121305,-0.7204585317012843,0.45139790327703555,-1.6752331846669903,0.7214839927098,-0.5254879270904433,-0.0665486042240636,0.33912512796022104,-0.25084346535026425,-1.1092064468152016
44.85435104370117,0.9489974975585938,-1.299829896543715,-0.42006499001907005,-0.3631320096065935,0.1806695772321723,0.15342430042397967,0.5042252941501573,-0.19144969331067052,-0.7341514185710696,-0.8208603211382477,0.33727707426656384,-1.1572050285909736,1.0852406454241914,-0.10482686455961818,0.17859716299504785,-0.09173829965756879,0.059280624408434034,-0.07588548651772484,0.03337247973304426,0.044166488930660004,0.05889966744463038,0.11475675579337805,-0.016633580616048985,-0.07909814962446446,-0.0919454117523332,0.03458496738544462,-0.08701050496642708,0.022669919917936543,-0.053644584059351935,0.015695367181325602,0.06595780038732074,0.034455833701764686,-0.08700380262502504,0.05882973342344905,0.07482506935771756,0.05027074700946078,-0.13139563160198117,-0.05195246324705721,0.01962338295676075,-0.10701782101360864,0.06531629894967894,0.02606676590137483,-0.07287733346160062,0.44167868967698454,0.24431555117123638,0.10049125011209567,-0.24476446223247178,-0.19103162601512652,0.028217635025053617,0.13616109914135732,0.029940263545883042,-0.028385003910967696,0.09016593601926877,-0.017611319852338443,-0.006722086250085995,-0.006955683115914613,0.04023085250009372,-0.12198571239608685,-0.009869356756034568,-0.026138321902274234,-0.014428722296289762,-0.042775227735815956,-0.03364578166589277,0.645054515890678,-0.8265668590225316,-0.9532465793451349,-0.3522610550982313,0.2999558405564733,-0.11483412580640114,0.19493668137017295,-0.05949536492778819,0.07843671307976914,-0.2483130544083172,0.3270339615999355,-0.49073456980992125,-0.4114108754103189,0.12111244600290788,1.0209648989617448,0.25987270986433053,-0.7457082231278371,0.12225485937453236,0.7282947012369155,0.22513451742965848,-0.09555885237046044,-0.035105734320421335,0.10125927399078688,-0.29736797320843833,-0.08551933948091987,-0.5036911473365998,-0.03591624006345298,0.38131703762022395,-0.09172434748093945,-0.025613807182953162,-0.11817909721455261,0.06681337517343913,0.035310234759829764,0.14041467746474867,-0.20593698878383215,0.19677052486729463,-1.3918281859063262,0.1614470406559787
45.803348541259766,0.968902587890625,-0.026912346818946664,0.07640082206643785,-0.04371549333337871,-0.3857176684889128,0.3758348244779547,-1.05194823673606,0.45100706780758476,-0.35039337215014876,-0.07470318993055197,-2.8612578260944805,3.007264220009759,-0.07414150639209391,-0.08040453347991022,-0.33026037227168514,0.02814694662446646,-0.007242476315296847,-0.003715322326938414,0.10619823591303683,0.014726469517586303,0.07016141430084998,-0.011843769558184388,0.053292808259303666,0.003015046319929983,0.040995101618565316,-0.05118205430106623,0.001863419031067673,0.03972383029657989,0.026071203146461483,-0.06984477043976706,-0.030765091185966233,-0.004180608442864327,0.05237706223659029,0.05939963775530217,-0.169375069341555,0.024638861146781824,-0.14423488585437252,-0.16918906520004623,0.13472081107868566,-0.00809480212390929,0.12365018293259536,0.08816066573877296,-0.04563759379425745,0.38782958621095953,-0.1577252987910618,-0.18392674248358498,-0.06935774239581996,-0.1904598759049,0.06491838553112986,0.06316537466336075,-0.18727036580661652,0.005808890129885804,0.042986789805970274,0.02302113087478015,-0.10098631769367747,-0.07649674845007105,0.040313839983165095,0.015708898632965415,-0.01842619089699962,0.07349167826849212,-0.09314561847048611,0.33294323229242156,-0.2388759314521198,0.4188990397485792,0.7644670319028278,-0.37089771668415766,0.7379960779565238,-1.063328777635466,1.1182535895686667,-0.45095583443876297,0.2626454897788004,0.15505891708800085,-0.10486074178694363,0.012873130101474228,0.397218616875861,0.4667366224779813,-0.6772640803368626,0.21735239891348748,-0.6665191282327924,-0.5070653030721177,0.87352493781206,-0.04810084755304686,0.001996953301551252,0.17065423207789213,-0.2077135762356668,0.24908027798135132,0.8724591728637646,-0.38645192845510756,-0.2735511150373757,-0.011862398789260972,0.011301119032517848,-0.5803075928282084,0.03908646177557859,0.14449542820760744,0.5553278560274136,-0.8187301827573095,-0.27450704403317816,0.021850883984082012,0.313381943777179,-0.5187935110875461,-0.04237665645218579
46.77225112915039,0.9584999084472656,0.12665875896998574,-0.35258155771045635,-0.0016880390399485275,-0.2928501768565012,0.3188652523237906,-0.35377866605107733,0.4555080164388833,-0.04750134291829827,-1.0042682361227535,-0.644235720922396,0.25915462779078546,1.2868669572752016,-0.05750775549012976,0.16918648153995636,-0.11682449566239855,0.05122152308951084,-0.024567545616543944,-0.20458802330533354,0.056405871557368786,-0.019023559142798192,-0.07711076656524798,0.0439430450462795,0.004895173197244825,-0.009482544420717554,0.014564303260652023,0.09264287194792022,-0.05113310073279858,-0.015811723480503713,0.22119178364130557,-0.03336529846960756,-0.13197586760327598,0.0525121131725495,0.1593698796880002,-0.09105787162757381,0.027775128653188937,-0.11539832026223593,0.2654647179348839,0.0031744663722399064,-0.09039096702847106,-0.1206063560296364,0.05946134029547839,0.29605135056213017,-0.23205541220355538,0.24291790527642992,0.1055737562129257,0.3222581983481526,0.02539883499714191,-0.22528265147125784,-0.06153522955705005,-0.09671111050537425,-0.05096222290775758,-0.1292723696474714,-0.005312252018309008,0.05471970931901803,0.02175204781781513,0.0030306552599060634,0.009308901441238781,-0.08299103671676906,0.005889136415931988,0.022616625940957383,0.07531771946907856,0.10006574237900573,-0.2461725561514598,-0.6223850095894508,-0.5639621381799839,0.3108755968454894,0.7953646071812907,-1.2563357764169076,0.5314357058896418,-0.3031640936798495,-0.45248509979173235,0.2896740721324301,-0.7801977291621608,0.6478194708751284,-0.6700946867685039,0.4572572649291162,0.32130057039988186,-0.1409925024886185,0.6640813184307788,-0.053282711989794014,0.3301767950578069,-0.5088486255909997,-0.5317996439197099,-0.046251844911741696,-0.0997483822626321,0.001457764006620909,0.04573138760345363,0.5705153604449886,-0.6420160094274038,-0.42069941774080516,0.7246112289352974,-0.05080515888948793,-0.2710551375859768,0.07696977351372275,-0.3605800284155678,0.09480662361489528,0.027020049333361166,0.1658376376437765,0.20199739093475516,-0.4043255872439134
47.730751037597656,0.9892005920410156,-0.5803871765046028,-0.42767905026825104,1.234124253307764,-0.6881917509188746,0.2921148190642045,-0.4351319157846677,0.29315910306817927,0.2560719236315306,0.6625660707478191,0.8000885915143139,0.9983146350982263,-1.164601248392155,0.5882835727654813,-0.03236069023250296,0.10764692918830313,-0.03450181224815768,-0.09895354816217161,-0.07799478526075096,-0.04422622211801674,-0.01666064789149342,0.04905476584255732,-0.015279154011061995,0.0694082634059697,0.07657454854078935,0.0052951685309734296,0.182442211282907,0.017141486837424856,-0.031430208003046536,0.019258351983005215,0.0425934862596976,0.05998258901290344,0.06997231603635927,0.10649274459261826,-0.041944460854940774,-0.17917912330741936,0.19798645192311595,-0.12482872068873711,0.04444425198339986,-0.14294806687251518,-0.01716071327829024,-0.05760861987520125,-0.051709723170153044,0.18384398452618578,0.023082722489394122,-0.0760922743905068,-0.23747959784206213,-0.18663822883460285,0.019593845131718524,0.08966762696055096,-0.08232211202921204,0.07913079780103935,-0.014606070716638352,0.010475644216467482,0.004992417389190404,-0.11803374815978103,0.004347152731606653,0.013904705859199024,-0.04655210288558609,0.006530803428577814,-0.08276203819378494,0.38780345784936304,-0.4342150707796908,-1.2712336236146733,1.6695061982387323,-1.4952862703018215,0.04621606928327987,-0.9924148998052709,0.03074853568809846,-0.0899778064012503,0.0884463711416008,0.03342595660311599,0.29790180222761053,-0.49367565389923385,-0.14684834560730609,0.9113600496455735,-1.4154714696201107,-0.13963436390009457,0.7898439292558505,-0.253118647689786,0.14883794932191138,-0.06355930166206442,0.3033699951979039,-0.0431045307122766,-0.05890936686004461,-0.08618074754453196,0.030735962378272502,-0.12430654390148092,0.2515201825677463,-0.07835237444591017,-0.3650959148799386,0.2338265198958245,-0.2880040073261035,-0.5265374845699428,0.2659638893576277,-0.15164604137839371,-0.25060365171189347,-0.03710607941175324,0.05423812620761126,0.59235013235303,-0.09011916095028696
51.706748962402344,0.9388999938964844,-0.3338063952252679,2.096225973583609,-0.5638351121410438,0.3319478588460384,-0.7446057354904936,1.7640852061606516,0.04583756396609069,0.1191168965283102,0.3691176911275912,1.0835676642485819,-0.3598379095588089,0.5568669116191682,-0.04635096483238066,-0.08519158065571614,-0.3205233930653872,-0.01625040165530716,-0.04911695190856329,-0.08660474430803645,0.09341835594824792,-0.025319938028042006,0.036434470311737646,-0.017533222386994667,-0.03482008512722917,0.00809919173693091,0.11723988651639633,0.11317178816418169,0.01250108978085189,0.020430238860408408,-0.019498680936044753,0.12407958092751048,0.044361107856709714,0.012128321067778747,0.08364231767919497,0.015868213021126596,-0.08400749279687442,-0.13496373851275323,0.08401780581990706,0.0914207775764262,0.03922757589426981,0.3952902010538828,-0.3451592388902168,0.15697250448471048,-0.22406573419221515,0.47654217785319897,0.456584720609767,0.0690792791416555,0.41556735106212217,0.06230465700905973,-0.12443392977369669,-0.042979697146508546,0.045564337391871074,-0.016091133391734288,-0.009894627240957405,0.07536188482646541,-0.019143231829571873,0.009662533300603354,-0.01582740010616048,-0.04586014557170082,0.08030812112702793,-0.5948017812257093,0.8605446579059011,1.1195197563562775,-0.48299431680064775,0.9164118705323628,0.9062320779294419,-0.4255000732167391,-0.22991120673480558,0.24397308313662902,-0.35472707922859253,-0.22859240458943092,0.020392127483632172,-0.4853043653944754,0.43156639975444505,-0.8355586724544773,0.03625497111076813,0.10492784424267218,0.32385531056091726,0.27443069538510173,0.6628822973421201,-0.21139471164244347,-0.47374919702641244,0.1546237255037204,-0.33738551743261724,0.27956062349426425,0.5205228347915946,-0.558317022432326,-0.04289983400217284,-0.19513429253718356,0.16421905204724313,0.33363497072688303,-1.1613183162092489,-0.2722335665221402,-0.10020193965228073,0.30240525981375727,-0.0162182697292354,0.19796377400505447,-0.11547142790971558,0.42975986028185015,0.9329899961682242,0.02557192414799858
52.64564895629883,0.9489021301269531,0.18506485816708707,-0.6668531901615646,-1.4891221232913234,-0.6442233474962766,-1.0227576677238777,0.8932743576179666,-0.6258005930029393,-0.2056012283577679,-1.5772844186183521,0.010782858748156382,0.4122664409612305,0.011865203452682889,-0.02152539032440972,-0.00362256799571323,0.0008328028816289106,-0.1527483269679095,0.05187848705159032,0.05809474962685067,-0.027326998066869314,0.05159931112754271,0.034910738973938954,-0.0068365005655810825,0.08346790976177021,0.05041073953365487,0.07803132681001632,0.016899904778014608,-0.06201357446043051,-0.02944699892496084,0.06610119630264907,-0.1465986340853481,-0.007429110311822562,-0.2174541123560554,-0.04140391196943655,0.195901847258248,0.04371815642312609,-0.5245738059320866,-0.21901802637408513,-0.01355689898319986,0.022292536829657456,0.15588681321239026,0.043299371074466055,-0.15690161481160533,-0.2940589515958576,-0.07514185057006581,-0.024744119966560688,-0.21739006916524006,0.07215288241717871,0.009509892974058852,-0.041210865476297945,0.11455130499554511,-0.052864820972216925,0.09693498690889263,-0.09600130446860249,0.013768435427633886,0.006961566200693514,0.023090547929486657,0.012698225968861929,-0.06579507326842961,0.07778681067158781,-0.047892981135452636,-0.22817292155688507,-0.01844440709057074,1.797640282934983,-1.2063740023647396,0.4043644157783529,0.07414263456299361,0.010336121259896712,-0.09038512998210965,-0.5046956742529563,-0.29308725841494754,1.0925935567716494,-0.34707244884038735,-0.04810638108228585,-0.7156003658243362,-0.0007348422132635382,0.12690434824675556,0.7672674663118366,-1.1626435707443454,0.5839919696290213,-0.7251432377294875,-0.18947722342636486,0.10970578760071013,0.2028288839819015,0.8620787007559494,-0.31808990605246545,-0.045347556902938374,0.03998863231373348,-0.04458340856870904,0.2921237759284527,-0.39838343536466225,0.39732858045587616,-0.14833593542928342,0.04776295089472682,0.22023431043545957,0.12933582176629654,0.14848175833096897,-0.17522693224118657,0.26911950286178754,-0.10871132008276918,-0.1879695024150959
53.59455108642578,0.9585990905761719,-0.00603402084465432,-0.7057536831622263,-0.7161992660889132,0.4408586830322382,-0.0491785892253235,-0.2190839841369292,0.46221075514244603,-1.4933805918800545,0.37940466622968916,-0.19250629000454988,-0.150494385499332,-0.1739560910567624,0.06907919752139707,0.07687756232511983,0.08954965231381178,0.08867972551866755,0.0259380741222237,0.019635160291550297,0.015518885694448873,-0.035776333280118096,-0.021453364212345588,-0.05766955279247959,0.06586374920457401,-0.1759610025851655,-0.07136135016391815,0.03246937323698491,-0.04862867070635289,0.16246208468441187,-0.08360024914549141,-0.037335903153423465,-0.046117525972407494,-0.020848970233675494,0.023839897208200737,-0.04689609777299081,-0.08206888856859566,-0.03132036307258201,0.29513125891053743,0.027919192130318356,-0.06964338682520128,-0.043351617533169476,0.18210970471559138,0.18174871880157645,-0.3380915985003769,-0.19292079782560087,0.26150387528929453,-0.10670305827295307,-0.09277829315807128,0.20860441806604343,-0.08873338837476064,-0.16065662812430465,0.05009055895816372,-0.10325974730802127,0.06389788054595903,-0.04235610893771922,-0.0981573555575056,-0.03442123871386012,0.05851864814840239,0.014947197025409541,-0.061835459215871025,0.21845945624810842,-0.3103011461510748,0.5982060276410605,-1.0138135233098657,0.5847084442304726,-1.1596773628384713,0.8244242715141323,0.5142595782697914,-0.26089911799722953,-0.37794157606391693,-0.23645095515081857,-0.10784977734601595,0.2541031808032006,0.18581479577253807,-0.18326591852194915,0.23822761599076883,-0.18808294461232286,-0.6325412385908264,-0.3793853120839625,0.6314906064614056,0.11526770781323327,-0.5714799367669886,-0.03452556131068146,0.49671812102467594,0.34764654852277427,-0.38270239657113203,-0.05328965915286757,0.6565533410123463,0.5103889600276257,0.08309045907272164,-1.341989019359116,-0.03403265264790617,-0.9004616455383502,-0.2615388700242991,-0.6472579068443299,0.023670861839491943,-0.2142137012598963,0.3437816921636835,-0.6100469815010056,-0.5385536112304418,0.6489663784039041
54.55315017700195,0.9687004089355469,0.29963130298006013,0.2596837287159581,-0.5066349133282038,0.42089089788163025,0.048801712078788397,-1.1543359551759413,-0.2292861902840564,0.10643503641558386,0.08008950832055055,0.38306417121309805,-1.2582046028117848,-0.5304017751700645,0.2037183110861265,-0.17387669316124177,0.05647181092344856,-0.062399736271793856,0.0985249377654673,-0.044967728036025285,-0.060676239189531626,0.009413019440209088,0.03974071731353612,0.061979828064219374,-0.02146532593593464,0.016616942007976254,-0.09735511167271883,-0.03290609954719224,0.01463785292129571,-0.0005261198703416237,-0.11311288960038826,-0.14899630667586838,0.0328371535618513,-0.04340105744633587,-0.06690454112621201,0.005617247820905721,0.051480744136090495,0.054267430314140976,0.20239132773100407,-0.07730522512351685,-0.36207631509753396,0.2422014597392928,-0.05206584466690503,-0.17101682032410684,0.09019764898330639,-0.2046799871453302,0.1729138568238758,-0.08792166919544027,-0.07657789426669133,0.09198822098904355,-0.06461372278705532,0.14220999049414348,0.10272404915986544,-0.16451899240197973,0.03203826207795495,0.005260393912966726,0.005759902873033412,0.001964935457490419,-0.007675496979690103,-0.02341519621081907,-0.12167941398068105,-0.09401359757983341,0.009869252196735177,-0.06775747275198182,-0.21299040827868998,0.8964569366099354,-0.5612070191811561,-0.3574877122792563,-0.9335317385602844,0.038794305835431725,0.3805203564509845,-0.7341770692976688,0.3740966995352268,0.14591471490129942,0.04076190150012877,0.5099414699820392,-0.26859345770794635,-0.6836876940799195,0.2373089561276056,0.2740507383056992,-0.25004231593486803,0.10155559218151297,0.26575149286884825,0.11594994357898178,0.2278716196336348,-0.08983268361992126,0.7637069604012697,-0.42305871405690026,-0.3656669369024054,0.7477665575098065,-0.6201122064486697,-0.6552291146605479,-0.16368429416126581,-0.33495512970218155,0.0962511475813324,-0.4281062833729956,0.14295990083955806,0.0345723513408656,-0.3485026918528875,0.09918433860178599,-0.29908267755549134,0.3555927512377616
55.5218505859375,0.9795989990234375,0.28793048823290834,-0.1071991925103267,-0.43848714729638005,-0.9340977950348489,0.655604395966181,-0.5398482316929917,-1.258420076829303,-0.3873832260620477,0.5466484237481747,-1.3237480906042185,-0.750867823359319,1.9035816675750146,-0.26680294018762557,0.4798323524760866,-0.07796568079281148,-0.07598578267880277,-0.013601255771763847,0.0731446870263594,-0.025630473147583103,0.011481755413011855,0.0516532047929331,0.040413701040743384,-0.02277397394157993,-0.05520392822272406,-0.14968382169983138,0.19796901839180642,0.07847521616531035,0.2078983809418974,0.04216236125935243,0.10111462783021254,-0.09112454388598437,0.05513055936145461,-0.003855482943932177,-0.2840007295655035,0.0785967792829977,-0.08616798513166106,0.025864887314034173,-0.3257051464183701,0.12859661728974833,-0.0614894756974365,-0.03996231875233957,0.005813570416628902,0.13766371840047936,-0.00011529599402720914,0.18164480384865803,0.1718724287339996,0.19227059797466775,0.1448548155028481,-0.23695232417182696,0.07847699678837222,-0.13091262336771003,0.011029678658111431,-0.10123782846916778,-0.10554882167595517,0.04919525500538738,-0.0925573486914316,0.13833689505269683,0.01634608380847241,-0.01609167457057606,0.09289512113129814,-0.20829086944224437,0.7832464723347957,0.7927848247764939,-1.3958192638521911,-0.5942245944730552,-0.3175277282061143,-0.5813794939228316,0.053130613348037814,1.0260640687869762,-1.0847547755045115,0.3732129893789491,0.04856856747180198,-0.008398930335063155,-0.08178704139963258,0.16910059461626498,-0.20374867767180424,-0.21536729212557187,0.2138748006912825,-0.118032915843787,-0.3741404637318012,0.07596393381451184,-0.2527301169945295,0.6187665219232007,0.1773234114660796,0.0444559311488633,-0.11970859675644974,0.2609517279634918,0.8184203531324465,0.24097943035765557,-0.5288147874576832,-0.37757982955199776,1.5564453401428229,-0.5572909558816728,0.365373539246309,-0.017272133196724215,-0.22346405026262461,-0.009885616061968059,0.0502107043183872,0.41512591536059057,-0.5432137058875003
56.50144958496094,1.9771003723144531,-0.07036294262813181,0.6398313151335578,0.14743826307606142,-1.328433935947951,0.4342412946669826,-0.2041988368381227,0.8564179891087245,0.2978673494591801,-0.33176563291033956,-0.8145166208573571,1.662268518983351,-0.4480474907959605,-0.8478051590622264,-0.24095098519264807,0.053805785689751216,0.05191568286549891,-0.027731799527299275,0.06868863985515333,-0.020716812449784315,-0.00834336411138053,0.022934433990568402,-0.018495389214209804,-0.14347735231537387,-0.1603605585318733,0.016983124828193447,-0.0204024274481371,-0.02496736787998366,0.14316517076251414,0.05965064353889653,-0.15978597633819844,0.09566866758286639,0.09368745298699324,0.026515701299410416,-0.09685383720676295,-0.01278628013696203,-0.0007822857929451754,0.06976645512907195,0.17954433977004913,-0.023337552056912063,0.07625927256947296,0.06564783669925195,0.0922603310023924,0.30617459039267586,-0.0027506757633867064,0.18785155772198342,0.18560549067152132,0.09018732292590924,-0.01622598709034136,0.0220480974732979,0.04791306142395137,0.0574744489754584,-0.146686860900783,-0.06794076565594433,-0.015381831008298978,-0.01440010941776177,-0.1023577836234354,-0.05856505345926625,0.05332629118718543,-0.072807195454819,0.03336292448891832,0.2069361334255356,0.04215050372782601,0.4383979128146026,0.6328610012855779,-0.013155110898710062,-0.04757817085711337,-0.588483103052752,0.6754889085384488,-0.9023317892497066,0.6386202378672959,-0.0649142073880598,-0.0035244124657410475,-0.22620964332466853,0.22807882549021152,0.31175708091304477,-0.6609755109498183,0.1731477149798497,0.24897254880153086,-0.1205733791242956,-0.37299384822359893,0.47763282570780036,0.5464310952049931,-0.45397155508612486,0.038111494671661875,-0.2783335148056445,0.10610808803810212,-0.5942425508627844,-0.09387089485933411,-0.13714337180759867,0.36007346368565085,-0.3786224976142697,-0.29896999368972743,-0.2924237492863181,0.4146219668610564,0.0895447733624194,-0.17662343584131754,0.30721444873766174,-0.48742220544136583,-0.13811125409323413,-0.38984423672687973
60.35694885253906,0.9289016723632812,0.4445042577914672,1.1326385082263117,-0.5100617562558438,-0.33290570960975097,0.9009175324429883,-0.05728526986948554,0.19909286140600582,0.4521561220291854,2.2776901051173524,-0.7914275377544207,-1.0704004849500912,0.04550853740904507,-0.16508181848173448,0.15950563779030646,0.09090589447012386,0.03781547245267104,0.018213267394646585,-0.018401364938902424,0.019366492456339472,-0.025818165987499506,-0.02859053998618889,-0.10202949431118385,-0.00035388712268032943,-0.08308496884897722,0.030428692515075365,0.0649604336829828,-0.040734053604357674,-0.08493510437700762,0.16758613613335038,0.08249201035199996,-0.04445858718244216,0.11752681308780727,-0.09351346897153193,0.12688358850960407,0.06565173841662822,-0.08196976760130327,0.07846275426571463,-0.19799715120635852,-0.13223871333034543,-0.1491048106336405,0.10343295467749057,0.03643949129453705,-0.09952852205054022,0.44804884540313433,-0.10919531043032382,-0.11436503283806465,0.09786939464587024,0.20648883649492605,0.05557023779049197,0.14920356265350662,-0.11021291733368378,0.04035729723069521,-0.044590120685670365,-0.01699058658846802,0.06950913483309429,0.005903953002570681,-0.008428399176044645,0.016814266514438188,-0.04231876060827035,0.009883372810538964,0.06598695895137804,-0.11811969532645233,-0.3799462964999706,-0.05509889378902057,1.6936791803692892,2.1358792479146906,-1.7279639882868574,0.5004384832743354,-0.3988978748545512,0.4665418527717419,-0.74533289568526,0.26820404927149366,-0.2931758786633849,0.036151119699397764,-0.09722706479535423,-0.481355545834859,-0.3136417723541738,0.6926484943622154,-0.3805207069050768,-0.3855291506590526,-0.09100413613423633,0.4472945915313288,0.7434257813111953,0.35058851118625145,-0.3685713498460473,0.09982984824000946,0.11158395624460815,0.04881434223974504,0.607792420136446,-0.21993450930400002,-1.326354458258623,0.06617569663133686,-0.25678595569757473,-0.7355640931536466,0.8076227628156436,0.12456205342900857,0.06970644008181127,-0.45946242333176274,0.2592035946915908,-0.4551463242971888
61.285850524902344,0.9285011291503906,-0.5679768740349828,0.014398983612867337,-0.4600820892070744,0.13470551688642074,0.6000348289619185,0.004303005272348059,0.13632668761684807,-0.9877779123832104,-1.5443298264568703,-0.5332705400440263,0.8259689258291817,0.12277513530400246,-0.0017323722494866148,-0.01820133692938155,-0.03884898526517496,-0.004197140895920451,0.0033034468448566966,-0.04461597043347433,0.07828245237148954,0.004817741663385114,0.03878379689750026,-0.10514634697962591,-0.05390115486697847,0.2256731757982475,0.010892866188628288,-0.019235040221510593,0.07528549981462317,0.04069717784306581,-0.07114948108235465,-0.03217673991388644,-0.008160035531984853,-0.005068210039926896,-0.17576794623410394,0.027618323546261526,0.04707982785997131,-0.04376778538080833,0.26879825295668264,-0.004608552900440599,0.08796945915734299,0.10510311432820449,-0.11112830368158179,-0.14760549341749105,0.045929998798988174,-0.31733434934166743,0.007221388073588297,-0.010907991052737591,0.12672477757550918,-0.010606794186012732,0.24451398625556606,-0.12594125003503676,0.06398123449297302,-0.02170287042396153,0.06579186656150143,0.022521047735875245,0.036790138884880905,-0.00919245613744174,0.02275954528257495,0.06620135233600756,-0.03707221806095263,0.004824972344559036,-0.16133028595877247,0.3760315776148727,-0.8432507706247739,1.2553742494964228,-0.5095515042705216,-0.3232464712907013,0.09962544533104525,-0.4508176358489464,-0.5015776851160743,0.17243856588995546,-0.006014440640503951,-0.07012552159180745,0.819409125962901,-0.7859079873464461,-0.5670256998409777,0.7471126483579065,-0.2785298264795342,-0.49148034241398414,1.0030213074192806,0.1718907570097937,-0.24478807987358253,0.37345748984217964,-0.658565063749819,-0.33949116913134536,-0.5931121535628588,-0.38633489459524106,-0.23119100726048672,0.6088283640051223,1.3690887466898158,0.5540230151818263,-0.7339522009321228,0.9079684460774,-1.1895338197954337,0.08514296834182371,0.4758758803184795,-0.17756515392876565,0.7175130147551804,-0.6959731210668871,-0.16176173630856422,1.3453510819366723
62.214351654052734,0.9594001770019531,0.9714172856434702,0.9861309197486373,0.2917303358480651,-0.6587753996441607,-0.028207833903067636,1.1273824391760452,0.24402524539989942,0.5916507046155626,-2.0652521599610267,0.7713573438394286,0.033967040937926574,-0.08885928776816468,0.0550236787244642,0.09185742727077811,0.24874390667579732,0.00860172343278598,-0.047422465353213296,0.09367683691264463,-0.07852554999879954,0.018325078442405652,-0.03225075957973799,0.08033815168561972,0.010872400269829875,0.15676130546454653,0.03400538878205786,-0.04697795597480382,0.031165226768953776,0.06029238814259728,0.0017639996081349383,-0.018036265606826148,0.20250590913734245,0.007945386651010942,-0.015994660032102044,-0.08932668242045241,-0.09076425991045932,0.03436069617959519,-0.09094856642568629,-0.34039475676181724,0.31155334222468023,0.11220420198079545,-0.007698472030823208,0.4396692081186589,-0.062232866424847225,-0.24269753738802255,0.12112046574095404,0.03045857707369054,-0.05464190382117726,0.011206795346611745,-0.08603181644115401,0.14753347463608973,0.046430737852548504,-0.04249960713970067,0.06834408822551863,0.07883187571283319,-0.022281511590776973,0.03253536239229784,0.10507411177491108,-0.042330952874582134,0.07764133041753311,-0.04816614798416318,0.16780943299887968,-0.6072057027863252,0.07644519843552121,0.5613999343774485,1.1314835363443259,-0.9467250855119289,-0.7703313072528528,0.9725157917274209,0.012238055012771858,-0.6016735344028826,0.45691582192427554,-0.11900689858410321,-0.2930015533866363,-0.3953973104382856,-0.057901279599718566,0.10694847086743542,-0.016034293951649056,-1.432877152930591,0.09671772658402047,-0.6506651443686317,-0.25128937081359537,-0.05386766664184621,0.26610280820018933,-0.09570847644290531,0.18699330631762212,-0.22875431410956001,-0.07274282756457136,-0.4785042171999601,0.1572973813504852,-0.38617829663039394,0.22318950932566997,-1.1096833496690184,-0.3232028267052525,-0.2772954294118236,0.7103578703532359,0.010499129488623186,-0.31185487848190424,-0.3577747305322259,0.4414975643519947,-0.10679840360588487
63.17375183105469,0.9589004516601562,-0.10632982802751521,0.9430488837209116,-0.297649810671307,1.197495471739969,2.083449419524953,-0.25831460539811013,0.8386043207333,-0.3245479633954078,0.9891799761634982,-1.1664889311509352,-0.2740463664173736,-0.3172918130638183,-0.588463706519557,0.10452310475223972,-0.14515427447958357,0.1993819242568729,0.1415154140895963,-0.005388726288860182,0.007233674051223377,0.04522736492620652,-0.06475208612214002,0.043916144798731495,0.07119351118529317,-0.07241132325041391,0.011239544100686505,0.19689045364007887,-0.06285075020199465,-0.11971625211238555,-0.08138827599363656,0.08206338533179007,-0.03249312105142568,0.11057715714549325,0.2328358967758673,0.22477820400561377,-0.02481559577915913,0.15594433852984063,-0.08563532102081103,-0.048078710476481344,-0.027894864084316774,0.007288204279428131,0.23954179129083866,0.4490298931898067,-0.11816460000001391,-0.030478415831571626,0.27116821628226784,0.27880936700710884,-0.11706727153188848,-0.06233575016039533,-0.1688782851977688,-0.040204536213265564,-0.0988029920096597,0.003513834682076422,-0.12035331521476274,0.0730750013990067,-0.08056624726767583,0.014824039340156015,0.030545514033611686,-0.10483163184617328,-0.02346426452567852,0.0986109639821488,-0.07582547889137697,-0.3783098793033996,-0.9202096843989457,-0.18205963377708204,-0.8026142554206547,2.511206335147487,-0.28536141564267575,0.008898769520594749,-0.18216222188825637,-0.019734628156146808,0.053162740703973005,-0.40451151912989597,0.18715183527212334,0.3550863825969797,0.003288595315690401,-0.3383492284608521,-0.6796284997952009,-0.2797919178831844,0.3701570594707593,-1.3215448256387181,-0.29651890425079114,-0.1835305259756633,-0.2590871070747315,0.2926342912333683,-0.14303234057917052,0.0795882339087833,0.04549844098731343,-0.38616738100246034,0.4202676165746246,0.4172799621166725,-0.6301266291295968,0.5284309756663866,-0.2599764587648897,0.12109857125301807,-0.003284835936892787,-0.17067818501522936,0.43177541601739283,0.06624701265049988,0.4040844796673382,-1.3355230599220886
64.13265228271484,0.9688949584960938,-1.4147310481994448,0.918371796696569,0.8988899645227608,1.6611905193779644,-1.3859151967631655,0.3966743269720742,0.13651663836719402,0.5470779292073891,0.39427429865586916,-0.7507128157589357,-1.2682507666068072,-0.08658128603362909,-0.061136909057496344,-0.1864459984918662,-0.015466848874564407,0.11506257273826284,0.027217295493221206,0.003177154247499313,0.08857928315243967,-0.035131419818549524,0.01775367518124111,0.01869189522081154,0.058522923548143674,0.08678021207568973,-0.02746534839091906,-0.030968407128809498,0.06564238197445044,-0.034275590935816995,0.06263295195160072,0.0026618079665294116,-0.22286065227634794,0.027440229057774296,0.07161657429074478,-0.05800620610620749,-0.032343322591133865,0.15671731992476923,0.06345862936617774,0.08096825113236418,-0.030932446075413796,0.3553998497927632,0.20794942420624482,-0.24732480668228654,-0.10859382186762151,0.18765566680121568,0.30222730448426127,-0.3894234044042551,0.4605249263749299,-0.18294573860392477,-0.03006546871387511,-0.0436910160118289,0.143993855413608,-0.0821299900099672,0.007806733927621822,0.17050307868934472,0.05670870481219625,0.014924249949194706,0.05628185482614644,-0.008364115861888212,-0.013557412931355229,0.11593401744784974,-0.032622327195635334,0.13105198861622536,0.33368571475124315,0.3433626658657864,-0.49381603060547186,0.16556441474244415,0.43767469979185064,0.8360575691077862,-0.30522101328647366,0.6352996721749191,-0.4982138193193239,0.22285117883138605,-0.04034871343194574,-0.15061458938490158,-0.09705579036083758,-0.6245833879818905,-0.5099372682287991,-0.3616516786622852,0.2407649707342267,0.6770166018897058,0.5050720156839152,-0.874078066007439,-0.16767468643399414,0.14096469986229243,0.6657877142892862,0.12162879988935194,-0.07491618484311052,-0.031225021240296157,0.7538565397224143,0.03374026018536655,-0.1411852955486566,-0.29502984376787866,0.8297154819359547,-0.6188182850373994,0.343995186985642,0.07880150121913898,-0.2493742394934742,-0.20707308836426552,0.4885282193994693,-0.2577989467171521
68.0383529663086,0.9386978149414062,-0.007146425030240711,0.21390361496501423,1.6161126991806174,0.0842454423396149,0.17775049412559596,-1.1001851442328154,-0.027707859646629293,0.03189532064245071,1.3268201389087062,-0.9534530449144286,0.480477617424176,0.12841551166013948,-0.027124646300351187,0.25009303391274906,-0.005656892862369657,0.00012588669655859603,0.04407612766931149,0.00029335958692713914,2.085231652928707e-05,0.05410720828331402,-0.029613715095016653,-0.04381369627065836,0.0022894309583408982,-0.11121923558623656,0.0015720829715886626,0.1909794598697907,0.03431289844976822,-0.08435493392485485,-0.047305603140893215,0.11171580962159006,0.026225162996588232,-0.025691456102640772,0.024679215510515273,-0.01984552065188619,-0.21330069369830748,-0.14127246154912196,-0.12443941062877534,0.14400719212725616,0.12158459443829425,-0.1646615692537817,-0.20402161000121005,0.0077430920722331605,0.06398314161648973,0.5623210092915066,0.1625575382115605,0.010526423806771046,0.13780553951112404,-0.006275225329581802,0.025276385905365198,-0.046937406882390786,-0.015524899408781545,0.05540249835814758,-0.12292452777430836,0.002597428502708291,0.026492005300458144,0.06555383623629582,-0.06552414447850406,0.0760360130679853,0.10812312245100271,-0.0008446672539794003,-0.033697309637678995,-0.03014689669836329,-0.43470730325588086,-0.04659930177933026,0.005497770339396183,-0.2931725906213576,0.2656097125754195,0.3612450059626958,-0.37585393833358827,-0.17538670515973911,-0.6391917099165361,0.8738497894374958,-0.4632360018160314,0.5044460560258145,-0.6270150642677988,0.6649624866080568,-0.5169720204181513,-0.11975085222215559,-0.7214669162328413,-0.16677963419583772,-0.2316190307500057,0.41584925089740443,-0.09656244532131963,0.5684508422200971,0.07172836608337597,0.11535931207245032,-0.46717465753233145,-0.2256402035557386,0.10360347625634542,0.7575053006086838,-0.08349384050219709,-0.46390582380509904,0.4520499691358828,-0.6381604256577235,0.04906254389192701,-0.27714945406558966,-0.28406535292804624,0.7379955474403568,-0.42073541607473264,-0.011032233946697126
68.97705078125,0.9487991333007812,0.034874956337267005,-0.7365332368716758,0.8940103521371815,0.7070034346092997,-0.29040851077716123,1.0528263247759557,-0.43198518557005827,1.1521799932498367,-0.031885523757237244,-0.37677609966179365,1.6320571571925877,1.628264830285846,-0.40669031414467444,0.118977153471573,-0.06769096120177258,0.07186978800601129,-0.05475369723873319,0.0016476805177658527,0.03532138552568948,0.046595946094300296,-0.010895222539449953,0.0558194554620296,-0.03432935946730311,0.04357621736666684,0.05261528596337438,-0.05400797768952201,-0.07643081861522544,0.05549592690075989,0.09605517073220263,0.07739371029616521,-0.03366082999021888,-0.20317864578531547,0.22116411677409117,0.1955935388516312,-0.2045172127871169,-0.16853251610802064,0.05029162128042386,-0.23043042090646548,-0.04458501736203327,0.3139389044398814,-0.06523903825240243,-0.29024408649964706,0.09897327823043192,0.09100754661972543,0.23929683436211552,0.07536342492156517,-0.078181896804944,0.20139195388211348,-0.06000149092272504,-0.009688377524987435,-0.04915449969840205,-0.05303469622078586,-0.02118368990874457,-0.012541893970296479,-0.010369930179471815,-0.011981315178382556,0.004458864132270285,-0.01367795250379492,0.05591240222280264,0.10855619144136704,0.20577862224516663,-0.4910887620486294,0.5079942763207962,-0.5287122664276575,-0.16174524716211142,0.4576327670488729,1.043090066953451,-0.11861791044997932,0.6974764127301807,0.3941215706755036,0.2733211046939946,0.00901095899926653,0.5302492724477903,0.47324691937134616,-1.1612154181695526,-0.32410435604538634,1.328449188024006,-0.4837942322508066,-0.15518443096645404,-0.496974609809829,1.0976327412235447,0.11661840143507016,-0.40360575128840825,-0.010925922415209108,-0.151765204555599,-0.08042244755676703,-0.11741451394798046,0.17261274012966316,-0.0044346782620730656,-0.5817480937827453,-0.14050633971990897,0.24396094787139722,-0.17174537814069815,-0.023630968867619936,-0.5417182422557815,-0.1127843678119056,-0.062097715650024726,-0.09830907941157395,0.43404060628526864,-1.433377085445119
69.92584991455078,0.9691009521484375,-1.4627875687483467,0.9885073029404613,-0.2766129784779569,0.2500309996829945,-0.5882494658381435,1.0182112462104858,0.946605672287025,-0.8397788192540564,-0.19210014720101726,0.4725304503176025,0.39199950592321303,0.6891524785255456,0.3064168829821194,-0.32315338852376474,0.0773632163371253,-0.03135470327846385,0.009799486169204723,0.07436837555491775,-0.18904270564515685,0.07581005351715805,0.015607330551451913,0.06486258757785746,-0.0046853031536818225,-0.042000272841288835,-0.039298123119803734,0.06369392719087731,-0.01856846034385414,0.13677744788409432,0.03300845234847538,-0.03902014918156909,-0.11726056307755306,-0.07660817489201177,0.14092162437490757,-0.040428924843014365,0.0016188202993196593,0.17528632551159803,0.1210181958538935,-0.1119466829213135,-0.18750288440817908,-0.08285326943525745,0.3899303725083032,-0.03445265095521269,-0.16293612404397814,0.4389291727522686,-0.37430200028376354,-0.4135556230576055,0.027855761047854893,-0.10142044392604221,0.0638625213559074,0.127955944123108,0.009653189063108143,-0.019704777215182896,0.020710039784569523,0.016859642864811904,-0.004495327436807049,-0.025096344490638425,-0.0030484669547160954,0.007435582036652263,0.04700221911454731,0.003871973952101232,0.05437528552867622,-0.3799014707297823,0.5619194726744439,-0.8090563279582698,1.063546768779705,-0.6566857869668867,0.2214107377936172,0.17943285760253763,-1.1890879015185953,0.5479257935249258,-0.27913963816877885,-0.031022408488982002,0.20443438906972433,0.4606230047021368,-0.5479984438763086,-0.08261872356450599,-0.1708002458267739,-0.13186259198560807,0.06313294548633977,-0.008054811822852087,-0.0019181889770347842,0.23788235830613147,-0.1870122585019231,0.2301127259769877,0.22833453361300274,-0.1441163848089604,-0.18947493733953216,-0.2162652027179004,-0.2738786073107284,-0.32154821852699067,0.5997928109774111,-1.2744701954437843,0.5693184452385234,-1.253511081245456,-0.6441759235516331,-0.12570837336648966,-0.17790021116427535,-0.039890072421008164,-0.061699907057153,0.08819504156585131
70.89495086669922,0.9589996337890625,0.10294984745675627,0.5734948265461149,-0.9004260201179519,1.2607952303851113,-0.9218762105645748,-0.03019840837668982,-0.8453727381978795,-0.8571597427995394,-0.7987681168297043,0.4829616515504161,-0.951223869329777,-0.7403722685643622,1.9046937334098828,-0.02234824894233227,0.03388821310404201,0.08522321956361247,0.008312749050788229,-0.009723558963627879,-0.02920518738160493,-0.028478288443694787,-0.0409406853030141,-0.03663275882833146,0.022457898580975987,0.10066289778332208,-0.018963502971503746,0.004485714804385116,-0.015879985260798538,0.04347518129438681,0.06401892052806303,0.05440005787103399,-0.07028599846777622,0.057351203508429455,0.062029936993146115,0.11361779443295643,-0.06332036820377343,-0.003058237768598343,-0.02816618999658109,-0.14590030123006373,0.09095346221654425,0.02430915683269718,-0.12372726181873037,-0.27616472962934163,0.12781748354667813,0.18533691177854614,-0.18832817522662518,-0.13802495719959093,-0.2630957560324702,-0.21843073169118454,-0.009570699744653846,-0.08224727425026465,-0.04607556326121854,-0.11366364436987793,-0.20277514472049465,0.07361271298431042,-0.049460775963062496,-0.03469902649679805,-0.04017928483136611,-0.041464485655102565,0.012575163598818148,-0.018312812792073568,0.01182384318187206,0.0445184911339532,0.2934627772994852,-0.28943491770472896,0.10670065936280085,0.5036592793021777,0.025536286725295454,-0.05858173651777138,0.14205449852706598,0.22118252648040354,0.5617801811153591,0.216610099560213,-0.24129694360302928,-0.16330936619474826,0.1494142775701517,-0.1813973294073235,0.693253024708651,0.7692410344007587,-0.8836577831537812,0.9405079803940978,-0.4526965757079924,0.5176728032280715,-0.041192521636601996,-0.32500765133469284,0.17749261335290006,-0.5978884123889345,-0.037338931914127446,0.36517510425682964,0.5716430939401514,0.03999592573143687,0.22002434917838032,-0.14171127484285015,-0.8667146405789682,0.6087562773037811,-0.046699685897967746,-0.061286259383663305,0.6298060795120011,-0.6283836530992908,0.7257181074649429,-0.09850914289587448
71.85395050048828,0.9388961791992188,-0.019633319685047695,-0.8370801315823435,0.9144343958553607,0.7760225209401304,-0.13364539945206483,-2.517007356729898,0.18679921022861756,-1.1016723667530175,-0.5864085692327046,-0.23977055161445104,-0.627246614175253,-0.15270412153783708,-0.15232007804260617,-0.25943872163354187,-0.09692179264599379,0.03834294080051814,-0.002345209574519232,0.011530085250625835,-0.024412880791593636,0.0006212587173486809,-0.13038546706529078,0.15754966863516107,-0.01985114490265201,0.02364099634855994,-0.05767640914266991,0.012685683070248583,0.03551088885622325,-0.04796692827320016,0.10085216901333575,0.02508795927569902,0.07150887814320264,-0.11869240945802789,-0.012111609861349536,-0.25370536999215604,-0.15298367580147504,-0.12280737172663897,0.23910658083908393,0.2656747072512701,-0.10132358565593318,-0.12719675096617167,0.022644114537036266,0.16896058518895568,-0.02937289833181536,0.39827951485991026,0.02873760877111735,0.2756927219063867,0.12841800142295554,-0.05478706311092933,0.07750460670320984,0.12144288764335438,0.025347676931785655,-0.052504194480044446,-0.03594508597478098,-0.049366994753579765,0.006155974744528491,-0.0016764787504703824,-0.0015449431131018022,0.038407106151166846,-0.028656067731558793,0.0842269627663568,0.004288816770800528,0.6105201158087644,-0.17887067213775604,-0.7380749705399958,-0.08947928417753487,-0.6046006367530147,0.8494262993672627,0.9593061206593959,-0.2456913546310477,0.005260302186233421,0.17359856839681412,-0.25054250418517193,0.24204620985483816,-0.2038431437860726,0.20586953763584298,0.04519370116862427,0.06732173246310048,-0.4045993356366265,0.40567319925433176,-0.48975172465336714,-0.08630036267279649,0.08777651022539852,-0.4451878050667207,0.15087681733013064,0.3016456369130122,0.1796141085132316,-0.453864950647378,0.3581113530276039,-0.418747334709559,0.07884085727832785,-0.0767846025077226,0.5242335866630057,0.596940556518855,-0.11427687162190309,-0.05807130245434772,0.06280000312819281,-0.26077401593585714,-0.02420743805869284,0.0646783844165136,0.21526980812592134
75.72975158691406,0.9589996337890625,0.1436642036120082,-1.0217771615677778,-0.0975639262432797,0.9403680196395461,0.9812566366248451,-0.9022145524082946,-0.6736285662590284,-0.3765839931517653,0.038954360937238586,-1.05830964353785,-0.22205585763264368,-1.5247011582682266,0.24098218054712883,0.02829754505211196,0.08594448795308286,0.025793013280095395,0.16058078190976124,0.09153766323082861,0.09024408435263707,0.01906431595635016,-0.05691437727565963,0.07868782119192501,-0.05423450175447988,0.17925923460430188,0.0574546986501225,0.011038189048316816,0.14430113963138624,0.24172622151587542,0.15697107901323937,0.03512892727540796,0.10755320660722367,0.04411327422754356,0.1841539493479312,0.047678359913816706,-0.27227324119681146,-0.0005878449060290891,-0.15692381746573075,0.2446599083351984,0.32762371512057287,0.2436020974906411,0.27882943940069094,0.30921950650207086,-0.1554481023660897,0.15937163161855,0.08590361911723357,0.5572005336455672,-0.3045008104730376,0.16089859149346844,0.03079106956568356,0.3231975097486343,-0.12900149152054893,0.09023393864085495,-0.012708025338565817,-0.011243355074605705,0.11938137505587902,-0.011480085145373518,-0.03938695716813854,-0.008581336009090671,0.05007484399839837,0.1432286717898551,-0.033410848170399264,-0.1517295498287716,0.3642224111308272,-0.43271452544013583,0.32835651460746973,-0.877537366733211,0.9233060162570287,-0.2509617365803021,-0.7139324284452327,0.3651635767423308,0.8879775270335731,-0.13857476915693215,-0.5097120632444616,-0.05600866960373468,-0.5518338233748404,0.24520882953797998,-0.575906211101003,0.1576154218346919,-0.629983380098243,0.21008145375854356,-0.6556899505146,-0.2561854849631353,0.36606486510758945,-0.336054221010225,0.2317813666334588,0.135647596124009,-0.3760817300881239,0.26045058603613325,-0.11858607485166853,-0.6862600425799401,0.04299595223806041,0.8227824207914476,-0.47171377543165954,-0.09632430569215483,-0.3408912628750951,0.2558283734715895,-0.3594415869962386,0.07963723358703768,-0.21891232046291975,0.41223624226098987
76.68875122070312,0.9482955932617188,0.4564546260920157,-0.10468791904747181,-0.16545316155259804,-0.9596694560182668,-0.8128289310657381,0.7532704393742298,-1.710261853892931,0.990392078577014,-0.4908082600103525,0.1465038148392664,0.35493790246349877,-0.2605998905327765,-0.08511679291822151,0.16831829560867392,0.2679113478216343,-0.07905454220599045,0.05741780557116693,-0.020640918328100007,0.09378404513308121,-0.1009544956512005,0.08124845266930614,-0.04378800121490554,-0.054987328688141324,-0.02092381354825415,-0.0272523742445003,0.06758917224810995,0.043817496139789344,-0.0782034670572344,-0.09766156926249488,0.15542747524040978,-0.1292074644940146,-0.024994152245196286,-0.07326643846888119,0.19600118744954817,0.08600716884286291,0.12063241508902164,-0.041751428298105644,0.14770917690204463,0.17916506959565867,-0.07369828439102442,-0.2680380220407126,0.25325201066084957,-0.07641836386951101,-0.4128379765732184,0.38096970746208064,0.6379862753446137,0.08949835482700591,-0.15860424523503458,0.13739056800379515,-0.4229701989987444,0.09444866251747691,-0.17970682854644596,0.035400988085841564,-0.00809609949056775,-0.14550406023150866,0.0034241602629912237,0.03853946030308338,-0.05968420479186593,0.03650509385556318,0.1136097745175002,-0.13178457017207668,0.06251362029196131,0.6600020433911726,-0.35946344658192464,1.7427271154046207,-0.28490972853960395,1.1454073390922461,-0.3483290306312815,-0.45379324771306806,0.4927909280938952,-0.22735035444493623,-0.03997198685516495,-0.08962655931317123,0.22885029906606294,-0.7441957250490806,0.3182792240702924,-0.41279748148635725,0.8514105931558773,-0.4123245129655951,-0.3448633504175865,-0.8702343732278043,-0.10928281747817056,0.17518615139430313,0.5050290084027697,0.008236402546730439,-0.21255076017207417,0.5193912505578447,0.0965046545995632,-0.03494912602458122,-0.8349444974200966,-0.899209077544163,0.7893190297160658,0.7592750905121415,-0.4429162213455219,0.14347540567468728,0.038290537989048884,-0.5081673303062603,-0.04684831845071315,0.5884787873454518,0.1657229963352781
77.63704681396484,0.94940185546875,0.46255734729537584,-0.2965199943570743,-0.13968401840667455,-0.047153491736492456,-0.9519311043050006,0.23407440959265197,0.0988647130249934,0.2662275179638496,-1.2715617599202642,-0.7031309407186218,0.06796286248577431,0.13466268266112527,0.09612472564772093,-0.1964064045839848,0.007520838193964987,0.016194798662956447,-0.049149341309037295,0.048673150820174566,-0.04418875806841166,0.08014763890961041,-0.1797666355323401,-0.037682288091083614,-0.24403976295198962,-0.012704287237892943,-0.10530892467015873,-0.00931822923462131,0.17688687189951985,0.016768024101781756,0.036258829997917505,-0.0730236543757706,-0.08391921147974135,0.0522386217313774,-0.0663515234666263,0.04800422582415187,-0.019257502852337946,0.07011664757978033,-0.19778332145524838,-0.3157083484684219,-0.1263989776715284,-0.14919917577074598,-0.08333533777109861,-0.15439876220335955,-0.13604366218005415,-0.21334120712678328,-0.22662457383429663,-0.5269054219303944,0.26742568993296306,0.15871227631223986,0.008253398900967443,-0.20541821354546116,0.023436702087061476,0.09876062721992555,0.047112254238567165,-0.06454137475304672,0.009153251065143177,0.008223309201696685,-0.1382135528914329,0.043311845993215484,-0.030117167520334644,-0.007818799647898902,-0.00038867475663560865,0.9532058662168036,-1.0531090287100553,0.09363507275731678,-0.7507492904582979,0.06959863767619531,0.24268428285649318,-0.22651673177801618,0.1062129219985582,-0.2319772862842125,0.1693053921142966,0.2674662703929381,0.03438094942783397,-0.3039610804008749,0.014438557218468345,0.5510647997256818,-1.1062552257802454,0.9049286565498731,-0.2996874869351891,-0.39284272802115144,0.23978915979261564,-0.15429041400632854,0.3443477451321661,0.454535580645279,0.4096609212536681,-0.8639786965953773,0.008507449293858094,-0.6912689303394126,1.135932471788427,-0.40683810079641436,-0.18772914681589967,-0.3981750957336429,0.20475612660439801,-1.2639717588704285,0.14536878238999615,0.044026342004588076,0.4945119107648529,-0.304709093611359,-0.41112224362951566,-0.30197631353954685
78.5864486694336,0.949005126953125,-0.2780555694484908,0.23450370690784433,-0.9664325863477092,-0.24623532253031657,3.6561809030611907,-0.5743399620398837,0.2704461860902846,-0.4114781536592149,0.6174998786392276,-1.0574496408732983,0.6069592781158907,-0.22506034701894065,0.08605788961917436,0.01525413539086045,-0.03852582700959119,0.01448545950957901,-7.163495718155678e-05,-0.04143338160231173,-0.023090743421703856,0.0040669725319813135,-0.03967780396253,-0.06581925598023804,-0.1165944084354464,-0.03373351252071459,-0.01844928909661107,0.0034348350098105107,0.012676900428309698,0.0567306765674104,0.05087856777217758,-0.05254194601447394,0.05780035810899352,0.006951443565284214,0.04482105798276026,0.07530923684485157,0.015726949051909314,0.20479801930368088,-0.029305850865737865,0.01277924017920405,0.21074696116780922,0.006506953883220493,-0.14667825243313026,-0.14992678621195743,-0.017374518618254002,0.10149583193215382,-0.14163139437059782,0.26550939406823537,-0.17005431676255536,-0.09999175918431938,-0.022860831568043714,0.20324735538036084,0.06049587762943796,0.04389742819508236,0.07466458907897151,-0.05101657206173733,-0.04981820060255923,-0.09182059214056099,-0.012612807767521347,-0.0037739272026965807,0.1209984092409413,0.035149443592746576,-0.0966839339888048,0.8358293882877675,-0.5129702965246709,0.46082863088990167,-0.3480028433754874,0.35855586908770803,1.0153677654687512,-0.5228394720573597,0.13978667445349338,0.11898076161154766,-0.8160764048090917,0.4431171299593833,-0.31962198838094413,-0.2445738060238203,0.17803678145519328,0.659309055779272,0.34744137805874575,-1.695105095886016,0.150314580134567,-1.3013403923016273,-0.4951929752094889,0.4800517355299976,-0.3788473716269928,-0.0002443902725032133,-0.0354376397341714,-0.20833841730446284,0.4369066389426163,0.06594305801259391,0.46768854546477867,-0.3619665361726693,1.7907236347189692,-1.2276333269244228,-0.027784777816481178,0.2990599301507974,-0.5780656201616723,1.4055763306312954,0.035528226525643636,-1.1828892909027875,0.6602407501478675,0.11513908072497403
79.53545379638672,0.9886932373046875,0.07389494354025898,-0.03548694971237237,-0.7757152835266596,-0.46819086341594784,0.7604805985954801,0.8974483550809587,-0.4429624177281746,-0.22853326365032986,-0.6487535687431667,-0.47165978822150545,0.03260743611170766,0.018360200655765144,-0.11709856927950255,0.0901554798315765,-0.04747600811582781,-0.013667732385671885,-0.01697361855375682,-0.14480416886083433,-0.04167425120362875,-0.08915297072853307,-0.0025448205183441963,0.0035590927740931696,0.03153621460440132,0.039988586727351734,-0.10463319934159716,-0.06428097910543298,0.04869126747053096,0.14374159497182087,-0.010764832203757317,0.0038732398065999167,0.000877881943734797,-0.00968287669951435,-0.009987796776769713,-0.002430963601587003,0.0206165258955808,0.13858046664663726,0.26377849186153673,-0.15326972749862147,-0.2782220645515819,0.07865934389559572,0.2488658099146986,-0.11979494469693014,0.13292596931029194,-0.20880577635705408,-0.20521447083301442,0.2157927843019611,-0.04065923177347458,-0.10502754914644544,-0.030888623188900483,-0.12606974628962847,-0.039409121798578924,-0.0579372655822475,-0.058184840981746394,0.014288466186540066,0.0003782405547149252,0.0036976763068583694,-0.008408986031020452,-0.002397744650287581,-0.012332463813617332,0.11130726250274807,-0.29751208241659705,0.7704364902426314,-1.2921741572538792,1.0386476784433565,0.002624236905577838,0.06085204884977016,-0.33746197447372184,0.3603751378749192,-0.3310461087434345,-0.16662946575150087,-0.4993620885115342,-0.058972708918659494,-0.20520339382948366,0.0074804073291855015,0.466419877196415,-0.5474656832087039,-0.09361457513606763,2.237141635837679e-05,0.18896979837200656,0.9762951622680909,-0.5987409442042625,-0.2994409307871718,-0.2270834952241307,0.384641547475604,-0.11999176441461887,0.008697354702596482,0.224017184534219,-0.17517819212490346,0.6604474010954607,-0.30010360206922787,-0.7355190011602171,0.47111664770048745,0.18399171851508916,-0.6224104703926531,-0.38022131212163024,0.39479235723028566,-0.056324714548252566,-0.6791333911604238,0.6253493663957621,0.34494634258276535
80.5241470336914,1.0389022827148438,0.48599543297214753,0.42073780946089245,-0.806808041080673,-0.3765396588519563,-0.18341501250467868,-0.7219623838803106,0.10222735090001528,0.6382426642516479,0.2692759792039068,0.6926922512514216,-0.6941387978298014,0.5105933162655174,-0.16059366731465116,-0.28701300323814666,-0.014927802246032684,-0.027206348606375837,0.015853376942681928,0.07248654010701885,-0.08501972372116846,-0.2416856383677369,0.03938034784879468,-0.11502263579615771,0.12527944852831058,0.08992229763567831,-0.07141965286660615,-0.10366917312673846,0.19338323667317572,0.057418424879254935,0.0135384454404889,0.058201344849140475,-0.011365607402893687,-0.03882656539666092,-0.021037604942372008,-0.11912518150144397,0.04225480852972003,-0.1535903322188754,-0.09949671204646092,-0.04614566479461366,-0.02996785204572544,-0.156699571486005,-0.13961332333044507,0.11217888821879404,0.16977398173947655,0.21376407288958474,-0.07879405375884121,-0.0016095983364177724,-0.15068581839403108,0.030444475517932966,-0.13859645708907012,-0.023895458041312472,-0.15540682361212083,-0.04894486817453368,0.06904251116463511,0.041845391213916776,-0.04783138102359,-0.13631954062170312,-0.08339068681047274,-0.02440510435817351,-0.04637740493386641,-0.03180484781193321,0.4853116925785475,-0.2371001358100728,-0.9669197925842876,0.4700173499717508,-0.1421201706572929,0.10583043443736102,-0.4958108940410806,0.7075610030588788,0.01185454922864429,0.2719566293572955,0.19802884756886646,-0.5415568034352135,0.3256918324112468,0.2202463666242033,-0.14917575430547447,0.2377868081218965,-0.34732984876826056,-0.1675131970815711,-0.132734141066066,-0.40746492265248735,-0.09547225413475019,0.04178818499271816,0.00010278752203807338,0.024405037963184575,-0.02677947816548325,0.15517871657111829,-0.1076412297432627,0.01119872487832755,0.047240425025398824,0.10408443162763485,0.21681423232837807,0.6750552675524129,-0.029755393636940797,-0.30297021112377365,0.2279036770345828,-0.002119739711543625,0.11843054521875794,-0.04669377211710539,-0.10233314173166005,-0.23371288492251846
81.56304931640625,0.9989013671875,-0.37798485823310807,-0.17570780939569566,0.31313650926449815,-0.04573621962052961,-0.013788966689285576,0.015084953118012237,-0.007878139340961918,0.1450150024454082,-0.04239287990693932,-0.1278972726124323,-0.09909844540318398,0.21699266498241102,-0.0039281176953906895,-0.18552231999361773,0.15461850927413243,-0.06219266751696669,0.07170523934496399,-0.0032332084695867297,0.03942188208164622,-0.0008310693317955331,-0.058071316685473225,0.027717170784874356,-0.16500881901813183,-0.12432996714840545,-0.00826694384595346,0.04637773804863902,-0.038492638058138594,-0.16339127198483072,0.21369449375410288,0.09863166901485199,-0.24144807013088473,0.00549147642332256,-0.052848323236431655,-0.003636061289509815,0.11641584107640919,0.17152976245996998,0.10242081650960506,0.07748540124965742,-0.20090326619134502,-0.4102397861913121,-0.10151741593507445,-0.04228158296282336,0.06321840587825231,0.14028444232215392,0.04430818637051567,0.05546726614848574,0.15354857075738687,0.02118921815405903,0.24709941112096448,0.28586668125185244,-0.005246228540970978,0.4361552273284175,-0.2236867012310226,1.2864793884477241,0.7385861050626281,-2.096414267817363,-0.005515847872227406,0.2722531499840706,-0.7194373152097262,-0.355419420716274,0.06923218895039267,0.0022572643972402513,-0.14261013360830205,-0.010758601379569908,-0.050248520235125486,0.0571168438517837,0.05642978556813032,0.3602786170476971,-0.06977205622745067,-1.024510947781656,0.07247479809298538,0.11994842903210937,-0.5373602438513451,-0.43379705827925075,-0.3526801588881506,-0.46006715436753376,0.3698035545899232,-0.6695807646486711,0.11487444889776184,0.04458507102409878,-0.32766892390596186,0.030605626734517114,-0.2013305716679897,-0.32176618195417095,-0.7613856010238415,0.42763875699751747,0.7237857966691276,0.17197272754101306,0.34928298217740933,0.9521299187963147,-0.4175117878323915,-0.15457041481846573,-0.3337263826781809,0.2612328434782978,-0.23960900815634012,0.36749745479068596,0.018904075872000322,0.033484319911013485,-0.34521917190686324,-0.6865355912942493
82.56195068359375,0.9286956787109375,-0.5568710364552221,-0.07145221185503534,-0.07637182689958151,0.4211820045198029,0.3024331409018839,-0.5896611606272371,-0.45273069598272053,-0.17574945763169492,0.4324888388482073,0.03972717789851171,0.16224334915575128,-2.051287817585257,0.26951891015520446,-0.015514502815974926,0.18670869805446036,-0.029113063789623243,0.028225906625127667,0.08215773202708126,0.44338480292622495,0.19203646843528638,0.3765473001299631,-0.3074483641922959,-0.2773979110658782,-0.3345421189648801,-0.20843371789485676,-0.0742073400182291,-0.7941714304323857,1.7257099813976606,-0.6548364876639938,0.34926706197075325,1.291873052366586,1.3023843041253285,0.20396081851172732,-0.1060522791843512,-0.06626446927318073,-0.323035879861209,0.08574649436909078,-0.05366907588603738,-0.054364760893947775,0.022866008316041173,0.012966141841427857,-0.0581509101121981,-0.18911830441704186,0.004973199455794011,0.014294110999282579,-0.023166943288568165,-0.10795214612351137,0.03127637464728254,0.5972881376982024,-0.3541154531371651,0.3168403218446818,0.028668018913085846,0.019799227672148728,0.08728095726229237,6.858441812501205e-05,0.006048810301598543,0.029082703388127004,0.025454190224757808,0.003398827358713191,0.11564981163009481,0.08185493778666497,-0.05037449979188424,0.2534523785367801,-0.12944523076389397,1.0232403516125113,0.3578913803803214,-0.12466856560839872,-0.06877155133833773,0.787003932760909,0.6939457896647866,-0.09618200657224388,0.0007593276686920954,-0.15273469709505344,0.32592126406022215,-0.5751852503503908,-0.6266519113335262,1.1295823790578157,1.8359931476040656,-1.1757170828445194,0.2398508902102597,0.10197377427077768,-0.6697278384896578,-0.3972298019317615,0.07027955640549684,-0.21827848406355715,0.25409581505774537,0.45210063118231025,-0.744953316427274,-0.27729322468092565,-0.2891960058888773,-0.10980953180479036,0.5179817855614551,-0.10125006700177348,-0.07210124232838741,-0.18049571779558715,-0.0721319916135517,-0.11907192372571118,-0.4273798802227964,-0.4396307891940501,-0.5077516924116873
83.49064636230469,0.939300537109375,-0.8308793832692264,-0.3864913496124762,-0.9271016497029194,0.7852387614159411,0.3811945097718125,0.21792346706173388,-0.27107250995959903,-0.07510936701897636,1.2983740572844082,-1.6950835020892596,-0.8606884599254214,0.6215083638182953,-0.39009070980967714,-0.29440854725923754,-0.22938090536854114,0.7724277093635089,-0.02387882031490228,-0.740669105401657,-0.2774445726046385,-0.10364187664832347,-0.0940586259135642,-0.29824032299754205,-0.2567860328320951,-0.36380690214506917,0.43694428326526685,0.311738538419756,-0.38455469030135436,0.18870534577368336,-0.4098315367505703,-0.02729463364294819,0.5349646061373108,-0.24884489462719378,0.04796982539275636,-0.10651764861823305,0.1270721169021136,-0.12699940913931074,-0.14917975261195732,0.23206414720530374,0.10408272227418704,0.05005885471370665,0.2992984957010443,-0.13110792118483955,0.09087438242447009,0.03479183290599519,-0.24645199948244265,0.07942247588870703,0.25451356484397547,0.004182644149085781,-0.06675594426991685,0.07867649554839991,-0.15775840668306254,-0.009260229145525992,-0.07166035996477402,0.009120675021754948,0.04542779387123899,0.0374283731364682,-0.06870846013841278,0.011326222623588678,-0.027174672233502617,0.05490218189509898,-0.0943349764682272,0.5284448005981989,-0.10945530644119202,-0.7046591306637005,0.5901350975977256,-0.09955789665022675,-1.1613328886223129,1.143884818366019,0.04687292345900004,0.147876362365583,-0.32959741464626513,0.7896352513296809,0.6127553809690689,0.08131088860482918,-0.2306183278985382,-0.8382159801102903,0.2938091021726678,-0.2413632899726441,0.419575337662484,-0.36407196051978985,-0.04864728893827753,-0.25835163937910566,0.06693169391623563,-0.05412843659442021,-0.08150266455551097,-0.06235932919676349,0.45424556463239957,0.23885329347460668,-0.06599715900939503,-0.33712953818912855,0.3979703660032723,0.5979053222763795,0.05131436829074473,0.4478222286520425,0.8854106065289553,0.1611302245231992,0.34304597287013583,-0.14089514793748747,0.32966406264871023,1.1910268015325878
84.42994689941406,0.9485015869140625,1.0165821198201144,0.28762849085813846,-0.0498893095677342,0.6059831675878269,0.5678224962672367,-1.0121775195978908,0.7335088118033526,-0.38186643737788134,0.7720331979501985,0.47970788049047364,0.6667776486427985,1.3302615717809567,-1.0279509964687323,0.04513779868595513,0.5967122766233511,-0.01630145242125146,0.12865486303908624,-0.029571466029942484,-0.0040349614254441704,-0.006166198345659309,0.13344611038421933,0.03200349956791788,0.005712355178634597,0.11523932850587734,-0.08670806869018367,-0.04451080335283789,0.04497343847619165,0.010632622849148355,0.12037179757829694,0.15004733544270044,0.010078418101266508,-0.0914028940240036,0.01587222214912814,0.007522627595996114,0.03128992343656278,0.12088491486172333,0.0725676292969607,0.06157624174380766,0.4391518477163829,0.07958675890744142,0.19703639924012584,-0.28942647505440633,-0.0971071851749486,-0.3459003785687958,0.2490713381661713,0.17367312358337045,0.0069064701059142475,0.13447945263687994,-0.05094063259380872,-0.008047726134239727,0.11725966483740158,0.20671063275683912,0.01963025670053024,-0.06554858446855148,-0.017022011522190798,-0.0628260488757262,-0.04343397233625515,-0.01885458904714198,-0.05325913686531267,0.13066562847944105,0.0943355463193389,-0.07943904556518129,-0.02415720193946186,1.4627012880571666,-0.8875282496794675,-0.6783871885913701,1.8127650154280457,-1.023115002661444,0.8277297535130109,-0.323847822624549,0.8258973173729853,-0.8087987113817565,0.3197952591271903,-0.5386856749270006,0.746349208985396,0.19178410207235594,0.3716958733172683,-1.239667091210756,0.34573223540163056,0.7234762284637128,-0.8321206986633535,-0.1802272134028733,0.6715877048804398,-0.06991898700291597,0.20725694274418993,0.19325183348013092,-0.47480385205944303,-0.6632833223790234,-0.20721307817372117,-0.2769724862136777,-1.0637643766789957,-0.37970297660802643,-0.45766722182346886,-0.023147696501499476,0.39527547388314344,-0.2918390358382616,0.6311470106785482,0.41063159032208857,-0.37217214583545044,0.10978822714443105
85.37844848632812,0.9692001342773438,0.3989088394288638,-0.37143608936565436,0.19790193294833705,-0.5709776882869817,-0.15384473706162471,0.75526631121182,0.15619460305515556,-0.03464882854275145,-0.29815108321589917,0.9184486671272234,0.1185544945676898,-0.8809566419240646,-0.14869621873279049,0.07467051821552603,-0.25069816305643783,0.05093430038883189,0.08751509747222944,0.08067272237620246,0.0006740050184530742,-0.08333397816158072,0.12099107583803473,-0.02250000208009003,0.2162480372459176,-0.06737725397745928,0.08922161946813308,0.0036887702632394026,0.05522478658667767,-0.15859937550655437,0.04020407564003643,0.03836515501673842,0.07272689215138296,0.048845147040699026,-0.08587478585891811,0.09652731303969617,0.021287096445979536,0.08504893460167076,-0.345290208475684,0.16822278005408992,0.03374069189675824,0.3004720441293086,0.004188378712776934,-0.07411520179887789,-0.23291885757756364,0.14763122948237367,0.029941364869904646,0.10181336004857054,-0.1453718221496478,0.09675001328551747,-0.07466705903721148,0.11848326347173277,-0.1350960144735352,-0.024973820643280867,0.020526824786664524,-0.08834112902523668,0.10655070741996304,0.025262579904385525,0.017573488664314484,0.01701838863246271,-0.0014508439031943176,-0.09896958606160125,0.06607872057724046,-0.25194619847350835,0.5385272417247693,-1.2442892461765702,-0.10840078473194864,-0.1252548575153015,-0.25606294182707634,0.6662915014823914,-0.5930313568549844,0.3418216251284284,-0.4242206782153017,0.5705034161055049,0.1513000088798334,-0.06242111736549946,-0.4609611024864262,-0.623654378241607,0.8221771713502743,0.1625595403729384,0.17515957478248895,-0.583182031253642,-0.4333900232051593,-0.3763893724328033,-0.014498258544372734,-0.15785680770693,-0.09731334887231974,0.6943889425047314,-0.42292371254201183,0.05516388442518172,-0.08966875031649585,-0.5544886184867049,0.01244920487446128,0.5733218936579264,0.015071853299146057,-0.08068907126008033,0.44939795050950887,0.2826806392559176,-0.037664720861127814,0.0723091485293695,-0.0010230462409182572,-0.11201386770824218
86.34764862060547,0.9688034057617188,-0.19919254998383618,0.3593438941924764,1.215487360293395,-0.35668942791955227,-0.26448108120283403,0.11146305367417995,0.8009571682126042,-0.8154384493507482,-0.6506043065542096,0.631381338953531,-0.3325213624039251,1.3228338908966384,-0.23765410516911334,-0.36956182900913553,0.10717964901765761,-0.0007985255516323869,0.015646530552401238,-0.022200370873629117,4.098701445557829e-05,0.12388886515829375,-0.01741892666713287,-0.01929012612910188,-0.053632089934164004,0.01807731257710314,-0.050576782253709526,-0.07549875174703236,-0.0037441849079279214,-0.05798938466380995,0.07569892521469868,-0.012503526966421208,0.007554277489321151,0.018929244358112794,0.0037491770394418628,0.03151362217555256,0.06496337927691373,0.03175621187436149,0.07818294742310183,0.09742152311075195,0.20170425165318162,-0.12044013365638054,0.008147705038134556,0.13922073061462148,-0.13465440354038746,0.09110717410834487,-0.33104066726480874,0.4208525753595927,-0.00279628523375658,0.061722953366835705,-0.138815942006368,-0.18726126141199892,-0.2180245081096984,0.03254006802359074,0.009045103598626227,-0.07368988868388054,-0.06905924001010695,0.06541762785745951,0.07268100474347348,0.042744949948783056,-0.024114343549759814,-0.037775265663245135,0.08814321107006476,-0.11033778621519247,0.2715561324199886,-0.6978587085366791,-0.8223015789551145,0.26375328710195584,0.3342656919923403,0.1725097254069044,0.017636677608888315,0.34500945151009765,-0.31873131602485666,0.2249229439424884,-0.9183838360265926,0.4425286317159969,0.11138182474111871,0.5063194638472702,-0.2108939987041059,-0.2732668406086578,-0.7560700732048528,-0.4834994890798252,0.9287312197199041,-0.31495615094335594,-0.7176333847288184,0.2323966732750268,0.019185843122800583,-0.10724069247750893,-0.5129846744897113,0.33096532022585723,0.39600856207504886,0.2268777645797547,-0.054277536256431586,-0.1255288313983992,0.8488493807499745,0.23304854749245232,-0.036496382919551,0.2497773354264143,0.01135685308714333,0.3293318537523516,-0.13988030476127014,1.3786003589184088
87.31645202636719,0.9590988159179688,0.9713091723466224,0.3722583562054614,0.7822243715539617,0.424071447687268,1.045917820958335,-0.5929799058033349,-0.454070830119229,0.808077271257804,0.6726049517226222,-0.0551895071083917,0.993011975038471,-0.32649028203268127,0.17033208174591657,-0.031140974035241742,0.0010671021411450233,-0.029511707515149373,-0.054125680084264896,0.05517961746401716,0.016629399137030574,0.010341249053357498,0.05034767284315554,0.09738757217674135,-0.1738263470199627,0.44260625701042944,-0.27869243678846717,-0.010005126663025249,-0.011062823470460663,0.045674966508482254,0.1496859552191856,-0.13733559330840212,0.20690207817723455,0.1905294146490104,-0.27296395245870825,0.008919762522642538,-0.026616802170197462,-0.260610008471277,-0.3552746676806513,0.1351800284984598,0.021868802197282017,0.029704467759514377,0.09431746498016205,-0.14026099057643157,0.1598708788666308,-0.002958482078171412,-0.19972541024000467,-0.4195097611216733,-0.08265134797446748,0.08345807223131167,0.0411078259749845,-0.03273759812709938,-0.20485793241351866,0.085715983172238,0.09693737058289922,-0.10983030905601206,0.04633362979348857,-0.002565635939856953,0.015507951078101337,-0.0011859007530775126,-0.011579416639323586,0.002483744719348899,-0.04392070167347621,0.12348513891585042,-0.5541260298927396,0.21958372313684146,1.2411572583293395,0.04252784900883186,-0.31463183956015106,0.7326772737624571,-0.26743183249081903,0.532379375086498,-0.2684945831644145,-0.17905563056544838,0.23995849253671667,-0.24158823948447572,0.22723941853829535,0.1283983163758628,0.6419602159669011,-0.7088402157946572,0.5733610003264888,-0.15941305831107816,-0.050788258214659224,-0.35835701219997484,-0.4212455809272307,0.5182161950270445,-0.17570870352299067,-0.47680601727828975,-1.0893529820578158,-0.10778916469145994,-0.09857577730931773,-0.4000651475676119,-0.10522110153335992,0.23446034087432066,0.11442057981681494,0.5797250844463049,-0.4685029371240902,0.2380265369941047,0.15460879183072368,0.2488515714785091,0.25977301248427803,-1.0005427967302296
