start,duration,0,1,2,3,4,5,6,7,8,9,10,11,12,13,14,15,16,17,18,19,20,21,22,23,24,25,26,27,28,29,30,31,32,33,34,35,36,37,38,39,40,41,42,43,44,45,46,47,48,49,50,51,52,53,54,55,56,57,58,59,60,61,62,63,64,65,66,67,68,69,70,71,72,73,74,75,76,77,78,79,80,81,82,83,84,85,86,87,88,89,90,91,92,93,94,95,96,97,98,99
8.168200492858887,1.0889997482299805,0.042545984014745075,-0.06851299935465464,0.03711455173059099,-0.042079954747417256,0.06227638299722379,0.04034448639301057,0.03228505919549681,-0.1135520906231456,0.06348707651563151,0.27225314104099096,0.08069809983888596,0.17429799359067913,-0.03156320832644317,0.7417116962085892,-0.4077639069722766,-0.8978831840168433,-0.05792573507212434,-1.0424322125426704,0.0022146614187767977,-0.20652813941553144,0.038104238487928974,-0.027219322622548867,0.06420701897755782,0.14086747968290136,-0.03931661912803472,0.08394136441770461,-0.027834777537755415,0.02495802666724045,0.02284173729317112,0.12454803699886434,0.13179866810962332,0.1485485179780579,-0.36399939403225223,-0.16079633616112293,0.029874844317647406,0.21739688250147365,-0.12019918453929657,0.2277802221391049,0.16415738557382958,0.03045330578192942,0.39429642171007395,0.2678276174822899,-0.2563002459239735,-0.30737479039756527,0.03802546717432023,-0.19714975942243565,-0.3184352842507361,-0.0877817611095703,0.07312734080225056,-0.182618754648134,0.34970408744193227,-0.0712403233660962,-0.18646954563614498,-0.05863099127738555,0.02042583982380035,-0.03073382399361338,-0.059547276898997296,0.02610838759414876,-0.010193947189034124,0.0016442815070188826,-0.05227586947713345,-0.029180457414278622,0.08083464207267635,0.14469236347697384,0.06020969636552546,0.01686395657447589,0.013095955052785798,0.12475017376919084,-0.015515496976720805,0.025388782221338294,0.09785283622929289,-0.02231509419688075,-0.07059993317529567,0.03782682653236212,-0.06322020314571622,-0.08123999977413389,0.005993102573042375,0.05100265688687298,-0.015327502254011343,-0.10668816711023377,0.0014067800254899587,0.13533509390201326,-0.023036971961383438,-0.11683979129621742,-0.04049197659829484,-0.09659505170386307,-0.04259072225323891,-0.03841268207385957,0.012631395341947266,-0.02875970880482956,-0.045999214925416,-0.033835459698853626,-0.03628123785727922,0.038337731970853925,0.1473131049301285,-0.08046231675871082,-0.11629143826190613,0.007378096464197874,-0.06813853808266068,0.19986523899974468
9.257200241088867,1.0888996124267578,0.21049022174755389,0.13207066862281885,0.33078572906117576,0.24083942724895968,-0.006144697820028509,0.16384137645932817,0.10907424414873285,-0.06615105637554188,-0.03013723374857741,0.07543788443242123,0.10685466095194081,-0.02029654464354346,0.0071229536000935465,0.3911940979799769,0.8009601984627113,-0.8413348082272537,-0.32500143819366634,0.12987715605384015,0.18825098415444508,0.632591203054925,0.11609703856545732,0.4976514508487573,0.47829795336462017,-0.04301139442859368,0.27533268912562886,-0.08406362516289713,0.05305600585471479,-0.009160606825097839,-0.0819629841296346,-0.18356460669841257,-0.06857340493903798,-0.09280105934274456,-0.5476787409277247,0.18745771714998996,-0.9527897957767213,0.2212849684128777,0.13007708074973742,0.6815996864328825,0.4062015828898805,0.5289030511317907,0.20919903982106577,-0.06978641551108683,0.12897011769038508,0.2156071359114893,0.10595219091670913,-0.12466743653828165,0.051621125384348904,-0.1431536101324965,-0.21592139399965987,-0.11917564034073845,0.23756262676137663,0.036751217477142786,0.026379924582320056,0.0302152314330077,-0.02211628887979702,0.01927645130740559,0.05139286502575799,0.02764756952890139,0.03871401693593062,0.037451365528703644,0.04758248969506552,0.06714604546628826,0.07417395867422329,0.07359738486225428,-0.0770486986236334,-0.02488078800368504,-0.01775668379761995,0.0029026634634488693,-0.01935525386923067,-0.07822675257341741,0.00683025402796287,-0.04732886727605754,-0.01604426476453209,-0.03536168082423118,-0.1394799627183424,-0.027920536664381726,0.06245685345838215,0.0005177657587843998,-0.021933579631617604,-0.012426375567375358,-0.0043630402986916325,0.021497778572746398,-0.004479035010074815,0.04764402794340943,0.08999577283412356,0.1038685763125402,0.019022862485201592,0.07135593518675543,0.03342116090517386,-0.042936165592145886,-0.04472236806350636,0.00021131041110142778,0.013074051942503523,-0.09863067246338775,-0.09855187838876245,-0.10976925100057995,-0.0713254660714891,-0.020989374316165713,0.09284411154742316,0.013587864754029271
10.346099853515625,1.078200340270996,-0.12467877673518704,-0.09371163617478935,-0.1565620076420612,-0.16856593337360656,0.0867724074201236,0.08494141340680315,-0.033694438779455146,0.04268651699923032,-0.015060798065210275,-0.0279468971363237,0.018406492975892256,-0.17818251055701997,-0.06432018932231404,0.5611002581857818,0.3143269705556295,0.011161475349101333,-0.06872832931865927,-0.09940258319738896,-1.0624456511518623,-0.5081156449387625,-0.27729846666498514,0.6083790358013382,0.1465154214739781,-0.3982757926229885,-0.00038764764978672635,-0.1365270671421157,-0.11731418104408527,-0.03444450435082121,0.06550841409204065,0.06410315488913787,-0.03819386684024086,0.057977278026783007,0.33415916887462976,0.18494057686478196,-0.13813297329833146,-0.0623343547973363,0.49966336012771956,0.33551151128799045,0.1740500264518439,0.10721212832363458,0.731373236535244,-0.3163602879667534,-0.35116302169384306,0.23436053880882451,0.001458726049083564,0.12124601971417862,0.21606692204444747,0.01898758441025506,-0.011144889178849347,0.7795519684697213,0.03715362264287536,0.041991558240176155,-0.08655678847758524,-0.0470435012562331,-0.12385525153810686,0.018486435562347872,-0.08460927786179429,0.0038639481122308764,0.02360726650307176,-0.0060545466976640525,0.02990612447703179,-0.0320578141903478,-0.09057216033033193,-0.06327247076365242,-0.047806816113314,0.09933184536905107,0.006872332945834971,0.036924530247337196,0.006537207483069979,-0.00352873548103483,0.03164655474389745,0.06716559458740218,0.01605442957972244,-0.013953162716396912,-0.06537363659083166,-0.036498254060131824,-0.1506774064350521,-0.07291081057476334,0.042121989961705616,0.032466273725621074,0.04970991977975092,0.09582193428620918,-0.007925273421718587,0.10418736552530349,-0.041598111953483514,-0.018871820339822435,0.06223658509435778,0.07382975684418178,-0.040733289803806874,0.09270696979226244,-0.026826785520815254,-0.05093206334810521,0.06093337534746841,0.0395413929171156,-0.0843935213811811,-0.0061851756782797815,-0.1425596894816606,0.01499881111783681,0.06786620511709576,-0.05787457537424569
11.424300193786621,1.1387996673583984,-0.055125627100508764,-0.1529326542821489,0.07490566770096635,0.023276821013639468,-0.025614033042947116,0.0602495743036434,0.059354529382598324,0.22255503053567682,-0.06992883395649263,-0.02282357883807377,-0.16240284966347024,0.16844950595879138,0.31315438897315684,-0.31927080004917696,-0.24875014253482883,0.09219146169445777,0.03447781230211382,0.5069852715875697,0.2518432032396112,0.267059463636024,0.2110584406975919,-0.3648769229282295,-0.06848787846859529,-0.0816725248272719,0.09033704104385451,-0.05164341695607787,-0.029422346341279295,0.050806837858098884,0.0027060271974090047,0.05055150441448165,-0.12859333211950993,0.4703050999063172,-0.0119919870460564,-0.49255622553934103,-0.007910877129166449,-0.062382882863782164,-0.23740710318520208,-0.2466086829378941,0.3258584336317474,0.16148873955943077,0.02890903780291254,-0.3985957771906663,0.6246700125788911,0.374530180121613,-0.02129808575295273,0.5717111232301317,0.209879778682252,0.2539839777859575,0.45413109032286025,0.1578827833791435,0.06665507098032059,-0.2187575479484143,-0.16631592799633407,0.06815862701301113,0.04286243976781206,0.06646269604144199,0.024447468271870856,-0.00409362246303359,-0.048315668713087075,0.0017866305781842479,0.022535313967530026,0.04350396441163624,-0.04580070103926135,-0.010507849182615266,-0.004812115184456845,-0.014023898595062687,-0.025284435363098767,0.06001076762444408,0.0366501083008378,-0.06340498800656176,-0.09217501234076302,0.009258779086760817,0.020693775674008593,-0.07575857665832823,-0.00715750011155504,0.03221763493596147,-0.1445930252039022,-0.09844666004561141,0.0010744111768547606,-0.01893995915483389,-0.02555827181504321,0.006852502960559559,-0.02306645929698803,0.0004521648491524286,0.05067846989260766,-0.025284276497342592,0.010307593298574176,0.02432623702318886,0.026153426135656136,-0.002116273605403643,-0.003167909789035986,-0.09841715300838616,-0.01254781330228237,0.056386496556815754,-0.02111494729393773,-0.003823805985810902,-0.009404147197848217,0.05127226661634206,0.004279032706528692,0.06274448188092485
17.058399200439453,1.0488014221191406,0.30592857335919776,-0.12509422434177647,-0.02566929093063414,-0.007755210510758522,-0.26595267855934207,-0.018908114793790252,0.012600614644517701,-0.09706870549060549,-0.08204799090453611,0.1412881239536609,0.12584708515122278,0.08651043760548846,0.4040350488585832,-0.3069366583550136,-0.0383253406779736,1.0251657108861807,0.5063077582726966,0.1998036546533733,0.21735574546331293,-0.12435958953451355,-0.40543999828380145,-0.5077527428891168,0.19251267051078785,-0.22932326203370593,-0.05195277472529261,-0.2511887058618725,-0.038615129444011506,0.060317165442662996,-0.004295550670949306,0.12358325778786497,0.041242196294750906,0.02345909954970425,-0.027840023806494897,-0.009332737551723445,-0.2308209528935909,-0.1325495953791343,-1.1114143391908746,-0.3636728686793255,-0.15466266303686213,0.2881544274909612,0.4057139062776753,-1.3551482429779258,0.025742349474128113,0.16208693940966465,0.45398609034599113,0.3903386238613001,0.5487719031216641,0.22104052353019518,0.0535350360363619,-0.3267629510481512,0.13632638356296337,0.04163670026868385,0.007105874529141192,0.027861608068586584,0.04088067556382938,0.09861108882164142,-0.09470379381723361,0.060033809319256934,-0.004551683389609021,0.022503792064394523,0.02986983423040456,-0.0030036845296122364,-0.03369587802661044,-0.04697533952062103,0.017774762619522926,0.06847633446374535,0.030426550648317452,-0.015422360389713289,0.009928664266282885,0.008907086073167286,0.07441655619442356,0.07157429071148512,-0.007679545187981248,0.05384758742040094,-0.027909218395698338,0.037330039337935515,0.02532586632204581,0.005778489647348383,-0.005456643996509575,0.01889903463527723,-0.009367897153093744,0.03267739297635444,0.0548692773297219,0.03016362581232786,-0.0246919550868519,0.011196774086768863,-0.035756155918806654,0.110683585061783,-0.029512622394403956,-0.017669741099354073,-0.03025313285016061,-9.979961491098826e-05,-0.014931778695656461,-0.01610096476686848,0.02182076654479714,0.08466605382464601,-0.09619421122353118,0.10931900494800667,0.09438583869905695,-0.040680387447514926
18.107200622558594,1.0483989715576172,-0.03568126599278449,-0.021304991615187337,-0.073131970446769,0.08034678982504151,0.0361289138646541,-0.02093261430875351,-0.006905371538504042,-0.08900779897268242,0.10292685665735064,0.0524161046448709,-0.10962539616803572,0.10848853769989789,0.6015376462408346,-0.626218926570197,-0.5528118101296977,-0.26027974875776927,-0.055558795431366534,0.36458262890498394,0.28226022260401895,0.10453239920646423,0.20927182944035047,0.08290938890336824,-0.06988882070613849,-0.08766515811209202,-0.07282677522749816,-0.029629567985884116,-0.031701355910011865,-0.007644618338667308,0.0876880850068792,0.008714414679024368,0.10321863968343395,0.16693094539621556,0.007586812153923915,0.09130217391379496,0.0034715359213408487,-0.039224352423283725,0.3817117066818063,-0.821135265241766,-0.1664000262341679,-0.09361428388251308,0.20438916722327893,0.5186769813470429,-0.04889564881748562,0.8579014251875855,0.4510980980152872,-0.12360178485846929,-0.1410532436094647,-0.12291431007174829,0.9487848179230155,0.28973114712835923,0.21542875545543438,0.07366594790514179,0.1413068043984924,-0.002479449276177934,-0.06012888415781017,-0.01773342925247956,-0.01635841922071015,-0.005519327054359498,-0.03421933244965765,0.0077020059455210985,-0.024598076159771033,-0.03386105730482552,-0.029280123391708907,-0.04233564570256553,-0.0425986059005957,0.05332174972600974,-0.08054203656803277,0.031187139753101396,0.03428875639594222,0.001980342893991696,-0.05410886277799734,-0.010963816993353427,0.06189521601359125,0.05597019316573759,-0.05468367484680496,0.08003029026317278,-0.07959888183248362,-0.047738830137677775,0.010378004626874321,0.0008023936289528191,-0.0710919989082667,0.03031887057731742,0.00978008087724794,0.03573847891930381,0.14124056601869675,0.014242989564967045,-0.0418644899361699,-0.09592864489734033,-0.1055670212838791,0.010329044343363765,-0.015899094402269477,0.017221532807848355,0.011568353595373072,0.05530064787334908,0.003952115623270809,0.03483661826464572,0.023637479394016545,-0.17759241615159307,-0.07297286835674699,-0.08911317779639542
19.15559959411621,1.069101333618164,0.059077505600726526,-0.01638864027720275,-0.020048039928808815,-0.058921429227003816,-0.0005482606104404378,-0.04657412554966085,-0.022702655783044867,0.11298027265247362,-0.08307964848920574,-0.04185077589232704,0.08182816012255092,0.5858974693803676,0.18626447121076212,-0.23610035251822958,-0.23819988713951626,-0.014587498071905292,-0.2877336437557018,0.5978410845536934,-0.34097839493447024,-0.9034043224855931,-0.018291841741535263,-0.5860119174163436,0.18844654751529644,-0.06192957712208687,0.11663645937829141,-0.03538072275139435,0.008738090818425186,-0.12424757750246883,-0.02501457308582084,-0.003212957799838101,0.04288203870625901,0.050198177746569275,-0.05878715737711093,0.04022402608428692,0.09961194814953087,0.23154637587171395,-1.080945628329234,-0.061457745367044826,0.6483116730178141,-0.640990126532074,0.0294703793813286,-1.1584560533207038,-0.08286518858630913,1.3356862701325296,0.3784064921841029,-0.15632740551828073,0.034790317262620774,0.3567696448572235,0.02486624040231884,0.24551646286908185,-0.09144704403366971,-0.016497737284605712,-0.059603691977945183,-0.04807590876324347,-0.01854390712287174,0.04806358840092678,0.00924299556358589,-0.0449414312502522,-0.04677904266767431,-0.02487476337698853,-0.021316077652095457,0.0359750934814228,0.023927133950600088,-0.017633199253195973,0.02821466753375512,0.06825087518395857,-0.08623289006797392,-0.04446230811975344,-0.034197366861103584,0.04713555903074084,-0.03072864261453567,0.04873514327121027,-0.0013176785233007526,0.020894725071455594,-0.06847104323571258,-0.028574909275506138,0.049620439697318865,-0.12936857026431056,-0.0014054475617263165,0.0030296029237432825,0.000834305040571747,-0.02518985711857767,-0.05578488551022399,0.05477257389019583,-0.030287230495612313,-0.016391380527718824,-0.0016468601025619312,0.00673581355793208,-0.042320923826084426,-0.04173811277258273,-0.023861237236663287,0.09520121428788968,-0.10392606574849779,-0.01636972745487544,-0.011348472737185367,0.058182864262956324,-0.018158309949991538,0.08085822613471436,-0.044624397114496485,-0.03318409560511652
20.224700927734375,2.367399215698242,-0.031192504271679466,-0.10899220722465741,0.20114939866926979,0.20310075554986032,0.1323427380991095,-0.08678709226148279,0.02536473570601116,0.008348234106501989,0.09088119162334828,0.037090778985914175,-0.7218237702823023,-0.31876624960698263,-0.15487319569839694,0.29301060143712854,-0.10848083411720572,0.6135932130185788,0.18971302835774084,-0.7067357570105831,-0.39510489209733557,-0.36837762849418065,0.3454063554459454,-0.2739249802747593,-0.08440755466874214,-0.1628264514209519,-0.11427645809031334,-0.00934175402870472,0.0032671091493498006,-0.021658278694023606,0.006824974481974853,-0.17826851195520318,-0.00556465650466316,-0.024410660627347022,0.0843514793718857,-0.035125996557555106,0.0815425378976661,0.07009783389571952,0.14175111767823237,-0.11735255850912299,0.17410547499795662,0.2192682803961748,-0.23195284954161383,0.12257406497912986,-0.04864606967419502,0.17363592304764108,0.5242476225649817,0.021977417307523225,0.45934443630964134,0.024802138245213115,0.2306096358895344,0.1451269975103748,-0.008823389420426177,0.13176680994980938,0.15168641085371623,-0.11921469169546153,-0.04346983207756323,0.029057673791321445,-0.001180375695587988,-0.0416795958601469,-0.01199071666807125,-0.013443562382880815,0.028817151981683498,0.003869259060005046,-0.09193851622197327,0.08182971287042166,0.03451722314825945,-0.00584468995544012,0.0773822186986697,0.05067616268990245,-0.00044910770476776565,-0.013780560596152989,-0.011959666513213387,-0.02812363875211289,-0.020906651497202874,0.10814749788851201,0.12153909665246865,0.021399302604368918,0.025060448705382994,0.014894421984282272,0.0532288105245794,-0.028138081069276896,-0.00665553530941642,-0.05241811415500475,-0.10453746755658383,0.08742335049676032,-0.08570237120074076,0.022464681048572497,0.012000341823835435,-0.0051014249274671025,0.00880894075393685,-0.09776521163886286,0.03714287444206496,-0.0798840880734908,-0.04336400613056348,0.10328520363440657,-0.020784557796162673,0.020275318350241402,-0.050751181912455735,-0.08716286463945361,0.01663381462676173,0.025788239697575974
24.659700393676758,1.0387992858886719,-0.0865958358995309,0.014213253795462667,0.1713401121997615,0.18755137414491208,0.22503543509537505,-0.12225328476297317,-0.06681779114911501,0.15136139886880184,0.012633836213764028,-0.046251887494292945,0.08716357588654577,0.11745937707118376,-0.12853889925862158,0.4568141745225119,0.7965459713718965,0.2726909833847876,0.10679288545002155,-0.1410234461009769,-0.11971296463919813,-0.11471510221585862,0.4011480898923789,-0.8808123635291261,-0.05936323558388103,-0.38153537878422444,-0.10339224563670243,0.09067822099241067,0.075263022102727,-0.07019219916755343,0.09621660793479965,-0.039647675434592,0.01094355835419628,-0.0985454692951656,-0.06718554463445628,0.1452492578766809,0.19861314454939671,-0.044228122841832467,-0.23097953920460582,0.611118522806075,-0.7412037539176874,-0.6024474780137623,0.855497428947794,1.3428109595563689,-1.0563651437496273,0.9526207305764853,-0.2772463268775392,0.08031829545978636,-0.019764727908394286,0.524862334794514,0.2767853408729294,-0.11598881816630002,0.10826340912495329,0.0056765979262420815,-0.03739741372811017,-0.12361206819476317,0.0044376360633486215,-0.004818133244688813,0.007689273627790697,0.06252490785428635,-0.05377138933364753,0.01630086630320078,0.011162259571865937,0.0005780245014916623,-0.04113010851787035,-0.0020129997096789767,0.04539294993506807,0.03623735966657884,0.11163772444126109,0.06381419672185927,0.02030476130186954,-0.0024314576115666425,-0.01981968767241847,0.07340215504566215,0.02263571856052301,-0.07691769653567815,0.01465763293637542,0.018654652402411803,-0.04572567676169856,0.14219259502702752,-0.0003376381181230603,0.0034860996419606386,0.027993631361599054,0.05134314564887487,-0.03520853438007284,0.13863198597712278,-0.013516381696263792,-0.04933433118537456,0.026887459659805966,0.07637299301138319,0.15659667097447172,-0.001151555642527306,0.05719216902774428,-0.08819166816742909,-0.038741677293298575,0.032936992794971906,0.020783439408799696,-0.046181402970016404,0.027383445795605987,0.20666395864313022,0.16020845307176376,0.1262208047631155
25.69849967956543,1.0384998321533203,0.1343973627226061,-0.0394317028209621,0.172855979720697,0.19707170089654527,0.11794179036588451,-0.04235080373050469,-0.17798993665019527,-0.07185883416195155,0.06617543615852614,-0.19638909264826215,-0.06863483706456788,0.29474992839872494,0.27288952499385843,0.32484415280812,0.017890256628610157,0.26216018683702014,-0.23082503527751164,-0.24603284807181763,0.007503600170744161,0.08885039674786671,0.20092642348657275,-0.07752512360770696,-0.12755506722738896,0.02740782333079178,-0.008432241307508043,0.022117264849065094,0.0007733592214345386,-0.008981125143756869,-0.010956089345863737,-0.02872615859729393,-0.02976781435827314,-0.025141964165773967,0.01638203667623572,-0.036718517153830954,0.052680021427677165,-0.0089707019626382,0.14422853854238135,0.019045523205628245,-0.5371613819337812,-0.45597049670044093,-0.01437268751054678,0.8472685691166619,-0.38367994795786814,-0.6292924093767834,0.5333665805559623,0.8255952864536977,-0.5080748201818123,-0.1612246765413432,0.04211791173828003,0.16025966261915464,0.008876508930228615,0.2774735448706352,0.05325936964604306,-0.0473560272625975,-0.033175983201271686,-0.05021024170975653,-0.023021396347719224,-0.015975633830868127,-0.009472033670360161,0.07720491853924782,-0.01286842837238735,0.00475489724457355,0.026778301435930785,-0.05639546059426845,-0.05551589208084244,0.016919633400698637,-0.04057204188690354,-0.002302413115593316,0.07173208522023086,0.011188549517272701,0.020999654604901396,-0.012081923928823422,-0.057279868577253555,-0.02388064792176149,0.10097579230907622,0.015881890270057826,0.04540322315720475,-0.019758406048638086,-0.03798127269036172,0.038231930714533395,0.017702068903592365,-0.008359226906381247,0.03015198777249654,-0.010206597583117294,-0.015884824482880523,0.04839242341104691,-0.001108342002112429,0.07847331908380015,0.19376389675312908,0.009278699964234732,-0.04332393954790291,0.08718845410115278,-0.038028610866456654,0.015608192825413154,-0.0627411140289761,0.08912343115083703,0.0074786897801629865,0.11911975797408815,-0.08562463945407599,0.04019033345485458
26.73699951171875,1.0692996978759766,0.03758799462551713,-0.14891337965342027,-0.011689302930631498,-0.021113321916801892,0.02717379132605599,-0.004169945376035059,-0.09705266570333346,-0.1023311417855573,-0.022997646669240448,0.07907147033352065,-0.04317488180362399,0.01970153304473799,-0.2850510325685607,0.1612795820038728,-0.34908749467189726,-0.6377347553987819,-0.49770932129229173,-0.09642276185611151,0.5344352810284807,0.5417979997486095,0.4870007733945766,-0.2759803009316984,-0.07036671807592437,-0.2829427160415224,0.3044617915673254,0.047842881838545945,0.11762282555096035,-0.008695231721683868,0.03202984365469949,-0.004776261450951327,0.038178532553297576,0.11587526677078025,0.18441230470452682,0.0539303693723477,-0.03996319400545556,0.016270328143764202,0.02186038263439402,0.5281962193240106,0.08712659285763469,0.4479075939675492,0.15112813831774005,0.21224888456218977,-0.43336197779931823,-0.04321330438298684,1.001470781019785,-0.20560431279345862,0.04455710542616944,-0.009970194110014726,-0.3778102974557893,-0.07226192300045373,0.18015047151472477,0.09377777048387778,-0.014417367585594767,0.08363012822449815,0.1297034991885597,-0.03500433534904448,-0.013673963119160519,0.02325831779902217,-0.0038247650196862604,0.08165231432573984,0.05090551890072688,0.05309467646587332,-0.017125582716648408,0.11064690121183368,-0.1234590804729114,-0.031025437987610305,0.14136728125978637,-0.036493599639564514,-0.031258833810742445,-0.08912442652560847,0.047517582294237824,-0.047181893915048026,0.03581807735360992,0.04529706565968371,-0.0661377756323724,0.06714413293463566,-0.10150258920146632,-0.17779263999164943,0.03290478976366589,0.011646354336801803,-0.04693096460072993,-0.0220819838200185,-0.057243406977956976,0.07282187043380518,-0.04871358011087162,0.03175158806431793,0.021293305231252724,0.0014664185164935243,-0.03869587802483322,-0.04184460554798925,-0.07267037121813394,0.006706642290457474,0.0644528587569013,0.005265626834864694,0.01188747276725112,-0.07329391421500923,-0.0223626561295951,-0.02993179841622264,0.0344315066243956,-0.010318148934170551
27.806299209594727,2.217000961303711,-0.007795425973421293,-0.014820697474540661,-0.12539682395078047,0.15276180333320594,-0.0674094010340931,-0.004716766250876628,-0.1739050702429708,-0.09206947110937105,-0.0017182153792096237,0.26251198156654915,-0.04295229961666573,0.32714081772767045,-0.16706565367829468,-0.12764929981555334,0.37236832143812504,-0.049019345269748466,0.2361713971185569,-0.025624910924260585,-0.20329374923652144,-0.5609920202858261,0.004230034634736478,-0.023089393147420326,0.08128717687397753,-0.04353908006715936,0.11178147091139229,0.014521450531886231,0.09268252451813808,0.012641731180601076,0.0596564136925783,0.00424542463929603,0.09381578639763866,-0.06844091399634668,-0.08184374778566408,-0.3990830393345489,0.13729735849976654,0.9430913748196873,-0.226568801046458,-0.3860836351469941,-0.3244319469053309,0.5801953337763982,0.7490016402256349,0.043160996855713896,0.3966880469018625,-0.007395367206862236,0.0059091051025628675,-0.1520470155634507,-0.030843614374059938,-0.017370815974234576,0.08561152092691213,0.18468948373012714,0.5677297763110287,-0.07635483646947032,-0.22834436059439558,-0.016362304566036722,0.007872585823007252,-0.056516097918260476,-0.020699352917353198,0.01651241219426359,-6.486315252944574e-05,0.1074107128356946,0.08147466013899132,0.010699604715115366,0.019082591275788083,-0.030825768129533825,0.03000403119740796,0.02473875318073415,0.057485496050584645,0.05279564478184812,0.017588797197276507,0.05773986546204621,-0.1757850306874041,-0.03802206912480671,-0.0027899293847603794,0.05002857163167789,0.005452216321457386,-0.033360971259661164,-0.017220050314558647,0.041290172314046296,0.0781924060606891,-0.024522370488024244,0.06320762998923377,0.04388770689177514,-0.03733531205812488,0.0751731338909542,-0.005313445815241726,-0.03504931172971312,0.011239853442192678,0.049216520023668955,0.0014717042073803463,-0.02657201070494796,-0.03710810042924412,0.03804917612261556,-0.028697185861479443,0.04743228370240718,-0.055564615930541655,0.022117108934719475,-0.016398866334646486,-0.03191796687269499,-0.0399826646064556,0.04769906408647345
32.12110137939453,1.0385971069335938,0.11254952674434471,-0.12719426333762207,-0.12823106090933523,0.10522881692457613,-0.17224559405836237,-0.2032384817009497,0.020443276823523756,-0.08579691662966196,-0.05409914991588803,0.28381142409795906,-0.12507103133473266,0.08642713533847804,-0.1566849126840011,0.500998161476851,0.7429763227960396,-0.29047527237799536,-0.7658511047032089,-0.033930428185480366,0.05879450909604135,-0.04750689564708088,0.1546838050180897,0.23613035518640496,0.4925454886956198,-0.02471493856635017,-0.24012923963464367,0.07748285059465104,0.06655476558673414,0.10955039181967283,0.03507301334851141,0.13532988889276582,-0.21924345369928944,-0.056574197517710756,0.033273379002393945,-0.013422382758738777,0.056576573674538104,0.14075061697844504,0.032306405645836825,0.8140546055484481,0.06780886991307103,-0.4304602639600017,-0.340184661355576,0.2681172543530817,0.27287236556416683,0.4665964787968747,-0.5648951575732849,-0.03620362806004624,0.262742254857926,-0.006812171780769635,-0.05470318226012053,0.4237200020004976,-0.13724107595218432,0.47762942409538867,0.06878427818322164,-0.08211086425628235,-0.024121367020954625,0.02519470761597236,-0.04920581845569129,-0.05185780183357132,-0.025265759066600398,-0.0708937191101431,-0.00284900687428858,0.021534988504173617,-0.0031970848372292393,-0.0693237658815486,0.012666060423930823,-0.07351269282512439,-0.04240636803611823,0.17307715576486118,0.026938658159091064,-0.05743031978215961,-0.052864437776024356,-0.0324244533471907,-0.030567805722205157,-0.03083883669997166,-0.0466098919424641,0.08131060324948765,0.0014262753157516569,0.0606351246037428,-8.980427919538314e-05,0.0554253180473532,0.09952672262310797,0.03736690680960799,-0.026155430666617945,-0.0013589853539225693,0.0037489474587780597,0.001057605182536307,-0.07174665162904195,0.07890406153805796,0.09960249395524681,-0.03806663172315813,0.07350077967740272,0.030508077901999435,-0.03653004835237663,0.1062256938975123,-0.10217859903846216,-0.0653512327954333,-0.07792229367511178,0.009283083773515229,0.06895683778858289,0.06656377332467502
33.159698486328125,1.0192031860351562,0.06737423309050808,0.1139089488882616,0.16044091113805875,-0.12934230966593702,-0.060732530016414474,0.0003274576372327392,0.012793231197619522,0.06308386641700738,-0.03651950745188886,-0.09361998189159554,-0.05831035715165621,-0.10322691694088415,-0.1193726904546588,-0.051926567904234014,-0.1636155406794852,0.6090389491674391,-0.15246087213227932,-0.2258001344803877,0.137100527717133,0.0758789427768028,0.1463155370346486,0.4917696923540983,0.10703161554079557,0.3858463606369873,0.05034201272314669,-0.02424684964786876,0.21323685209939144,0.0023205657371049787,-0.0002842599064359098,-0.04021064685810434,0.027458250960067033,0.020019817199961803,-0.009187461631792996,0.05254834208687729,0.10240054248621673,-0.24412445594467128,-1.2005815400789717,-0.3594722019359099,-0.12744569321648477,0.09012168823052984,-0.2972006247652889,0.9012183232344828,-0.0660701080807053,-0.15386012838383217,0.37871936453097965,-0.5258178354204488,0.10738706314724746,-0.18969710661139094,-0.31824458421566876,-0.07258652677119322,-0.02644143890927269,-0.03335291062805033,0.04921591951200494,-0.26997725134596684,0.14700496827909876,-0.039193799890612994,0.07911202656219883,-0.0018726553771931807,-0.09791186662365985,0.005664873786912722,0.042410011223882285,-0.03475867743514397,0.033238849450492394,-0.1536854021440009,-0.07183484511941815,0.030455224579485053,0.02849232686630317,-0.04669313121754235,0.06669470808130493,0.013986597170310068,0.025210761328978162,-0.012732713922093953,-0.10878246218143395,-0.05447642910962539,0.07458456263176472,0.029253702857057754,0.03654874367569234,-0.02726937410523012,0.004564522205884239,-0.05199708436616158,0.02307194183912073,-0.009563871125220589,-0.0721725362209331,0.05332259800130992,0.005973901776059859,0.017112027169644137,0.006551524361208972,-0.09405221187650785,-0.048713859627839085,0.012432637575229333,-0.015362150339741793,0.06332143346184307,0.02328500831023896,0.06944093828436161,-0.04456788714369875,0.05857519469829353,-0.00645676175245416,-0.09430146603527263,-0.11508703912029895,-0.03952383121682061
34.17890167236328,1.0485000610351562,-0.03661157743241599,0.0020317891032882113,0.1784571413184875,0.049071383093922664,0.11263571520622405,0.235540070109232,0.19218198718263915,0.04700015583867245,-0.01957076884766984,0.14279939180594423,0.17749686947757642,0.013388474862067356,-0.1665634242748299,-0.11504214861094002,0.4107564859004789,-0.13828852687776885,-0.5593869994580182,0.12147792452950919,-0.0562144500598773,-0.32533986671966547,-0.13358496355755475,-0.28171915367159767,-0.019704352577954495,0.29580428497028105,0.3641389125031887,0.03857577106107142,-0.2880857005561628,-0.1109764080847137,-0.06397792837163921,0.1141752924890699,0.009630887920095463,-0.012347903640054569,0.014649749387784378,0.09236975365219363,0.06279326929983264,-0.02433629843646382,-0.349542241549824,-1.0845341199119656,-0.25674211485035814,-0.22871170634803276,-0.20887949756338742,0.2653803798254682,0.8387657387863529,-0.6673560908179497,-0.09979719202264915,0.15162639217848775,0.08235741867011245,-0.47656079342219176,0.10942029773352313,-0.024074714692034583,-0.0439902781493598,-0.27908927648701104,0.07737638557854148,-0.10544459442216769,-0.23248354827219633,-0.11477522881974014,-0.05179674587654129,-0.054824421989589346,-0.07277803699753134,-0.06615756478852607,-0.028386629646133952,-0.02187958614125479,-0.030701167201161634,0.15203109224853012,0.0012895826100454756,0.075217762506128,-0.09230037864907865,-0.0033746360786462556,0.09064259987234348,0.008791692189597931,-0.015591366855497776,0.00907120287620565,-0.06712636803354918,-0.050377208965801626,-0.08181202348672054,-0.05167916825378851,0.039496350373262185,-0.0180179057600147,-0.059464509452335265,-0.0781521733990763,0.006226072844591436,-0.1031371338881298,-0.13817619531946004,0.008478623477651718,0.090294609565368,-0.011077428440716953,0.008789121097909771,0.00019880464621157678,-0.028316496039870256,-0.03250821090323675,-0.03783258302111344,0.04781258184591286,0.13840792972763474,0.04511274122330143,0.03460802600045346,-0.011598841792156485,0.004506610867721741,-0.049700169946399884,0.11097436214786256,0.023202245756822837
35.22740173339844,0.7791976928710938,0.03672990820349524,-0.039446334025841454,0.0806566920070218,0.1906629071296458,-0.07623322913527689,-0.09516161154073487,0.04446326213153226,0.14864148414933046,0.00022224254140074118,-0.043798811129378945,0.06665223155149755,0.07298714927873422,-0.009052094606838784,0.07934818046502241,-0.12160697507154573,0.7402717937911659,0.3542333028768789,-0.33639464377891526,0.5177154951853159,0.1473985102475589,0.154355580893837,-0.11261016034068237,0.03674515468424255,0.06777186276801814,0.055052711504407076,0.1031238490969242,-0.040256441364082435,-0.016768615499430706,-0.12996214394756153,-0.06638480075560241,0.01743791384439957,-0.05968654465033754,-0.2112355448858292,-0.0542951028459729,-0.040747519030401566,-0.45795998300636676,-0.5070428092876629,0.16008983728556786,1.1427387300550231,0.5086741258646793,0.0016897975871946677,-0.5865307051619296,0.1983908361969498,-0.44514077146636144,-0.3511594560865472,0.2802835977428198,0.08862256158548149,-0.49128178214385565,-0.14694925284227586,0.2064214751707658,0.0313177951876617,0.017067038439048735,0.09851691288842176,0.0004756500671462098,-0.046316757835145876,-0.026033193880869027,0.0032013354997056463,0.041881102173546306,-0.03648679032970425,-0.0011867701902727222,0.003114530596655952,-0.04250282447541945,0.03133833890524143,-0.04153677785054931,0.011766765162779311,-0.04990970849871734,0.08190618606427935,-0.03627466074818424,0.0038682967650649613,-0.00021155482188006767,0.04800218551656293,-0.0007576082845071001,0.005886759286291205,0.029212251400516538,-0.024765190510947742,-0.015000677355612866,-0.08811089021793363,0.009076447593358109,0.03589927771482041,-0.02598523196459919,-0.11448733026863213,0.045292957791568056,-0.03069258537386124,0.030146188882871315,-0.03107474075371466,-0.04243122387200128,-0.016242199219934653,-0.041742414663582555,0.05015720930103615,0.04607150017709324,0.012851829451148471,-0.022444858546316438,0.020122430139118585,-0.07378548426471457,-0.019769023489007415,-0.027798353181988218,0.022999000801483357,-0.0987323373955751,-0.04639449716955012,-0.032957979570726256
39.67259979248047,1.0088005065917969,-0.09394070464850234,-0.07150246028541736,-0.028994783145953454,-0.05400294017245605,-0.006316677983303834,-0.015260752890596946,0.08819480823172657,-0.09662790532295616,0.10737419987023003,-0.0605539373233121,-0.2286939980379705,0.07122741709397201,-0.18696728189095665,0.3228806078903366,0.30942501130992917,0.0690138448798593,0.27497444743354543,-0.3466919729507776,0.08032337508678311,-0.37132698417040155,-0.1924934786692378,0.012323059339226521,0.16030777575537133,0.3635415358428114,0.1007959330649198,0.07716479905627457,-0.027410064943297844,-0.00184925962742651,0.05875283547580555,-0.0034927291676671965,0.015780677201630768,0.022417888053424997,-0.018620392961651706,-0.17104809085163974,-0.023134156859269877,-0.21760854924806208,0.39155413771154446,0.21092868787552888,-0.11837052125728496,-0.48064823269032847,0.06617728573550022,-0.18866387208072952,-0.608285318775996,-0.948251648669,-0.5396840753003336,0.4876880602805266,-0.3662733174001579,0.12765550816301247,0.1336009773691176,-0.5643271369283913,0.5101470543940096,-0.08124397969512624,0.13630447669998302,-0.03286919032548134,0.012682757705167282,-0.06655363516011131,-0.015771171988455526,0.016675029555407176,-0.0053070503334832295,0.04419026318416737,-0.007054282680110545,-0.0020546568313826842,0.02901364846668012,-0.09720264372842817,0.06098227996147938,-0.05561109725496574,-0.05804893874703028,-0.059585225097306176,0.05329968580265645,-0.07512286045544295,0.003388316656763483,0.06961359770157252,-0.017694276263335376,0.07361499971444177,0.05951194111756392,0.0474167964333259,0.029594686263808123,-0.050249289010006325,-0.03538967070939968,0.09917131135947303,0.06784844910286139,-0.09295775565031862,-0.0194950758652188,-0.049994371863219936,-0.054520805083660015,0.0308428264045501,-0.05776418894416232,-0.05382390073638164,-0.017727915753001408,0.057991605050660186,0.013230339679682877,-0.01520737357277008,-0.037013523115826286,0.046604958405677126,-0.004877881765207686,0.06026551517819752,0.040597803628342956,-0.05027293884169026,-0.08905138560239848,0.002752303279418545
40.681400299072266,1.0087013244628906,0.004342691786252528,-0.11385441573826943,-0.09705035989206484,-0.0834058408533141,-0.06348991404499289,-0.050135238543820265,0.06639219132060553,-0.10013598790654202,-0.07230490069451694,-0.2540359812177272,0.0668294461437742,0.5689390553049332,0.07930993843553044,0.2858686180371105,-0.01336014756634396,0.3300658271925295,-0.12949927327408325,-0.18470567051193168,0.3827947868443423,0.4272393545348721,0.11352047036726597,0.031844305274772694,-0.37896971497674437,-0.020265611617021454,-0.008049461034732627,-0.08081223576501873,0.07846510969154348,-0.03903018537048947,0.0206911824238283,0.03771779717745234,0.0007329246710648825,0.036079608356138736,-0.1333300995552784,0.011640693312122842,-0.27032179003811135,0.15941681231755356,-0.28363440312704324,-0.23316321728909947,-0.4209715560175603,-0.5717234934759795,1.3657907182318398,-0.2027944882775351,0.24777760733044063,-0.03308084470028898,0.3038684950821461,-0.9577897369511515,0.0019733392060826624,0.29015859528069987,0.07008786743122877,-0.05103773051814556,-0.03463424081720516,0.370702493363081,-0.24824368390747553,0.018594156080889164,-0.07788828584413303,-0.0018286724273044678,0.039595817876508656,-0.052293430295002934,0.023833557011047016,-0.04171474042527634,-0.0036018278685255416,-0.06233782488278712,0.04126247744832831,-0.12861878159243784,-0.04980835379749977,0.022345253290304297,-0.11215425107250046,-0.012959554545765523,0.16251070927168523,0.06360889913222822,-0.10035904454957675,0.02947487015130923,-0.012576547749523402,-0.057283272197949195,0.019843800369472857,0.012590570334748547,0.02020012640315726,-0.051885720013537605,-0.07579769795980935,0.118908545737768,-0.034524370497385076,0.058723248052651694,0.018594082722208534,-0.12813645819334252,0.014199956453063281,-0.016726033455379596,0.029139337884029455,0.039570947665637804,0.00547536305847704,-0.052993992543351305,-0.09811268156869353,-0.0582179524285097,0.07150738908366615,-0.042267409584283315,-0.06809630833118899,0.10798350592854743,-0.0667460900641098,-0.08448766093785444,-0.12497539937094367,-0.09222226165013686
41.690101623535156,1.0289993286132812,-0.0882404884894414,-0.005417706133722382,0.1487831529971249,-0.09581615197097904,-0.10521346926442036,-0.09579112997140876,0.07824512140094188,0.09800923575873502,-0.06536792759119138,-0.03700596668785392,0.12455663108333956,0.02233129819669425,-0.09485202174298091,-0.05920037151702476,-0.21253131280014592,-0.2633154234954146,-0.22093447689805523,-0.2913329796259971,0.5622433986549047,1.0906687973558573,0.46921250218462257,0.1612294330790206,-0.11013339508653155,-0.0508817503855358,-0.04891601201981505,-0.01938550414849146,-0.025055175943078104,-0.17940985543282725,-0.024028095984848744,-0.018626426968882,-0.12924734900224372,0.03631702968944472,0.10118632888163469,0.07035400684457276,-0.0023568802390403435,0.3633240884631401,0.5702645879163092,-0.33410934683449495,1.1248650607709292,-0.7271600745357119,0.3839026112166134,-0.08586476533900034,-0.39231315270043393,0.10551557902427307,-0.5655881066174608,0.22547379834097736,0.4438689545850961,0.023606035411630998,0.2043452307974805,-0.012810256179536406,-0.7640886885706365,0.13672125535275126,0.23702436917262068,0.15459855090668626,-0.019541850024257235,-0.002883623515558297,0.034676382938931924,0.026972183287378396,-0.003265298096798522,-0.05328423953913747,0.00571983345660038,0.011881340355040808,-0.07151869371990426,-0.11736601021464724,-0.05101051587416546,-0.004517862029259127,-0.049311702919277854,-0.019469102665878785,-0.0894432174237637,-0.04654542576912992,0.06900396156300391,-0.0836165417277777,-0.15090090482027935,0.015864979089274756,0.00949746097770611,-0.032730872732479474,0.0565756257109382,-0.011655172623216185,-0.032302522508593244,0.02162647793474337,0.032897291558261946,0.034976511203459466,0.09931177020999461,0.006514695844281685,0.045541838573445875,-0.08665842625390356,-0.04280401255393528,-0.021273323016757686,0.0036500031148469572,-0.020316788131430022,0.018123868806687916,-0.042848572283108434,-0.01888215143038096,-0.0190270320028007,-0.023901164455358746,0.01406416974480516,0.03249833319233917,-0.05208752152788109,-0.05571195022502138,-0.05901298350481318
47.024200439453125,1.0284004211425781,-0.09767131512817774,0.028800058490033146,0.047328147225087276,-0.15702970199759472,-0.10018928562816805,0.042689993426197566,0.09789742428513946,-0.2521580872198535,-0.06137905238013693,0.10902058212434747,0.06742230600128435,-0.18471564180283992,0.3657590198256344,0.21093850125743946,-0.0923842020141668,0.35520348279248903,-0.6883495057386118,-0.630154226781136,-0.2012166765702886,-0.06645347069558297,0.20904966748938497,0.054494093139902264,0.5790705220670622,-0.26490032845388695,0.05263737328852383,0.038627841871053274,0.010828328404290566,-0.1150204286560731,-0.012968523503526716,-0.0575692302700061,-0.04365108503283797,-0.044827072983440026,0.14155121305848634,-0.005337756052734853,0.009152381637665429,0.06745871874338444,-0.08980598037325124,0.043845750352345766,-0.14416103449729234,0.42193640015544337,0.32615874397848327,-0.26998603581563785,-0.41088875671580377,-0.026907149894501242,-0.2565355250497089,-0.6852925029691872,-0.01962403425380793,-0.015600704943958606,-0.06606867084764895,0.029909832282006887,-0.06257951447438138,0.011104222354194861,-0.24895133209287448,-0.4767982291892733,0.016118632558118615,-0.0903679054183964,-0.0005217354405464003,0.04609299008973622,-0.05576205463480542,-0.019946118435677968,0.009370885364981249,-0.037044865391111625,-0.0734347006576262,-0.10803371314569098,-0.013815222531381127,-0.040837710356726384,-0.002689221737837203,-0.010751441230696289,0.07090893190134026,-0.03744409549154643,-0.03393070526533236,-0.05045137192866798,0.004358668753333921,-0.003705053601204218,0.04130622556699525,0.005096030837580918,-0.055534161077092026,-0.011848835737529623,0.02040085158553868,-0.011548482423368254,0.058614201972837385,0.005845567207486242,-0.002277751452564163,0.0954558680660198,-0.024607617517147542,0.012650781045811339,0.003190411839279019,-0.052975112564638036,0.11378220614498001,-0.01551314876226683,-0.02678024467805412,-0.01609516129601428,-0.09858945819523761,-0.08244317987317314,-0.006706607615367294,0.06284528968732382,0.013158732710211346,0.06394817801826021,0.062448660318696385,-0.05033984201143382
48.0526008605957,1.018798828125,0.09458394666762308,0.06547474872685347,0.0783683266094693,-0.05741204791376986,-0.001566242602153059,0.0043934705185770745,-0.2020981550192413,0.07173701890361166,0.08157991897365147,-0.3272516886746808,-0.2593523628861393,-0.8253891162120154,-0.5776507973759645,-0.161207715991101,-0.20880528931199774,-0.6884540458428183,-0.061549090068753656,-0.21423413283956574,0.003580475629869605,0.14308567311043757,0.4081058673835158,0.23459218941560747,-0.07236707003727813,-0.024744888320086346,0.021712802667700017,0.10280403579291506,-0.24038983309092496,-0.036490711190762096,0.006554267693543243,0.07672995397979678,0.024395999019594865,0.06656173292251476,0.1341870776615527,0.10753207056720651,0.2811443082032111,-0.2372110956683651,0.715538397263975,0.08166077249497083,0.4768282706782272,0.1283589582534408,-0.7258515239776345,-0.14699185491376598,0.466901942370437,0.22695782018191193,-0.4121421596342528,-0.2849839373174704,-0.2676838116953267,-0.06792901988595368,-0.07259248028774207,0.2031081892455568,0.30015571094239196,0.03200897331266529,-0.2820093037950209,-0.006666055574838322,0.2160724071824834,-0.11256611155731701,0.0011608153718962507,0.014181976168422138,-0.01745093097826506,-0.02187257150404969,0.011531020635179898,0.05343131425624659,0.08250713488488108,-0.011797822922721812,0.020696141547065165,0.0763106746968808,-0.14674078403282562,-0.05059768055590193,0.0876656916519947,0.01881152481722574,-0.06543221768588019,0.06149555036900355,-0.06447291989405268,-0.022705490986691793,0.05675932488975862,-0.046552413505612976,0.09289477592770755,0.023202057448617953,0.0637478192678711,-0.11320327292759018,-0.031100861754223823,-0.004196227185421136,-0.08409649965217184,0.02431359570976319,-0.005217311221176794,-0.00029786512189852385,0.008076861167908825,0.03566163676373326,0.06219860826454177,0.000467507646623459,-0.03547427732379042,0.02106827095729629,0.040354611105780765,0.09188843634382554,0.13457355845724467,-0.05838616043601314,-0.025646060014833376,-0.0047877439864424855,-0.06155461510981709,-0.11030976796042179
49.0713996887207,1.0392990112304688,-0.09955665221458779,0.03855111203042838,-0.04890063393591731,0.12784580225369294,0.039261493575891336,-0.20427948550290154,-0.03667619381544009,-0.012700665217929749,0.08134722275216627,0.029183884281698172,-0.19026553308358365,0.09121202397073502,-1.4621113997676762,-0.25778285763357206,0.13956406999294727,0.019417079140941762,-0.6248527244346194,0.05697391387034863,0.6473023305271282,-0.3379844245329347,0.03774106109546982,0.3605476599936074,0.07767180235363452,0.026649733755298506,0.03676180097319401,-0.043079821046933454,0.00220534500712264,-0.033130381448604404,-0.06539364551955187,-0.004856542097363685,0.09950297399281402,-0.21252470819302688,-0.020384524005216155,0.0041440044834523265,0.040811640642061005,-0.16777258976647347,0.07405506978891715,-0.3437549675785292,-0.064981660004793,0.2517294204716917,-0.5677095250147896,-0.07057920353983693,0.2869520528313532,-0.478380728635238,-0.5379782055423148,0.04366955559826827,0.6544202043442424,0.4913783111298207,-0.6339325906912832,-0.26609327510871583,-0.283810698160723,0.12283347854482042,-0.16934486624340178,0.0995553574426361,-0.07694746069984766,-0.0905626376197037,-0.0009273540754009121,0.04267940140276828,0.03532885088274875,0.053150547780039685,0.0545176648146988,-0.010866362521890872,-0.04354052262258449,-0.0001573559468995983,0.03807939644222121,-0.03224784738216402,0.06929794343162293,0.021357236978847297,-0.046543710309904236,0.03682091408762313,-0.15316005691891027,-0.039266966825274835,0.024762318263210698,-0.0350382523062491,0.006793209746535717,0.03598150890319624,-0.18251149123429652,0.003619413068278051,0.09436275634087221,0.077599260172982,0.00281691552636229,-0.0013605782936057008,-0.05593598495360962,0.03944193692358283,0.01110787577355556,0.008982801556987278,0.006643729386944625,-0.0001286319650843819,-0.051881037603209786,0.07326303379864059,-0.012808391908765242,0.07594498456585988,0.15734027617171029,0.006696912365185085,-2.184728372946372e-05,-0.02635857292244893,-0.14371403776717862,-0.04453420394378492,0.02612632729465985,-0.1477490247046138
54.355899810791016,1.0387001037597656,-0.12797752035975518,-0.051400113142898975,-0.16257587974100643,0.04907391822334186,0.053937836935531155,0.08336273528409034,0.07983255174732756,-0.08071458840846785,0.16286628264486874,0.09841645699093768,0.0049607357657950974,0.1965918121619692,-0.0461172621682569,-0.2333052543305349,0.5745963458257871,0.4658342590902512,0.019789828066351697,0.5352341995935446,-0.14687809017129497,-0.3118710055649236,-0.06980256669320589,-0.016020121027438702,0.3475315879653204,-0.12469335688344081,-0.008705578054162921,0.007609619232368248,-0.22291859995532387,-0.07643199406946773,-0.0069452544354122875,-0.06628519193531827,0.037845147487581964,0.19947404141983108,-0.019538359874785777,0.12096201671386761,0.23192547219778617,0.1476762663236661,0.046592336631038275,-0.13185498755670866,-0.40688783809980467,-0.1837514306096698,-0.3432135048524535,-0.03806323539115236,0.21191706404566044,0.25144906829349756,-0.7108966794796834,0.012145554812777348,0.06276589323254697,0.2394582551703782,0.20817161119725977,-0.3199316720633286,-0.401603666324742,-0.31716312326193535,0.03450296195445292,0.026846851030275357,0.05135494049061582,0.0022429877475657924,-0.08504873667829776,0.06833091990492574,0.0031018378343215273,0.01986288833346178,-0.0020356092928941385,-0.04169856639209174,-0.1484584573626412,-0.1036343089667483,0.01628620175714077,-0.0440204484454121,-0.07458257935874521,-0.019987026515260506,-0.013407425448230119,0.11045867104634408,-0.025604963843923093,-0.07371479282318061,-0.031697580331007565,0.04940161090687431,0.057431179549959126,0.05067303298098861,-0.038911600807107725,0.07501330434413,0.026270451834130525,0.08000521020099619,-0.00966246704543707,-0.005259819293077051,0.08162491198547041,-0.017668326079001817,0.00539653144595028,0.05021030010627067,-0.06578930737251662,0.04839474430803027,0.09865388320678042,0.015957906236115125,-0.0937623932962952,0.0944065296204627,0.030992147997728203,-0.01926237153061499,0.009918315206707894,-0.1019917707792512,-0.12134322993518723,-0.08727925094095658,-0.09716400739681086,-0.032183261404619586
55.39459991455078,1.0088005065917969,-0.026505715772115634,0.11064842747093237,-0.14914806168868044,-0.04063471592551265,-0.05374706061435641,-0.09134652066772786,0.06923794422134878,-0.0017531618199445598,0.09133330504778721,0.06872291856269756,-0.06109342770937769,-0.17326382948636077,0.5138768364070054,0.3449669011242047,-0.15152090399665497,0.5510215698288028,0.22483573371400364,0.34331824223173935,0.00797749953431403,0.04773354183877026,0.5799292766730575,0.3201783732401358,0.04963796433513437,-0.5185669518105679,-0.25894386792504476,-0.1869948155175625,-0.0631625228395934,-0.16734895725372614,-0.039779366055239046,0.068088536973007,0.13007727511312597,0.021329824620808728,-0.10551518265852876,-0.11872614411971547,-0.32164955363877723,0.10295758625226165,-0.2105065333171025,0.045019795897482666,-0.10885747576462523,-0.18373851517166392,0.4762493838813247,-0.47725495330062306,-0.15944997681585682,0.07358303405413338,-0.665419810464119,-0.00140951931126293,0.17201717540125785,0.7530355924289929,-0.18246451019562468,-0.5686325635514435,-0.33772133746985245,0.11185599108023112,-0.10930704707448827,0.043063503394511135,-0.012025761665463259,-0.05796993277455173,-0.09566940515549285,-0.023183123693138588,0.017363527860048807,-0.027011792624524793,0.0125363055512525,0.07354559655519187,0.10415129161291917,0.06829454193102912,0.09895399024963356,0.0552967430629463,0.006001309421916155,0.09088743300752572,-0.05003302801328374,-0.010044440451598621,-0.11126814738520159,0.0309520402624624,-0.023338599767474055,0.057639455708238266,0.011004143613998754,-0.0324596880126703,-0.016053463342575344,0.0024420853800824864,-0.03480936044153657,0.0345572325289594,-0.011076032174057417,-0.0275575679774952,0.08116233659106244,-0.05496162798289222,0.022630274953027316,-0.010890674106916659,-0.08460845148468497,0.002025219187646414,-0.05050231195727919,-0.07079083440053899,-0.09454294376008895,-0.0003961764620142036,-0.04345983236755174,-0.023368756781706794,0.09276555171331126,0.008519683488448178,0.017925796602878224,-0.050613847890585074,-0.013434391858405552,-0.09311406891534424
56.40340042114258,1.0285987854003906,-0.09187102681975029,0.033760256914516014,-0.01154048453496641,-0.061826005015218094,0.04330591423898285,0.11190058575449388,0.0022293596383921206,-0.13969395676279855,0.08206073454181154,-0.03622409244452916,-0.19927366873232671,0.2651842565463809,0.11188848435791102,-0.11718210085516355,0.11969268225768184,0.6530654543139299,-0.3797002521877245,0.2772046407007673,-0.28267277855914963,-0.5437496694017879,-0.05426667116606056,0.20037807903461954,-0.2783663385165279,0.30242400359675004,-0.035532043772899966,-0.1996842100152483,0.0036842887790363398,-0.012050616506708366,0.017013592529864566,0.112249771772987,-0.025028809938686385,0.11141446241053717,-0.059755770460810126,0.03787749694458355,0.02393397518934247,-0.023831170369853716,0.32790684380813956,-0.06805420265567114,-0.040601437199122486,0.6355053601207291,-0.33823431687811817,-0.27094654986681777,0.1495376207997453,-0.648592310442607,0.013675757159745543,0.6536945971342724,-0.06590307258116967,0.06801495536182034,-0.3343225066198974,0.05813259545218096,-0.08552248543419977,0.06765580915765475,0.22490144547587965,-0.05464992865721166,-0.05992885291668475,-0.027048022594985892,0.005698956874432477,0.0461459272944891,-0.014051311378257398,-0.023152020532801368,-0.05741857917300299,-0.07143937476163986,0.12690289607574906,0.09434849093602714,0.0807789336418221,0.05961420913650389,0.0828460027278799,0.03144682781434961,-0.008114356851460669,-0.011390316418722719,-0.10849462736544395,-0.03178857771289239,-0.0017551606367098038,0.09925690790031826,-0.12012434192049061,0.020576380787986386,0.10858029303304075,0.16672919186985838,0.0921414599448447,-0.0036740605629346345,-0.0246539250282483,-0.030796948031467156,-0.06383399636874482,-0.03581919229868598,-0.003548605536437836,-0.10433266714582304,-0.0649082008176467,0.16500647253151465,-0.019719692776723627,0.012369248093878557,0.056465952104558834,0.10545275898937105,-0.013286217767160642,0.0782480189884293,0.050316533320844826,0.1389699587030444,0.13534893809260984,0.03675089993193239,-0.023259753891780897,-0.14599613042552628
61.62739944458008,1.0489006042480469,-0.10094214044102683,-0.09878399142124733,0.14282714106921982,-0.2714319398978594,-0.07880413424685892,0.05769750046175639,-0.05161393854906534,-0.05677365400161765,-0.010490929594661202,-0.13517187835282177,-0.03538646990942411,-0.092022826875711,0.28810748283413934,0.00027730223688345046,0.00025554733394322904,0.17115004751755017,-0.0283483881659177,0.42753635106881155,0.5670467066691317,0.038821835795826334,0.10788737229428619,0.08109448002760851,-0.09604157236591193,0.05106189091112199,-0.1792361200892875,-0.1289109844686962,-0.173629256735006,0.016085291164615167,-0.14635492808719588,-0.14214407488123773,-0.17738490949685415,-0.04118062580493865,-0.10663124318960322,-0.002049596222733856,-0.26261023718911536,-0.05149301567214962,-0.1739319539045911,0.49415596590807465,-0.08688467210558429,-0.7625956213449676,0.0004490698244098007,0.3253097357843235,-0.1335219426748937,-0.10235235719004941,-0.5393001295398974,-0.1030027258728176,-0.23509942302559494,0.36739922123706853,-0.07402741277488085,0.29791683323837104,-0.11041019342084862,-0.046416304682346025,-0.17151434546987793,-0.04356494785397191,-0.002723653351828455,-0.09891393146200371,0.08709372399154575,-0.032391371200820335,0.024461991017718402,-0.06930370419159511,-0.00479734875130666,0.03010776130988045,0.014308538770517784,-0.05247225260321164,-0.03284881577703021,-0.03188816532882755,-0.02434944969790769,-0.009577470725269613,-0.08027962520746536,-0.01856590415834857,-0.020334524260804177,0.04073924936661649,0.06922676336418335,-0.07109792044834701,0.047917282993091656,0.0003148737554390216,0.02492438853690744,-0.05356913143652081,-0.13701915881600402,0.0956679016481559,0.023776143861929312,0.012537613888426214,0.010066867225109622,-0.011291543900271494,0.0110881176079868,0.024857438995713535,-0.07682875812142954,-0.05455084671241534,0.06033220189020842,0.03088272855984897,-0.15640786306351107,-0.017167997233061727,0.15526514980524092,-0.006336886191452787,0.06720420239884352,-0.11527402314961152,0.02948009375162565,0.2610099207247961,-0.011825898690831548,-0.010597781639327161
62.676300048828125,1.0186996459960938,-0.14543443519014554,0.18731907766405753,-0.10648503294919232,-0.10011698113227535,0.07048438137010775,-0.017231402611058336,0.025242524585632576,-0.016433222382694464,0.11566686497472732,0.1046021195574011,-0.1637211177057712,-0.2394388017398003,-0.29633462565237084,0.10306893991676648,0.7003448394636934,0.17444617101054863,0.1220674370282814,0.2590672553800288,0.2322955261738854,0.42645111108773304,0.40878388709868424,-0.2074190550660475,-0.005771408049425025,0.13217757533771105,-0.5181542861933296,0.04497051894631584,-0.0798677719639121,0.19193948296726032,0.07342550240956042,-0.1660810614587363,0.006593493591472377,0.012107067567751824,0.1750501914007986,0.02281475775661046,-0.005729984765638154,0.02584318271379013,-0.18108580013447165,-0.03141961730265984,0.14009391287171846,0.6059619176685351,-0.6981101154907506,0.5692489391344755,-0.8333340934027349,0.0439966038062897,0.6949165343006243,-0.32161464031446757,-0.06948421317623756,-0.2735742585538671,0.48344046340295244,0.07414637242997069,0.13200260419479382,-0.18248319633995022,0.06060066922991857,-0.08431688950404928,-0.0359961186061435,0.03959324975860072,0.045996309665372305,0.07987106832933094,-0.0128300607526701,-0.019058320421638745,0.00424472177725453,0.06326636858048654,-0.08598919036244303,-0.13300998176003853,0.036227677033745145,-0.01273070272196893,0.026101288159427596,-0.09923089835557412,-0.009888076256023745,-0.07058910839145338,-0.030987724130466382,0.08854343157482826,0.06858705148740984,0.04522870162773951,0.02046542425066164,0.029375492307748344,0.13950435574015785,0.03270974863051006,0.04659059830302467,-0.0007883226055045917,0.022110694419312325,0.05283643736403133,0.09564286617975487,-0.033866869124747026,-0.04924776945012263,-0.028123351234562298,-0.00808447619639467,0.11066631544910104,-0.03742175013483052,0.03527277573940933,0.04916362185670628,-0.013323499519143878,-0.032773988986255935,-0.06624632793278061,-0.03455661333516307,-0.05881357258200515,-0.07223438003600882,0.22472753167707477,0.06273209329750698,0.0681400945619487
63.69499969482422,1.0385971069335938,0.21768470163999015,0.12163439804855983,0.11118355754999434,-0.026239791436411558,0.0012942672112772622,0.002066075249155182,-0.004437739239426146,-0.07603564814017602,0.1209827063529075,-0.09561387293538938,-0.054750535403803265,0.04013802587751472,-0.1958772458599836,0.0577403311758035,-0.1508302694112835,0.3223100923167813,0.3671316729937492,-0.17909885666823416,0.028598617597486567,0.08814849883737139,0.3338668500347029,-0.30141302981198625,0.6771949263090968,-0.29490900934891157,-0.09826625394324037,0.026095985319562975,-0.2570087646600756,0.038832101451545024,0.03752622122615408,-0.22464116189810177,0.003505943490188599,0.07308621360278864,-0.05110673527815418,0.11995415909744588,-0.02280071349368457,0.15792142403817658,0.09374123025035881,0.6194371838554752,-0.5111607625368596,-0.3813235498512888,0.22030511827411822,-0.004781276656395314,-1.0305130991836258,-0.25006658311477714,0.1983010395568778,-0.07616040029964678,0.040961978596832135,-0.1306138721577189,0.7452330015387909,0.04847983075586354,-0.3570869609973575,0.15504413681349472,-0.018480297525009674,0.054516298977736036,-0.05424978619935339,0.05500721573337558,-0.05243707789056254,0.01427867066811429,0.05725069012027978,-0.06072365711890869,-0.018050148524083202,-0.1233001371863175,0.07831843386757267,-0.03909271954316951,-0.02596722282085029,0.16707680617743342,0.12041644886043629,-0.023988245262311997,0.008668727372938391,0.13600784326106025,0.03951112151051508,0.027449214208217138,-0.03239402499776883,-0.0075269863465459025,-0.023555273043582257,-0.10764558696036959,-0.01657639527292163,-0.08354333233284046,0.0633016909285067,-0.03375243909929253,-0.16056862649290235,-0.11915768079284662,-0.02108593145525588,-0.08794079221664661,-0.05574252313946883,-0.014983724410038153,-0.050061229522760285,0.06098308587405353,0.032364933968941266,-0.0029019697763026774,-0.021436543999987182,0.062962840651415,0.02988863596775655,0.02832155543942288,-0.003251507615927962,-0.08167930910017612,0.004837017935901508,-0.1610135649948939,0.09832335441203444,0.07699772703629601
68.9291000366211,1.0288009643554688,0.07739934797373968,0.0848673320679421,0.0980612794616616,-0.09018283702399638,-0.1150785040584374,0.08447158186094578,-0.1432314911136502,-0.09397991439433176,-0.002067056635420672,0.023795197844883376,0.13428456391865565,-0.14985919386788135,0.07803087492628791,-0.1687241805473093,-0.11948579041284162,0.19622378578199137,-0.4017355702028186,-0.2133296385614582,-0.5812261276554613,-0.19251919347982827,0.05107594765465572,0.06698562708219828,-0.11801963900388662,-0.06533110863131447,-0.2433920260301166,0.001680436697763077,0.03935459871958913,0.058170549245922396,-0.005728857118768783,0.02705391655732528,0.06588726919787045,-0.1562025434005108,0.06141342868371799,-0.2390580008403038,0.3868850536047765,-0.19951751595749243,0.007559585725494811,-0.1772509457171457,-0.00968593318570135,0.3009159772840133,-0.9564511603337094,-0.24619324013417868,0.3099692505698951,-0.20594220558308537,0.20315456704569795,-0.1331031672081137,0.6205228358898143,0.12934386743544063,-0.7574889173429172,-0.2915266617948292,-0.05722326964456422,0.39589355501877044,0.012023663052152338,0.0026982743267100207,-0.037007566055546136,0.056212060873432015,-0.034858970496108165,-0.03158009077112922,-0.0104548592149781,-0.016764732257828152,0.04050011044516922,0.01193848616419046,-0.14237630823946903,-0.14593400402478812,0.054502377704121426,-0.001813309941780139,-0.005461520248070052,0.016206930406311423,0.04750623425151636,0.1509954699665813,-0.006383129960837428,-0.07242615515345772,0.020357385282066248,-0.011896042494662524,0.047535029036138536,0.047867214000418004,-0.07402842842403726,0.002738819126260212,-0.009554742315320235,-0.10101260274005035,-0.03460821243796716,0.05018900522237046,0.006396945733203686,-0.034300736901590585,-0.0023208878371598035,-0.055648232189408856,0.024475374962323604,-0.051193400350493724,-0.08630827222649937,0.12889105927098762,0.017765781716049586,0.25891919441572325,0.019211609261097884,-0.10047078414774403,-0.011590460011913009,0.10347048266887522,-0.004915708085027275,-0.0244369059066991,-0.13252315117798383,-0.18728191415503007
69.95790100097656,1.028900146484375,-0.18397333251286138,-0.202980163723401,0.23091671667429028,0.09935640413980792,0.17655113081581825,-0.037878189420515226,0.19575994992716889,-0.017617557129329,-0.011141783712497685,0.07378351337145328,0.1126383049070182,0.18302300591155124,0.3155868588071619,-0.040619288625003185,-0.6579917231176756,-0.16958058829250117,0.24921676163195144,0.01450194686436633,0.21946962385150862,1.0152019308417772,0.5619014235383314,0.3854552065311371,0.14944268321274662,0.12983719303723615,0.18650431382369467,0.025498035007626558,-0.009641409028443801,-0.11720455946228847,0.026734046150266696,0.07596116984527218,0.0020757484376805746,0.09690582087091767,8.408314169448816e-05,0.11435442019541017,0.025627996680426014,-0.30649670891439545,0.05557898513014211,-0.5700458002930808,-0.5397827717522716,0.1258328696207811,0.035383258867632605,0.08067067675388702,0.5819980470516223,-1.4433728454614858,-0.8828104828107977,0.43854351622460575,0.8064035861138487,0.1147226535692251,-0.4128946261469886,-0.3583695138560206,-0.3905351616311963,-0.5576626988953012,-0.18029411478158675,0.3125500440405914,-0.06362754457249511,-0.009796476768012837,-0.09490422053241587,0.0692555688713505,-0.018684984676420647,0.01928403291762629,-0.006799987378417759,-0.00026214094422140344,0.04923556892485869,0.021978286723429937,0.19678596698049622,-0.014868206190277936,0.015120497728240716,0.08802284279604798,-0.046266176497876205,-0.014673586039775451,-0.047193190982080635,0.04461136343309273,-0.039548479628984216,0.05572464855253095,0.01615575099485511,0.07416187603581177,0.08741824953314496,-0.024275201316378624,-0.13869593590187893,-0.0066575867136322185,-0.038121020941740386,-0.009244612050351467,-0.054305703132834525,-0.028440282043887048,-0.10519635036868474,-0.09484361554990302,0.03475809227906353,0.08179207940665405,0.051120535553055325,0.012256890372285948,0.11959522058426506,0.06980990173882703,-0.047481180759419185,0.02641236891907887,-0.10381236363532738,-0.15243279729068246,-0.04462770156206635,0.014602638810591049,0.08565203528916181,-0.0950931117579024
70.98680114746094,1.0689010620117188,-0.08976991864047831,-0.013358519930854636,-0.09992818147254962,0.08671204143607826,-0.09164238287630168,-0.09914862557420155,0.2647114980418913,0.027911297315809762,-0.048050323949669405,-0.1362467528249416,-0.2901656319512575,0.3754256861495518,-0.09803553696592415,0.2714015675468298,0.569332678398409,-0.35837791284551074,-0.0038091071229281103,-0.4669969127959808,-0.21026811676885399,-0.20395295419900739,-0.2007431126803855,-0.11039802072105186,-0.23885924562922844,-0.03656273102541178,0.19859354010263885,-0.0435907179820442,-0.03132399309794018,-0.010646650655510832,-0.03273659635539171,-0.012608050619119064,0.01616175014999629,0.007427259769235459,0.06666760695144207,0.0904980645385665,-0.005213455147995641,-0.13931471856739236,-0.7672927240437653,-0.4758172790870123,0.4558582551662988,0.3076543902106541,-0.25428822702825227,0.00783681748698763,0.3214996792926877,-0.21754317819321395,0.06764978346286095,0.11543390141650275,-0.16200241012875674,-0.4144022906647724,0.08170801097160804,0.10112914479162162,-0.028491772795801056,0.06127004299662383,-0.015147877904121379,0.3290768257848919,0.10655841606896183,-0.055473862248437894,0.05459577251354622,0.0043286593717360294,0.0066532540139437974,0.032818303106619415,0.09371971999796412,-0.05460578657312183,0.10800810361681831,-0.07651974442299135,0.024760265437322706,0.13184857112332204,-0.14462881040094386,-0.012375732068312289,0.037449648650606356,-0.03209870813917933,0.1595272011786068,0.05845408163472149,0.0025103613075370037,-0.06466125320627733,0.019490888973640565,-0.04535769138375394,0.017885566425605147,-0.03193010315408378,0.04655017899627223,0.035478964450755046,0.020085826826449854,0.10508318540606706,0.1265402528728865,0.005805310338494241,-0.036258956067252136,-0.03971284627227219,0.0970071533010494,-0.0028669704568079486,0.032076825052713545,-0.02805274530973378,-0.005525124216935842,0.04341968898632578,-0.012656563661959821,-0.10152438074222259,-0.032185164945337005,0.053692663985207584,0.031244371735894675,-0.09305353869550485,-0.11138325062968875,-0.10131608110196513
76.29080200195312,1.0288009643554688,0.0539949300004717,0.07681789179100097,-0.1318041064148438,-0.09151043626126516,-0.13913867429354865,-0.02300605262890358,-0.06878134414071574,-0.024025648146285244,0.20294486165755707,0.08515622295609268,0.11181216297961387,-0.11076123579409387,0.09440485633226654,0.1026345376935325,0.022868390589018815,0.18501907690698902,-1.010083499281809,-0.04931929009871106,0.24689946619765707,-0.2796609921693758,-0.3419226279928158,0.004409249601806404,0.13156748157891843,-1.0526008739263764,-0.21105277294715502,0.15789984751114267,0.17218348632593364,-0.004667950834373491,0.06921733946799136,0.013235962618442816,-0.07741950863232473,-0.008621133830670851,0.06087612293414088,0.029188842899312936,0.2992839189146762,-0.04153057254154528,0.325375810478508,-0.20336333416747607,-0.0029319675070635792,-0.288727069834836,0.5525214016953099,0.521656405096128,-0.1822947273135442,0.02862180398682587,-0.051823548840956996,0.11921725803158595,-0.08100294445927067,0.02117710640859886,0.3152766486408576,0.026607148494092,0.20778007823560674,-0.056069539427821696,-0.04724340016591768,0.09675966360193708,0.025184962570443663,0.05290649579734764,-0.005518199118878742,-0.0542746218583634,0.08327895311880437,-0.018030213210569336,0.04590006009217461,0.034577892368149676,0.12462165420193021,0.013720579097834952,-0.00013480794852517922,0.04295766976663864,-0.09085868418100145,0.0018154043375709474,0.06704617478793143,0.027545973003238224,0.057706386204012874,0.017950370934956557,-0.04255661575823773,0.02848285827506665,0.03928198069074048,-0.025895406259510076,0.007286573021775564,0.044138448036767024,0.16603778454297427,-0.03569551566961303,0.08174537991329586,0.0033357545101718833,0.059614622956312965,0.043713104579878675,0.05237934562835748,0.10025828769003717,-0.037459890716462566,0.026589466817248456,-0.0029200605312676934,-0.030709445960106618,0.022178132580682408,-0.048895947889673504,-0.042111152975325514,0.01122802628463007,-0.04422652340488377,0.08423895924614203,-0.010168053272897907,0.20559453052981214,-0.018285626597735596,-0.12544810368001055
77.3196029663086,1.0283966064453125,0.018685045059118943,-0.023151174809320538,-0.026260004627075072,-0.035687563093979933,0.13480523923289545,0.04354322503044404,-0.014380348895854845,0.09353674442988255,-0.029030035187605926,0.05919601957074861,0.15537790251228326,-0.3546453972883454,-0.1853564864690116,-0.10069426400704858,-0.3035674653449366,0.1545166942218478,-0.4908433612186956,0.21993924476637955,-0.16694507764323052,-0.17766880463741763,-0.24839125441952406,-0.0638567816778234,0.5537542258056403,-0.33127006073524196,-0.1456606067721235,-0.3447119591933779,0.01178679517374339,-0.26055023355084683,-0.29337529802858836,0.10716089389106605,-0.14057203651647474,0.08962803372313655,0.2129115420887183,0.13369432003754353,-0.15142961528359183,-0.5406336039583196,0.0006161962202805389,0.38743258514494944,0.4172320254587851,0.34354553759103235,0.7838276034354632,0.11602329195818548,0.4626488262452082,-0.01849342420983731,0.5497780079128993,0.12017574469060141,-0.08306680021815557,0.20419753070914182,-0.07556919379421755,-0.0141576963290822,0.21368461690739035,0.1230693155462674,-0.19411837932723558,0.045687204156921644,0.007300811818812165,-0.037194170191989735,-0.015059240285976874,-0.0648964092937274,-0.12170786405177136,0.021226089683666904,-0.09423323666973224,-0.006403690741754567,0.03608137175642336,0.04016998687654347,0.11085298001808516,0.002678294856221286,0.04653095277646761,0.06760188206674875,0.03571284286858684,0.03902452621661499,0.05213253306186924,0.06947634192981089,-0.04895491967648364,0.015319821258482373,-0.004681851792359481,0.03254697854258883,0.03971286709153571,-0.015483604648823535,0.0645485922676723,-0.01578004350520268,0.02970936975680694,0.07086393530325158,0.016295010925315875,0.05133558331920367,-0.04054544171494499,-0.016853349100151876,0.04227868414097572,0.019700437749233538,0.0034657570096863696,0.054908030955227574,0.10289935449346475,-0.034517993772869474,-0.0630954694620176,0.15120499044682406,0.08419149437308542,0.09658828793600992,0.16008172133768145,0.16564319461609728,0.02031065856945355,-0.24477340534473999
78.3479995727539,1.0492019653320312,-0.10018928428296417,0.13315051910760636,0.1426776948372721,-0.02067166380426746,0.08404269755270348,0.010898968951810998,-0.08582564194536958,0.08308190034099651,-0.057195680896626994,0.029684630789737987,0.10564927224699004,-0.5205382262352448,-0.28905943604410067,0.0719300404107125,-0.2957289629118279,0.1545855517390735,0.34595640334649713,0.3299252857511595,-0.541021730490411,-0.23169530985107945,-0.02962428156169692,-0.6328539668479305,-0.11467196424474044,-0.0037008527651680393,0.12272015003477313,-0.11786028463864154,0.005349693623609056,0.057072146844075876,0.13500040121900397,-0.0799693786511397,0.08291498993769082,0.07679112894611255,0.009618827179028927,0.05541435035861279,0.05466898019037718,-0.27684192922736783,0.02670924841038539,0.4104919841853208,-0.17092724983094426,-0.15725273166620363,-0.35421652198751846,0.9468215731805307,0.22227178041403073,-0.20176803818198347,0.9752893228627796,0.21449203505865688,-0.2727834598679,0.1089977291923732,0.14821436297291293,0.27164227217093234,0.28766738528326674,-0.1858650423501365,-0.09064820595217829,0.12861935862633106,-0.13366729625880758,0.00296180023795356,0.048324598754673924,-0.035752169953592074,0.005154794696380594,0.02893477104053488,-0.006650493944376475,0.012849381361682233,-0.0002751575958114512,-0.08718142684589526,0.019338951654968774,0.035607719868442356,0.032031212293312926,0.06349836913279604,0.07330620946909464,-0.02825801565081148,0.025591047937358342,-0.052803237491042376,-0.03644848239760887,-0.02993848279383011,0.03021163362233154,0.029820657695297386,0.12341163652791853,0.056513324198437694,0.040913237945393414,0.07000001733728524,0.08925349659750675,-0.07135651511036722,-0.049197629093042115,0.033085173139533915,0.022718686270879376,0.04398904789407508,0.03776650777087574,-0.014279041803686922,0.06865843822807341,0.08768990807804015,0.05120888924686363,0.004420880444501787,-0.05132682761997183,-0.026584357625357227,-0.03922209429790809,0.12434776774457013,-0.05360312564493583,0.06055588963765283,0.12798478109757536,-0.19689621260924509
83.89209747314453,1.0284042358398438,-0.012784442347275077,0.17737876293560456,0.2995987436161309,0.005009305491531061,-0.03915153109955971,-0.0378453964321827,0.0049416066857036894,0.03272608776055124,0.20306147373992306,0.1094632048768648,0.16172236843874155,-0.2479742487840854,0.05074031957531336,0.24664931224444156,-0.21362338669059902,0.5080760263648001,0.005651807001289762,-0.5989739550813333,0.343849711454556,1.0164734122062997,0.4050631249099849,-0.9842978129953258,-0.436175802077224,-0.22064105458990652,-0.3572973679467139,0.09416183394616921,-0.1061392851740358,0.027463066492471596,0.03258358155915457,-0.2984831663600201,-0.02289837748166383,-0.05426259928776123,0.007878871247926161,-0.08333292131131101,0.11477484794877375,-0.18555508121600336,-0.316446467674327,-0.21867844721262175,0.18618601301829713,0.10265553726450229,0.09057201896371639,0.34963407705506466,0.9950275280445986,0.8805552463296871,-0.5463325649424728,-0.3400173425528106,0.041559220921644414,-0.0807281581671908,0.6210724702774656,-0.08406654175399006,-0.21205200916292472,0.03132106828936948,0.025689412797974452,-0.19792498459910965,-0.05544678480835242,-0.05026788854856143,-0.04833920684469481,-0.006737877615674459,-0.034535759888076244,0.04501070308956005,0.06439304177918337,-0.023177459777131152,0.04710699452152648,-0.04702748212337334,0.007641039606639811,-0.05950347606784255,0.01863068919014514,-0.030858110596892786,-0.012896470301407087,0.057438495758418154,0.03520894245916377,0.09497349111473148,0.028544038921855863,-0.038066350843530376,0.04792348629434496,-0.030939625806813725,-0.013214387977869904,0.04964504463828941,0.01035036979159907,-0.08777300957136083,0.05951844262633759,0.022587697539230466,0.019155340057360696,-0.022331498493868687,0.03296557949909784,-0.11783904905202702,0.05153901139869921,0.026330824819352953,0.00906773857748784,-0.049384814409485916,0.001681717284407691,-0.022312500202340185,-0.022332951354534683,-0.06447458985650517,0.06326916216243075,0.18357411325648632,0.04052520859750434,0.21130545264837894,0.004318916875406477,-0.03759927517703429
84.92050170898438,1.0194015502929688,-0.03518393698489584,0.1444675243844064,-0.09783048803157274,0.04821167949044221,0.007565544695853702,0.08423025137007964,0.03157356380339291,0.008395528345329,-0.05005301590048509,0.1205259869948442,-0.08769514776762408,-0.022597006364041924,-0.35828780420344564,-0.09898605008163128,0.49292748294124955,0.9098794821723872,0.2853203846008096,-0.24265541734455212,0.17880525812756579,-0.14559830091988546,0.19812972855770491,-0.029593149756851664,-0.007937408297004848,0.02808038577805092,0.04686883443458328,0.06266716382397915,0.014912539206689425,-0.00924125534657081,-0.006831857290685063,0.036766733326952204,-0.0199019254990044,0.005106722226366777,-0.061084684752025345,0.02658944512385382,-0.016657888719636773,0.044598836173492556,-0.25146640468615167,-0.13855256545486144,-0.057686844933939205,0.7574209338118301,-0.17814007183397942,0.26247735247787396,-0.03820980724401265,0.04402227058019799,-0.2563806871275455,0.09606416953373825,-0.019872100837127905,0.24474053708099788,-0.4897222268209912,-0.020537848395431737,0.1632183195510943,-0.2955099682487288,-0.3120926713301959,-0.16904902921216275,0.2396395600050165,0.054380021068140855,0.025692261195475838,-0.02408836612921257,-0.02131951155699836,0.019666531272029157,0.034808133744065044,-0.0409258641394677,-0.046832139287277245,-0.01856963329099813,-0.12645713534068737,0.04752185021770827,0.05159315828875881,-0.02107949065464204,0.07404341507667278,-0.03059955225954672,0.016050251432112746,-0.10897750765492933,0.1127116643664284,-0.04274918866276517,0.0539178593310139,0.09404334296147851,-0.06786389042038657,0.019635274425365914,-0.050593617497179645,0.04634713789066666,0.056010883963678114,-0.009007603554114637,-0.13911778892411514,-0.003928174085875674,-0.009988436251856851,0.08829020118450764,-0.048541889374446416,0.02452256179600025,0.02422426373423099,-0.01243488532445601,-0.02259760789611994,-0.009538335303301358,-0.06564328227952353,-0.04391773780022641,0.01600833113856261,0.00795751980667754,0.0587521301199353,0.10534507757244566,-0.08333217120111983,-0.07176016149902312
85.93990325927734,1.0287933349609375,-0.0673814554382981,-0.04205576508034977,0.05107887430876046,-0.03871350862488845,-0.17071596940472977,-0.042528816827414516,0.12273771735910824,-0.030601427940155176,-0.06679995272197944,0.07212175477420736,-0.08217015333041587,0.027863171427354547,-0.031391663896808066,-0.05499826783411545,0.19835388692680683,0.8980060984887194,0.7125880909041753,0.2469251818201857,-0.13937928527304877,0.21107313397927494,0.2042805293048778,-0.30983242803780014,-0.22763777605744095,0.3073642396319282,-0.5211432619828095,-0.06158626353844843,0.12975211103256007,-0.1014127876573619,0.20950494719355298,0.036699195316970835,0.09856046918301253,-0.04095408076556802,-0.002572226855469942,0.013696892823624365,-0.026801912213468466,0.13578560076306237,-0.025178688776942994,0.01205441124332924,0.041210420428670375,0.09859426291487994,1.3863337587064455,-0.9588434204175034,-0.002919692839920135,-0.32136053404527604,-0.0030677367882588624,-0.08439788257098205,0.01389461193007982,0.0067363838694950275,0.22960675947759374,0.22906166147452,-0.5224496643940286,-0.26612805236830384,0.01372670254703178,0.03648798684583042,-0.018226246209510383,0.013790223086004982,0.053186544434759744,-0.03047680305091053,-0.023828482087586134,0.017972116313038123,-0.03003553131104032,-0.010387081678606667,-0.07163046069770532,0.05975986196301118,-0.10922542113238566,-0.054772712006556326,0.08401125613344126,-0.014625150350220967,-0.005463053704255427,0.09768165253698195,0.06046108785432142,-0.04054077420065436,-0.040806392447662466,-0.0019253191390484897,0.010748136090994221,0.008757570828784473,-0.07377867256080126,-0.01644365730158283,-0.08152143657637308,-0.014135643797991246,0.027090704907245078,-0.009122423655794949,0.05500600238741768,-0.03536625742311125,-0.0836875037424143,0.031540312817978165,-0.021068371050966046,-0.03395542484654282,-0.10806643359520424,-0.03338460077223724,0.10158641539400595,0.018492221679252324,-0.09796433000960472,-0.04896369857623836,0.04754017514756213,-0.038770686718204245,-0.08207177030904872,-0.0718215296116339,0.037124499575342355,-0.19806340157024577
86.96869659423828,2.3571014404296875,-0.18809047326604728,-0.020342813106652605,0.15183630354998826,0.08724636020031548,0.3306707196813696,0.05100484121730332,-0.04579284948068401,0.11148828948605467,-0.053338421953949486,-0.10695952490408499,0.014386722101828219,0.05423729717554299,0.18548112371880177,-0.08204447220521174,-0.2051345903513157,-0.19545223598789854,-0.24795971842236864,-0.0896325497474654,0.8490500108432083,-0.1755034183057698,0.1554172182388917,-0.05311781116972496,-0.0435559781550243,-0.3668881918035364,-0.10216866360773239,-0.00454793916773706,0.0748266767922958,0.05839182435032335,0.02583951881458036,-0.13190248966751061,0.14354275243389825,-0.08067565039687441,0.05463770133044131,-0.019995240704926073,0.07584788186080907,-0.13150950665015476,0.4740341237754472,-0.013792716268238619,0.010168475932393742,-0.27067741400452305,-0.3377468828750806,-0.1985346626612115,-0.013214285947513074,-0.17616250117710644,-0.560639885159409,0.8676915067646678,-0.4052816554497315,-0.2199328059764024,0.08722483277070399,0.09445932238404758,-0.007624685916860621,0.0690737915705586,0.11353469720277803,-0.013877431498830564,0.05375140898296236,-0.021698378584477505,0.05989349787989751,-0.024474033621302283,-0.06517132773353056,0.03291722046985162,-0.12254597414951961,0.009191728985377106,-0.029826579036669555,-0.0912757280328904,0.016093445270481208,-0.0971696940849695,-0.004013232030479805,0.08108623709028108,0.021723018274749366,0.06643099122876064,0.08706656979489022,-0.02306593573968073,-0.007583168750657939,0.01603808348277267,-0.012689954524148395,0.09044966629584972,-0.017555183382907073,-0.09887322653658791,0.024949380409842185,0.024347508977194208,-0.17852623398780013,0.04194257782959834,0.05735991553997671,-0.07260727681365926,0.03963516117959326,0.043370949311771705,-0.022590447304968533,-0.05443559176149844,-0.09265149767667734,0.01630909090487233,0.04396093737211236,-0.04582360973438521,-0.060400765727675866,-0.035180291634303335,-0.01785328063656226,-0.044532110561982384,0.09440765665925048,-3.4002509132241565e-05,-0.12466023629650375,-0.07586558278871106
91.45369720458984,1.0385055541992188,0.11077527743068277,0.05099129762951497,0.20112081967994366,0.20664066783244237,0.1401104858876639,-0.08840459678182397,-0.02666740859407518,-0.11873003098576068,-0.0277955180127564,-0.0017537234402702428,0.022192140194342083,-0.04917126905243161,-0.2664584605597299,0.146837905342447,0.05817073220934378,0.09062992053373989,0.10530626549769902,-0.3082556677244127,0.42408398297603844,0.3231786103850957,0.07775213033322846,0.22267919123148203,0.11828899302669058,-0.49025166657691244,-0.04550518089339625,0.17348096902251614,-0.007994013121577534,0.008726633145881766,-0.06196364033582903,-0.05644691520595844,0.05243453443617413,0.13220494641487612,-0.007618164063687857,0.029611005347334365,-0.14612016647250517,0.13944565422526958,-0.101259082202378,0.12928240804437524,0.10417265763681277,0.12188138194929897,-0.8229200958714344,-0.6106689057426157,0.11406166574937891,0.1177859073451287,0.3669458611576336,0.48199447335940016,-0.4696832746727764,-0.47593357886610793,-0.04327586171773966,-0.2611927147777096,0.4829705180896957,0.06311306397444483,-0.08663580785887805,-0.15090405754509073,-0.19634230672212089,0.07948713377805074,-0.07032281266919801,0.010360843667226515,-0.06314773114047323,-0.01636176575575745,-0.013770799761364319,-0.02798606634579881,0.009897632582733726,0.008178662728135912,-0.03156266756172222,-0.040058872156620205,0.04652110972792205,-0.014606922819041048,-0.008920535689573485,-0.04960073282376688,0.049658795144580034,0.07025983724786784,0.04207059670917052,0.0009818854989724144,-0.016292421409763922,-0.03693619137940234,0.10016060014240435,0.012970673876476314,0.0876828816511272,0.10433434049319679,0.09714745528675411,0.036435853661939466,0.015146775934666932,0.0804648532984755,-0.029233956844608354,-0.1380769795171014,0.06815976876753849,-0.07836996340419132,-0.08712403643420961,0.21193039556781884,0.12189211742097726,-0.12983788777987806,-0.11619480933108049,0.012554909071779965,-0.04255862556800598,0.037472089079157056,0.1906048448306401,0.10493712536383062,-0.00725094318499829,0.12224962794125835
92.49220275878906,1.0188980102539062,0.1247374463533134,0.24147602362709666,0.011259212640534278,-0.035753955347324756,-0.14199014454161019,-0.06572834278022376,-0.0035251246831468717,0.0908430890258725,0.029523560100552477,-0.0574785888195416,-0.06346936040204683,-0.06348090370826157,-0.6145047968145613,-0.05815354619681187,0.4107677362338344,-1.082241240037547,-0.4593078924484433,-0.6450821511698908,0.44268021053701595,0.6247428581179549,0.0727620669652935,0.6696265337029305,0.3839559066570092,0.5448537489478869,0.8198457315801647,-0.16071784417133367,-0.2030404678086252,0.017183474083779647,0.12530425804213685,-0.15064128736235957,0.02988546096542337,-0.03488113837736089,0.06915940564657869,0.09062815226882286,-0.030146605519728132,-0.09435592678703791,0.5327488162023488,0.03250885090766416,-0.5619268225670867,-0.48935457508032837,-0.001120043547165106,-0.024616386010227642,-0.5694185253503796,-0.2856146402981251,0.8844708873536673,-0.5749665011262131,-0.4899160697825934,0.692376093427767,-0.345896205891057,0.02360912842278156,-0.03651996715210547,0.13696210527249653,0.16686271207551875,-0.030208035919962555,0.03939742631418979,0.021491268557312888,0.04825710438132327,0.0718149296274969,0.013750805587680512,0.06652303816953928,0.010520699856820862,0.03783789407510475,-0.031805384315400184,0.0448631107051716,0.07637387036897292,-0.0474621421034723,0.04422033060799939,-0.025561583567973604,0.0031500393996498864,-0.11869117430242355,-0.0929671532360612,0.052817473704013324,0.009056762103846552,0.017485650306376447,0.03679017856302198,-0.01617326892973088,-0.05675214671001644,0.04169784797273666,-0.013636689564720516,-0.0011969073923984311,-0.023827717767276376,-0.08625880250898625,0.007490627802143308,-0.048065700200160016,-0.12318656608722525,-0.038465623055963266,0.04768076472242698,-0.013077547928075724,-0.13190852622671967,-0.06302865844561517,0.12234816928982807,-0.0601415794522212,0.06572604295561345,-0.07493447000263677,-0.008541016725296184,0.028484924182471564,-0.04144275961946149,0.021564136517985166,-0.017608160803572064,0.07913267841954602
93.51110076904297,1.0384979248046875,-0.05651690958730628,0.076278338636385,0.015192233087546431,0.20702357791883647,0.1509760458571507,0.0321465356782011,0.06302380138410492,-0.06313143257714687,0.05221270554536766,-0.16037414753178533,-0.049458628051892474,0.10998103992170724,0.20511089373053748,0.2029436716641852,0.28092920697575574,-0.9009833179795812,-0.3143466808704119,0.1308071506472815,-0.03827355803618871,0.13010560177654634,-0.16819865713656787,0.2820021239908612,0.8953499953266382,0.10938797735713873,0.10386266528030937,0.035454844775037866,-0.03139760430419562,0.019126820861511594,-0.1091920070516457,-0.014027169658646962,-0.0872090966459764,0.025147171856707066,-0.08568784314334943,-0.02746442083791112,-0.11074217688683591,-0.05121068955646292,0.1360608391199075,0.08566461057817143,-0.2712757981004214,0.8472625596801244,-0.22003200816658436,-0.2765513648386497,0.5302873902319216,-0.3902679374959078,0.7709467275470725,0.15924319027335185,-0.16463935111540656,0.7308048463252214,-0.059536265985612374,-0.05782588915798002,0.07286576563175776,0.08633369994721612,0.052668677627960764,0.04158700320255862,-0.04299259543756764,0.04110481159635684,-0.0296950397712743,-0.05413390039655009,-0.0044053495612773,-0.037215514116222065,0.034820826778295566,0.04762947436898855,-0.04891618770056751,0.06139777176609857,0.07057819850303558,-0.03676425306676929,-0.09909282722810192,0.031401068345783524,0.08542790764429824,-0.024199722697561925,0.01665078838184624,0.01461064745701196,0.051549327268202674,0.06370190020127442,0.072847359145676,0.06493146832338254,0.030127638106086412,-0.10005486272106726,-0.17390232899884567,0.08937884101884598,0.041803887298432096,0.07954131608204079,0.035614829178782344,-0.02343823420209916,-0.018188102513409247,0.1364866552256834,-0.026054344694710862,0.027983108758926928,0.0613276326797535,0.013996149399434594,-0.022617651053032012,0.01469434539766533,0.18392626092519954,0.018535311500470497,0.03341600802226431,-0.05356795354727905,-0.019205842297875527,0.01180419031909746,-0.14353608920421654,-0.04605134199017749
98.91459655761719,1.0291061401367188,-0.020077144017226413,-0.06303888252787344,-0.036988578060880115,-0.0014078311867593524,0.031577357200768146,-0.06343755777539778,0.17056098998933153,0.019010385309066624,-0.0008148019710551816,-0.20738157766313348,0.17809455714410838,-0.07549618987655415,0.4758795642607131,-0.041476392126079994,-0.37389692697330973,-0.48555121199477147,-0.34748937315156336,0.1284542046023638,-0.06829879087879205,0.12368171723082011,-0.1114721218703157,-0.5906755426866355,0.04767107022633078,-0.30450751850416363,-0.009196699397093519,0.07139235968986676,0.023807449652014142,0.021190769560540584,0.13718814541582947,0.04281023419994212,0.05714846368713146,-0.1284964058629787,-0.01314602907755988,-0.07495197500055331,0.005292154662344246,-0.25988740672452243,-0.04448193449230859,0.2410636496738238,0.25553166320538695,0.018228193487550073,-0.306639658864732,-0.439024627974698,-0.7669061393746106,0.07448573497610501,1.5155712648568702,0.19475452552031491,0.0784674409527486,0.23349314625026119,0.05179062965238088,0.16462037572968688,-0.0010980677793165916,-0.12640211511381308,-0.08302147142866564,0.07194102552596844,0.08656573434444782,0.05328379299277816,-0.04502816266356493,-0.03083487084318664,-0.029867617958266583,0.03357842134659847,0.024652893939690255,0.0017387739951776893,0.056860029113091015,0.014977062980748648,0.003952810577762703,-0.04551223142700772,0.008407534939342327,-0.0354076214322982,0.036219736249286635,-0.06586302974933837,-0.10297861808899209,0.03791180872595221,0.025900145362603755,0.04596199046172082,-0.01063879314837564,-0.0864581251047472,0.08052448750189589,0.10297354244490453,0.18020333703716065,-0.03272089593554334,-0.08563683128477484,0.08143604872358795,0.04329049539767688,-0.05727190149592997,-0.032880595388585385,0.09588259323225784,0.025092868844577062,-0.13303703732021582,-0.044744777293595925,0.03856257065385518,-0.013738123043560386,-0.032140415803240195,0.11003088022501006,0.18159362613081692,-0.027267035070145048,0.11604718136929801,-0.008406023783997421,-0.013756317135840204,0.04376080887229959,0.04678513139585749
99.9437026977539,1.0387954711914062,0.05552351932670932,-0.1074987318889052,-0.04155838434093683,-0.04554671646015387,-0.14706433690025833,0.03374626981776742,-0.12082699454643855,-0.10823782826717059,0.0870287751465651,0.11215748965207475,0.005386466612454795,-0.2727249105933666,0.2352044169282846,-0.15033907237411287,-0.12430172993389497,-0.9613656892610515,0.014722680685472375,-0.1714854103740463,0.0326607090487667,-0.22013075680688762,-0.14717061578036433,0.016266175126169194,-0.3158579462798907,-0.0011501485091239805,-0.21248750368261865,0.008605742782182456,-0.11672761942377781,-0.014481887275856177,-0.05528251533783255,-0.09644546298496745,-0.0333914496839745,-0.12486242149099558,0.06665364713504576,-0.12006692408580852,0.08396775971309238,-0.04678709321793214,-0.23725164824551345,0.03991606303760263,0.39586255304637175,-0.6010775842186984,0.4481998407342135,0.09393271709249833,0.4085753824212182,-0.2762743846200782,0.20444518589024135,-0.16608340683273207,-0.15516736161476843,-0.5299942672164752,0.06787165818304258,0.16762810376563192,0.13177849007593498,-0.10160892387030318,0.11906551017885182,-0.13094542207427237,-0.04956533364227667,-0.06569224621270683,-0.001355570488892349,0.09229244403463534,-0.03504125224658281,0.05803651443048281,-0.04611211645228364,-0.005795398052744868,-0.009741662049787207,0.08290861484687267,-0.09221649989731903,-0.06454302089939695,-0.03545135406105752,-0.04056049542111466,0.059532549276764865,-0.06339837631753724,-0.02821725226745406,0.030392270214859896,0.015172500073525013,-0.022536646467298704,0.03126713187167859,-0.04566544439452787,0.0027899584979415026,-0.03739701173659479,0.023584743735973822,0.015840700233734593,-0.015405351132483106,-0.10001152156476074,0.019706154046565658,-0.06824913007930335,0.007006458507057521,0.03821606003120545,0.04051208711930838,-0.03326282012748328,-0.06237057029770348,-0.02768008968596429,0.05222715380187623,0.018425090839699697,-0.06856365151283576,0.16937500760427146,-0.0007176519216614274,0.17269777887629234,-0.038387265169296095,0.013131403379299939,-0.07220732982295144,0.02650211950789179
100.98249816894531,1.038604736328125,0.03717932623101271,-0.06036779444984281,-0.01947798484914307,0.05325803397210223,-0.09123454923208339,-0.09319300795465446,-0.03713915918873063,0.0655825683819102,-0.04730161397145629,-0.05452483278689921,0.013308022677533667,0.08807518116632047,0.12616010108175607,0.5205755767857002,-0.16902459820056084,-0.07436780190976802,-0.03812709021433616,0.15874316606740715,-0.1310864655606707,-0.06115698986252871,0.033109561963224676,-0.06107080483273783,-0.6101566724017707,0.07600256226807735,-0.08557738413702867,0.13767463281699283,0.08374403258908564,-0.11860848228770172,0.11143213283471202,-0.04955433432697641,-0.029405321220776697,-0.05411386047712249,-0.013414538473822311,0.04215524064244963,0.20591716120710013,0.21054598486731638,-0.015375916997991219,0.4798675110362947,0.6090541429958565,0.24027346285271772,-0.11238118531658274,0.7834845392514072,0.35220447229054974,0.31700423089399804,-0.4230571588631381,-0.15484697026517158,0.19268556876715287,0.12649676139433935,0.08924774207659128,-0.10323477993695103,-0.015602529910963003,0.0308379546937389,0.14989872002489812,0.030712279728278315,-0.08374043836396966,-0.03629363346341246,-0.07780255416678175,0.10473116698219952,0.06664190645084202,-0.04431197113039328,-0.06508534503240757,-0.12431614877762702,0.2872107619239115,0.09520874850987707,0.08907356939515483,0.02114276706629012,0.015918616905155065,0.07656531756490909,0.06539467932606499,-0.061498559667455606,0.008400284220620988,-0.030589600328972788,-0.06668438578256837,0.07889368470677195,-0.001492429765842946,-0.11480420681217442,-0.16030923911257497,-0.026938280501312376,0.0020093720855733632,0.026475626652030827,-0.006451013198162561,0.03245403651011341,0.030355581267389208,0.019947863024826006,-0.05512550038297564,0.05407346601909774,0.13201624872860432,-0.04118862833085806,0.0188548422714309,0.22847047305781115,-0.02237682654532525,-0.0363667618065917,0.03790598430405488,0.0059919489451474035,-0.010406539884764494,0.11870956747224688,-0.035134635649054086,0.07017052635969105,0.125671233283072,-0.13194889714694494
106.37650299072266,1.0387954711914062,0.25968670460105797,0.034137953570763956,0.02556815429614545,0.10091016073722055,-0.21004188425651196,-0.0845290626844809,0.06919652641806577,0.059021279357896084,-0.03543286456426516,0.06736429584703461,-0.1430124126714597,0.11666361297490216,-0.504364643068397,0.4922520244952117,0.4486136835008001,-0.23617010719033607,-0.19553657625786158,0.0015566289194285942,-0.2508306436663584,-0.11174277908806797,0.0850492999093537,0.2969795768781385,-0.2569916124944966,0.12484221500187831,0.09420047351815915,0.05547209440229222,0.04681751449430691,0.06742273163490137,-0.043613948429664276,-0.1080956832696877,-0.03673825009714299,0.08023141189880684,0.09755100941604691,0.05999670034415912,-0.3843190877974522,0.030202000791676474,0.04337820439160055,0.237396932186928,-0.0012676517126333428,0.24424208927186092,0.3056593738064976,-0.36502550279679635,-0.03993464178132661,-0.15501830864718644,-0.17092582293365355,-0.42670357189518593,-0.7958620558539347,-0.1616840056466881,0.018786486659265786,-0.04603259023080327,-0.26452549821324395,-0.22133019252540007,-0.14528060664045658,-0.008410459645013548,-0.028760851659515245,-0.01301761505636418,-0.048816728234758876,0.013405867548627822,-0.10168207063427956,-0.046819372783372226,0.061894411482247724,0.04239389510541927,-0.02050815648086076,0.03455409619160832,0.04131541743241921,-0.02690843938233578,-0.023068871534016794,-0.07745950186956868,0.05169856931320752,-0.0347460130232083,-0.1409720051196302,0.08428868636187331,-0.03056323749934578,0.03821853306899532,-0.04215284514437234,-0.08312859949371888,0.12352394312674253,0.020900837455051093,0.16196309249224294,-0.06452855688664902,-0.023357336969132933,-0.022751327189727118,-0.006387563752802737,0.09569208414063526,0.07008237457615793,0.010195725148766429,0.08237567504688455,0.01659940742253673,-0.01309182800771505,0.03285645958643365,0.0727963832655247,0.16102118550757588,0.13532742393409491,-0.0466775806798388,-0.13423702396111317,-0.11212703747391975,-0.012636118110290081,0.06562516104524348,0.31050058436789896,0.12776279654514588
107.41529846191406,1.0384979248046875,0.2686884715025959,-0.19194998039223762,0.1707939813617687,0.13889999146702298,0.07119034255202762,-0.181381766722199,0.01891151166698677,-0.10076039364068784,0.075958097942472,0.1567262230412571,-0.007950556718013233,0.060426404705585975,0.263631042582245,0.1857970765075944,0.5478772293211281,-0.6301209247354752,0.16522675082240942,-0.10414483452005849,-0.7746166580311062,-0.33642111221590854,-0.024492793056674123,-0.09687891164777704,0.14276659829679808,0.07451146767834582,0.1262616599767354,-0.08903701308959626,0.057682669503857524,-0.05755419228480038,0.004360443128915842,-0.0954971558372713,-0.10881291067680977,-0.02831248963585588,-0.048018858671273076,0.007780166779610656,0.1162495447536816,-0.09901969700577225,0.6203614506798385,0.06179898428532614,-0.4047129648100914,-0.5313510752693011,-0.2881817633073078,0.6646098549847882,0.004210969699378758,-0.17235875091463515,0.019869097936994165,0.5993823618524516,-0.46504672711251394,0.32295710034971536,0.09582340612400056,-0.00675835115761617,0.014566631501702548,-0.3203283893387089,-0.0981591235155663,0.13392576618164193,0.06380284517690588,-0.0672438579091913,-0.1770764740682264,0.03089378968518741,0.03516903662970503,-0.042038145212480914,-0.012302753891223869,-0.06867041627609578,-0.04250028740188092,0.03972889318945728,-0.07792337251852414,-0.00017093088696324907,0.0004540104728263106,0.002689983772834019,0.05045232707220272,-0.04050557429996167,0.0695718660035954,0.06700631133649522,0.019722282816628696,0.012275103916951684,0.07487894198302036,0.06875791614294233,0.07672851148365334,0.052625976479342924,-0.017183263745822144,-0.004823488048598057,0.10932373473157893,0.05900948121959535,-0.06786264657210929,-0.02020826766041398,0.053500477363332834,0.04997453876424919,0.0469420836783872,0.11243518860186383,0.06021397589117966,0.008841456554227576,0.10582626210473091,0.05870790802781586,-0.008375555248921761,-0.19696053483218937,-0.05368021624335874,0.07802529838838755,-0.1560923341463091,-0.19049189243561243,0.16107864225400872,-0.24677890168773145
108.45379638671875,1.0791015625,-0.09710582757988886,-0.02140987486183978,-0.05295081669092,-0.08405386361587769,-0.07754938787017829,-0.08007500901998651,0.05031583381122351,-0.19411085342879955,0.046811390291090105,-0.12473123183205884,-0.12509583041426908,-0.06121061810956175,0.5060606395009913,0.16457242282419252,0.12846800562625685,0.26100979570531885,-0.6463023154339419,0.0654800819506725,0.03261741438395899,-0.7741475357748389,-0.11210102778683793,0.11531554108880504,-0.010739653823872907,-0.06829117937670923,0.011264881525211745,0.021223474144526758,0.013691682212974402,0.0031305819982382745,-0.08793322998458641,-0.10384935062850505,-0.0042599511832801164,0.10779657738528434,-0.018906489984060776,0.28196712534444773,0.10483373037754302,0.11583576617083384,0.23499137418033894,0.16270559650363758,0.05957395643421966,0.14882168341774543,-0.19140258941507865,1.6524649395429047,-0.12126226240779031,-0.8644720335214365,-0.25563851659964304,-0.14299943105598012,1.1607833445114604,0.0704638997783887,0.35571387489247946,-0.5944315402512431,-0.19076870886068306,0.14812538233598874,-0.27998487522070487,-0.07670289797926308,0.06616532508807275,-0.03452177189211854,-0.04112167419459415,0.03778514599277334,0.0279933640020241,0.03799570251730346,0.034985190573278174,-0.005000402631782995,-0.041715622592251006,-0.04256636421881397,-0.009444379423386131,-0.08076004825664727,0.016167669579404922,-0.10405191323421539,0.002439776057465615,-0.04721985529350231,0.03531520470086826,0.01489969991426792,0.008211068028637549,-0.03171973054901988,0.009993186674865573,-0.007810724877108244,0.0029927901168215515,0.005939427230860855,-0.0958296045351158,-0.020762425719575886,-0.001516267052648742,0.005531902250798117,-0.036480937198806566,-0.005884495214022454,0.07527168132830045,-0.006041921550342458,-0.10597256111853345,0.048885002708174606,0.013118291441284893,0.09477034275783312,0.008636228778615446,0.038952895240979696,0.023772975227592433,0.01466165744790007,-0.0006873097784734108,0.04182898176836733,-0.08000929882593602,0.018081653535723264,-0.06837688803179395,-0.06722210751843152
113.9375991821289,1.0287017822265625,-0.32713815920928513,-0.08090802939949725,0.03937113092025533,-0.02516843034202766,0.15368648120519807,0.011554472278612614,0.11795611153649768,-0.02381378779399794,-0.04490708623298541,-0.006176210298248587,-0.1388580321210958,0.16555927007532734,-0.5074977892219109,0.776982675900962,0.5326774396880626,0.014446520427566945,-0.2604910749589474,-0.08071462721464062,-0.6056122144145367,0.029339481494879926,-0.42127310815087343,-0.16273688855457383,0.4580899588245457,0.4267159145183835,0.030123966961521264,0.01172275921374857,-0.015870356596595192,0.014835375086088414,0.03519952459053001,-0.02016996623319249,-0.0709278240506169,-0.0024091091271687985,-0.11065571212802994,-0.14398101259135507,0.149799265936669,-0.3485379606688632,0.5615761718632978,0.9124696266609851,-1.0526684632682524,0.5618831331595571,-0.21726164797523162,-0.17024192028796648,0.3220726895486155,0.4791321504547242,-0.15569755228901766,-0.3785502397541145,-0.19210066581922103,-0.28321551563079395,0.22258054964409132,-0.256576875594437,0.0579249227070088,-0.04865939170680442,-0.06216796440480344,-0.09409774065590164,-0.021720506055962915,0.05610094012754081,-0.022228796560387287,-0.04785771791359732,-0.0021357205078715133,0.023844770657494303,-0.011739623029596002,-0.029314395984434558,0.057719156591438434,0.043612457445416045,-0.04804179635853758,-0.014106137725889025,0.008497682212232563,-0.13499802724832957,-0.11248117284789681,-0.06991612911185206,0.14731504521163982,-0.05509050358658894,-0.005203315301828981,-0.02542895128760886,0.06555779465984807,0.006521459595165381,-0.043253789868267854,-0.0216584327383161,-0.027311390584679955,0.0014303712323849773,-0.011595468148389555,-0.005348175084477296,-0.008237257851108317,-0.009409794811094954,0.042268660439302684,-0.018829751636577595,-0.01231694980464752,0.08922167962292342,0.045253070456617715,-0.00392695550846733,0.024418179409161106,0.03535605577292692,0.1215399946305657,0.002565947796609273,-0.04654898733274186,0.003926311525977207,-0.011330279954253328,-0.03604735400793364,-0.16302989428805761,-0.10145804160954369
114.96630096435547,1.0291976928710938,-0.10406710679382997,0.002299506898743477,-0.15999722558718046,-0.07858402965707187,0.1154781420675914,0.048392312344375965,0.15343629064619174,0.03765235620472232,0.14478758499681713,0.04225379653363879,-0.028075736060570476,0.03073709353276563,0.3056669526351812,-0.2917750555180795,0.2704382182855269,-0.06960533837305061,0.4221746607633562,-0.15417950640952416,0.24378802545946338,0.6207726047349839,0.3067040733290493,0.4327298897117306,-0.5066836136260966,-0.10806237689313326,-0.5405363773269227,0.016195635498650194,-0.10551703828031175,-0.023904867655900747,0.037105792261977105,0.04735948166627767,0.007207540212476923,-0.13860838448320642,-0.06940834309316184,-0.24589918423257037,0.05415171068061949,-0.20741728547686883,0.019221251566139953,0.08698326564787562,-0.790452198254823,-0.34939562714704875,-0.07927456710460225,0.09713381338534485,-0.2248424228415268,-0.21759960095723935,0.6608763164207357,0.452456598348259,-0.19186718374883935,0.04764046712575859,-0.17963968233966907,0.34447664531878186,-0.04199843093025283,-0.21114521172899717,-0.1455787265224883,-0.08038378515644645,0.04145286581491764,0.045521842681572666,-0.013879697980229436,-0.007931792626556645,0.024370865187750616,0.06419203195804953,0.04828782799051397,0.02720275278835645,0.09732535491299141,0.045986160449267316,-0.018009407152295008,0.06546022750817881,0.019496067049048337,-0.031162981631426577,0.06881994425916017,-0.017963675571562858,-0.02816799886949929,-0.007631022168747837,-0.019657314588635177,0.05889498090393,-0.0707865625183988,0.004045269572506011,0.07598920848825418,0.03689993359177432,0.05491053678249241,-0.06517724183459277,-0.039688813640962564,0.07480906231342388,0.07806079093696922,0.013175186855869254,0.038218059326903725,0.030737768205625342,-0.08668440049723258,0.0074874882941263435,-0.027816162151520316,-0.015801697540866064,0.001584054312660746,-0.021308049680987318,-0.04130039007143346,-0.0041154522600651295,-0.01461490026656103,-0.15586552235065715,-0.09089469165309233,-0.0667615777158999,0.1936339308338508,-0.14197324492434457
115.99549865722656,1.1186981201171875,-0.14381601556729018,0.07403574027487828,-0.05590397172787314,-0.03781167259688938,-0.01618116302970845,0.025799652762866734,0.060710130566810475,0.005848751968908526,0.021266082560235697,-0.08064692533763627,0.08686041098037772,-0.02585098877693815,-0.11885803053441464,-0.06155626520717335,-0.3139192543354391,0.4112313824087509,-0.227931922552353,-0.42741456784740434,0.27683613908159965,-0.14161667311021375,-0.07909924414621611,0.030424006669407783,-0.0695491425125018,0.4236989061331776,0.3373887848545471,-0.01745555138115256,-0.10711335931146139,0.026665187068718586,0.118753364304173,-0.0042082316402368945,-0.05209716708226231,-0.1326722542642157,0.06546156193583168,0.06419779685763909,-0.3279469527545875,0.16350279392130318,-0.1307105588084005,-0.3222703104510979,-0.05317320452875568,0.5915842431706569,0.04286371820373107,-0.1133968500762484,0.1127126598433705,-0.011252211121323075,0.4165710868424775,0.4650217853560627,0.5471718741219317,-0.013380079089254732,0.05285790951227966,0.015960873530635675,0.01988803740903458,-0.09127787217855199,-0.06508548437705597,-0.013123127278787563,0.010923179413483513,0.039986806097292105,0.3188248374683747,0.0815298541150542,-0.04857609946874667,-0.020344538323532217,0.03115965302218022,-0.012828366303683046,0.019421736612869105,-0.022393017775607673,0.05777272648839375,0.11973738017205891,-0.031311940985646144,-0.033586944059940685,0.04073288254773032,-0.028812414633894882,-0.018662622787723515,-0.0021323822115350763,-0.06006403105895908,-0.03142362117625046,-0.03405068039123546,0.045070289031398564,0.11050259940781633,0.0607655391556518,0.039759657968044815,-0.008919027292032922,-0.04418852101013007,0.12286274272463575,0.042968864193576636,0.02727735048079357,-0.0027847596443878802,-0.08101545246229733,-0.08475968333104578,-0.11011350655495382,0.03934912971703694,-0.04253596726407006,0.011013794506648323,0.1381865991541307,0.14787930750015255,0.001851593348033559,-0.026746009644791006,0.042049431415418864,0.00815120768100712,-0.05592015207763354,-0.08553198364363532,-0.01332844786884825
121.63919830322266,1.04840087890625,-0.020176027584178774,0.030960360660355034,-0.08637996504799691,-0.270639814075217,-0.22337904646953693,0.14257455647630116,-0.033356327592666546,0.06956227969098355,0.02357758348469892,0.08200461991936628,0.10605756593773745,0.015103997804740713,0.10354804820598731,0.23457778402839208,0.2501352611375285,-0.5621450641582932,-0.3532143004816275,0.052004689870027834,-0.09139839345805831,-0.31290461394198776,0.29486414978678116,-0.39293835325144955,0.028368666989189828,0.16357867183079455,0.10514876780812121,0.2931797951392473,-0.03670328920847101,0.07156705632372459,-0.02424863702321792,-0.03205320733813544,0.05107872611062431,-0.004449469932593194,-0.23121266714089123,-0.0951768407301511,-0.000593061215909442,0.12947418070079683,0.13632192992027548,0.22119252389211913,-0.5516655566975268,0.4346663801954426,0.8158114219902872,-0.41987041321611945,-0.1796679722390613,0.602541774865815,-0.17751871671393576,0.7083915390366646,-0.11113629994454052,0.31549366748902763,0.16893197599322649,-0.09155645886423372,-0.17718576759270474,-0.4251750928230284,-0.3207755567720885,0.10728291984134314,-0.21973245673995678,0.06232128953912944,0.0067486837285078245,-0.008017987336880531,0.02149218372091703,-0.056249879555846635,-0.0237725100921714,0.006410879015124354,0.0011696113181862457,-0.10918422256358395,-0.046247740482744715,0.06094738337057588,-0.08777342780458948,-0.03782523351990522,0.039724465501984246,0.01935197435644838,0.08422545764727007,-0.038626787015929254,-0.01399436272699782,0.06161113586671553,0.058882283382777546,0.012837258175635028,-0.0024014942749713787,-0.021761336410163395,0.02496774750027718,0.026926934416295553,-0.02152472494010228,0.1023274247034761,0.029658812000633084,-0.0687900761614288,0.011940153599704847,-0.0753426555860952,-0.03030307139477788,-0.07842923235606311,-0.09335219613930923,0.10052725505127794,0.08205654057424543,0.04680110455751766,-0.08559062054798158,-0.14622547493411414,-0.03949277281046604,-0.05941516198460957,-0.09772563121513003,-0.07458260277504905,-0.25301132882084865,-0.08989575759746236
122.6875991821289,1.0784988403320312,-0.07883783979141824,-0.0685097025255017,-0.028062724428475017,-0.048270313590252634,-0.09713850343254006,-0.12711840200770713,0.15037284243360477,0.04399032522755594,-0.02064694920881717,-0.0054843863689015854,0.3488939615973321,0.2597157596954386,-0.05504878878844177,0.24067773155158148,1.281195062421455,0.3425353241651663,0.17035336232486958,0.0037779781778548467,0.07513392408805063,0.25544215605827214,-0.27603559765385727,-0.452749918455586,-0.02038969898002872,-0.09346722232528902,-0.3276796024888262,0.041197132307497275,0.028632746998857955,-0.040536638602271524,-0.010251545014915223,-0.06695655381703773,-0.010086185386519975,-0.03916974163898866,-0.008279419456476308,-0.053876992803435886,-0.21458964308925033,0.19567929320164248,-0.7319595656794201,-0.09805234511542811,-0.18453631312684649,0.005149763802361068,-0.3789270589939196,-0.1889087405579546,-0.34126514587455725,-0.01819773736531996,0.10582240178029174,0.39294229997671254,-0.0918846926460033,0.5041500728314043,0.7625526858535912,0.05089221862121619,0.18962271557691196,-0.1708123822555742,0.30324555547733667,0.011071047379253997,0.05024249221879832,0.01363181941174282,-0.013411208791972136,0.0059764623923721245,-0.018038573934494467,-0.04825229990578854,-0.009810886320721093,-0.04253665678634895,-0.07404149272278816,0.12042257698092154,-0.011300835720809515,-0.05462867043592733,0.03441311313581916,-0.038940847152599024,0.0011809457105146064,0.05172206478314222,0.014689410090941513,0.12859335271602587,-0.01847655835737793,-0.018873874512669468,0.07052274144820346,0.08013867516162305,-0.03415155840105525,-0.025565648715568188,0.0009438603197092338,0.04034296178938451,0.003993252677785673,0.004365666040706869,-0.11669698720686024,-0.024608194760918783,0.00563570474751538,-0.07798350223897298,0.005276816281074917,0.11390419908339154,0.007374462776066522,0.14634486847498163,0.04687801412054111,-0.010274485957941514,0.026827527558478288,-0.05161219822768073,0.11712068812119134,-0.030855301838364647,-0.057319922597288735,-0.05818751056625383,-0.050308374059385125,-0.13093850233210158
123.76609802246094,1.0790023803710938,0.016304358944601416,0.027631441515545224,-0.01814611435379955,-0.03453669906065094,-0.05779192413443831,-0.08162481513955705,0.008521217240431945,-0.02729156426960068,-0.10921752811255059,-0.9233695472275472,-0.10582894314106017,0.023478860529682913,0.14179064900500554,-0.022055552693515473,-0.7269463855124465,0.8725513245546719,0.4737181745033189,0.0008469666466201934,0.12221200148134892,0.324084455397056,1.1638132885625772,-0.6611278904541502,0.24718448824411568,-0.3302417128906332,-0.21596237223623033,0.01617013561301392,0.09682438044346248,-0.07100894437265232,0.11568892881386925,-0.005782717102700943,0.19085280352251968,-0.04024322267871205,0.061357167787660344,-0.0388468334225834,-0.25504973120719765,-0.1043220230116196,0.21092912718425394,0.5332382319512787,-0.04403415943906967,-0.3477332624718585,0.17018476066133448,-0.6432624817293833,0.1434123943752216,0.02269806213626348,-0.24996583156451743,0.2558093880826299,-0.37547265452588063,-0.1372736492159446,-0.008317638070645297,-0.08859180005747147,0.07590903171410096,-0.00750096534519765,0.08454043876643587,0.012694787238802862,-0.06536737938890562,0.08083231752431974,-0.0005068597772921975,0.0017830372914177481,0.02443921070534632,0.004930781420666143,-0.03555896046648712,0.028947275320282764,0.005670026985724892,-0.08430172419908434,0.01518005147986794,0.009980667018124941,0.033395965208885534,-0.021943785562483324,0.07921815323612905,-0.06138143445397554,-0.07467278476058595,0.01997948593222975,0.030835479312946237,-0.06319072984060534,-0.05774387880013194,-0.05085543918507761,-0.03285059989528372,-0.07728847413369243,0.022042638451036694,-0.027030429304922506,-0.1393294484369057,-6.892395855562423e-05,-0.07085460724125157,-0.06976239379521772,0.014699803853036765,-0.015100668896478615,0.01879672236210738,0.07106594573102956,0.10877808629396193,-0.052385697258568446,0.04141609115751314,0.06753597431354381,0.03343489442920001,0.021378322293521882,0.07664031513365474,-0.006995354124189921,-0.011172584282606667,0.13157377744341692,0.10391690733387586,0.006640301851264664
124.84510040283203,1.3787002563476562,0.009483529670326812,0.12435039744346914,-0.057298530053481546,-0.11596037499962936,0.2144304125640838,0.010887552713605794,-0.08103925604603081,-0.028207257357862895,0.013085741797012634,0.16684271081925636,-0.22600515215668765,-0.3223939996887943,-0.33906134251689934,-0.19923418134309656,-0.17066257782423305,-0.37220053232267125,0.028228458011646418,0.28215514612387416,0.39596559807749787,0.5135910453595387,-0.5883112036905653,-0.05501535400724012,0.46260892245976,-0.3199229844553234,-0.22975549029284392,0.16271915394858225,-0.106081441576448,0.02557852804080954,-0.011917254842670602,-0.25669240068362437,-0.08727834869737262,0.1003905429127735,0.10468045027170414,-0.08865475233385062,-0.0212996615089521,-0.011702861307935193,0.17802055540386086,0.1790307868961884,0.002546425495808354,0.4357218953099373,-0.13827523609630857,0.3602600302586862,0.18449034550042542,-0.0775520842494479,-0.24016296915467972,-0.2916241378515771,-0.013132857436199557,0.08855602210075914,0.13728218972333942,-0.010315761457584543,-0.0893330662328978,0.07960690820547278,0.01443277842976979,-0.1430945650623205,0.025126694772782565,-0.07707040600966819,0.036572470797143534,0.09481738160796678,-0.0018357518216514795,0.04308737385799549,0.06772160827291616,-0.03080246523038288,-0.09029715372579084,0.00010202178327163277,-0.03897010883147849,0.010662365488404647,-0.11170567259786826,-0.05555907573679109,0.02797340322206056,-0.030244276817734436,0.10185385331452496,0.00975275689882742,0.039300213690245306,0.08057802320512689,0.013758988572746773,-0.07399260404637553,0.034799407877814055,-0.013951503626117185,-0.00869682305195962,0.040645539950624414,0.03749239611944608,0.18394379085489243,-0.0902886496780435,0.08992111855070348,0.012237193488542165,0.006131958844847189,0.41402527629461333,0.8919347466305858,0.3292838655321358,-0.01982624081860576,-0.5539540001396634,-0.17061705851905268,0.12973313551241553,-0.5416448548337707,-0.3375426234771272,0.2215864526599865,0.3092711553109625,-0.39804198077399056,-0.16410985825489588,0.21033796803678184
128.4311981201172,1.0487060546875,0.005754090648030369,0.13826750132961274,-0.10997082726529829,0.024734190920918695,-0.168747988093507,-0.15235893890066665,-0.10412765362387486,0.030315837966266763,-0.05501780973930491,0.010910247471865489,0.001483455755269411,-0.023169991825301522,0.07103837439488939,0.2317297461117363,-0.05617111402982494,0.2621657374463886,0.14173170895588547,0.16983378388764298,-0.14387412236669714,-0.16026513902653414,0.49328537411292,0.21969538034908942,-0.17406930113865604,-0.3607453763891212,0.14208007539402678,-0.29416333153022434,-0.3002088755280215,0.19293040354899366,-0.0347807266119762,-0.011800643412494215,0.027535126172633474,-0.07920010767415836,-0.09540324975867526,0.015618516432671356,0.09937924194242323,-0.1676228262788577,0.07009264593533378,0.02501151283128239,-0.13860013414800557,0.396687712058021,0.17467841078803958,0.2046453082662115,0.5746263363231755,0.7941387578493553,0.031605826487035554,0.9384166052808233,0.42318931230137474,-0.8719229755007601,0.12056987879025298,-0.15505055229238907,0.12512713725972335,-0.1687562682028335,0.0033267380176783753,-0.08731801298742292,0.0880403186773566,-0.05678119575200433,0.02645782815372885,0.061838472180405536,0.011521448523622455,0.0861749186357124,-0.006088941011343598,0.016524289251240692,-0.07759071457163078,-0.12726254589921937,0.038212956239664815,-0.1001950805397318,0.1320584566985914,0.1337707795907861,0.02247712956893231,0.047763224081068735,0.04693605140752742,0.04149227451533549,0.012845206452304633,-0.0010024927685054665,-0.03870189521171262,-0.05522185460497019,0.04328231270526173,0.06984833158160147,-0.045375947263693144,-0.05468906720705784,0.007495175537509649,-0.13711717160840461,-0.07852619951229885,0.1338518850347479,0.00982704805412347,-0.12206183033214157,-0.004403350321791088,0.07546591751986494,-0.09934841931972581,-0.07306760878582025,-0.07026689421060206,-0.12063599653014442,0.021542017470320717,0.09593713341800086,0.07865257221479277,-0.06993617047088013,-0.008688230740455063,-0.16755750974046446,-0.02710952662697229,-0.08408078007921202
129.4799041748047,1.05889892578125,0.06443501195495327,-0.0996845260264181,-0.20394816860269727,-0.05088355508021147,0.14756748059859198,0.08191862524986464,-0.009728435979602905,-0.04430083813031006,0.07440882072604063,-0.014495758013813021,-0.05544889099046795,0.05266113012188276,0.04388010520655588,-0.20592254158406365,0.2283777662002235,0.040981014621582504,0.19514789766703733,0.5119813008913282,0.296059739138972,0.22468950396804757,-0.33481491756717613,0.3110982266860025,0.43189164640032396,-0.4901480329202615,-0.16013373914725826,0.280996713848921,-0.09346413814386205,0.052105820968110686,0.15412379027549797,0.05965574408499568,0.03894367136673277,-0.016751849773816007,0.02374666205180379,0.037300984828643094,0.031145874843546535,-0.18090985378579635,0.15021552566447666,-0.19893380333003335,0.011453086803443358,-0.22901341790612167,-0.33659301491438964,-0.1424322957574012,-0.1377791248055778,-0.4670270648732321,2.2308085572308203,0.5547356108098904,-0.03316133999566731,-0.17472750501364237,-0.24775326874546488,-0.19289892271738054,0.03313503903926078,-0.28921628778370556,0.23611836888114685,-0.12618872852180357,-0.060938471923269594,0.06264909427267007,0.027493718625304538,0.05747892936180753,-0.021067704210788296,0.027412480363856656,-0.05414069130137349,0.07054310587308246,-0.06717364291303385,-0.08513424500794943,0.06664608577862671,-0.049499880120408395,-0.03899525286608666,0.023699552059704466,-0.06427040878882168,-0.06956009978325166,0.07354298051533541,-0.050154424417453394,-0.04227939804962237,-0.11133994431136261,0.03978939011356832,0.08547662280938279,0.03226898551460682,-0.07976072762734586,0.05568040278324929,0.07548992411656884,0.021759128467208528,-0.03992787420536953,-0.027585761602903637,0.00021415333006101858,-0.13991120244093813,0.020795196198881857,-0.07260823037656393,-0.08067495491380391,0.047778389962261886,-0.004917779094672413,0.05491168237438717,0.15477588347948143,0.014856151995900022,-0.0782341383089127,-0.08394108413812292,-0.13727233304151437,0.07626732948732903,0.043787216488920915,0.10911315940122845,0.14315557073406543
130.53880310058594,1.05889892578125,0.01059354257205633,-0.09447233409774386,0.013609214224963626,-0.0892475967812917,0.18876999808108055,0.14714298501903433,-0.0677385060394615,0.01311198464292336,0.008385363411354077,0.13556493578901915,0.21832932748631795,-0.11699254363895796,-0.8028014816194763,0.08579870355624286,0.9953589410994703,0.24050382866289632,0.3580371947047982,-0.8870373458027603,-0.2510410120553434,0.4516067647007216,-0.08469305838608264,0.27029597836492153,-0.06678768824951511,0.0696494611613529,0.3292797783911014,-0.09720031252940951,-0.014270552372539857,-0.07680027789054247,-0.06273041309494273,-0.13424178596164094,-0.07796060673191377,-0.08061509785005899,0.11913611762072177,0.03925799337773431,-0.1590875156332872,-0.136749828176459,0.3911472511990567,-0.9083627000404868,-0.3369485319822265,-0.4608440782253092,-0.26186220199631394,-0.6396763952877687,0.4072398931122637,0.6693795429009116,-0.036718638949963175,0.588135493733082,-0.3500534577625909,0.2807606040843085,-0.33284049491426454,-0.3294845452297977,-0.16661563658783463,0.07416678784105758,0.31143064968667,0.045461332014069725,-0.13414497999527647,0.06864607038675635,-0.060648825497724566,0.005239825839551633,0.07130914510808564,-0.009579930901769812,-0.0031903054633978726,0.002874249823210051,0.09431522117520955,-0.09736450977139835,-0.049046506296572354,0.06237736618262357,-0.0851790330292387,-0.0266082230838716,0.12298723736799355,-0.020397421779002615,0.005580385082701443,0.1376217773737861,-0.06760298493521888,-0.011881939531896882,-0.05956379520841531,-0.0025537095329497966,0.05280290837793335,0.08624937118374432,0.04290560869918213,-0.004675154287014358,0.03784313293644523,0.03622451648683151,0.036167642815228586,-0.027542733708362223,-0.0522068881886658,0.03396386493921848,0.049594747256475856,-0.04952395751175356,0.0639977305588739,-0.027965958994108572,-0.07056425841100464,-0.051897166990892064,-0.037037229465671014,0.05581542803325933,0.0969805523973745,0.02639133988409362,0.026855186467906616,0.043627633027055926,-0.04891409552024741,-0.18959304011394768
