start,duration,0,1,2,3,4,5,6,7,8,9,10,11,12,13,14,15,16,17,18,19,20,21,22,23,24,25,26,27,28,29,30,31,32,33,34,35,36,37,38,39,40,41,42,43,44,45,46,47,48,49,50,51,52,53,54,55,56,57,58,59,60,61,62,63,64,65,66,67,68,69,70,71,72,73,74,75,76,77,78,79,80,81,82,83,84,85,86,87,88,89,90,91,92,93,94,95,96,97,98,99
98.58204650878906,1.5978012084960938,0.19485298408262713,0.5550316061662628,-0.06071865306013027,-0.33515939141988044,-0.35177880213973894,0.13020049324921756,1.532636307962684,0.7150515480134142,0.13923936142141807,0.3739688854105388,0.08893600485332279,1.1177535499785745,0.006907639628935841,-0.23443275633854926,-0.1584297196932642,0.4928130659237375,-0.051131394068920644,-0.08890435628013467,-0.018126136905940535,0.1701355602860038,-0.005498788967196716,-0.037071887913498226,-0.12175423287425698,-0.08781128048269049,-0.48208138773470666,-0.11608420852950796,0.15804685722676956,-0.01781181745854008,-0.1794700066042255,0.05314872517096548,-0.05066579737983031,0.06219050372196322,0.0978299809204087,0.0065570982133009055,-0.037899890155732405,-0.017903084216235366,-0.03992060807247274,0.02443983827091784,-0.21867560078872855,0.004562456330443526,0.09994845170583902,0.07659998186046094,-0.009880172417496733,0.05100457615594341,-0.10574720875519435,0.1375749942425942,-0.08478562290494705,0.036696408529558695,0.06107853015529707,0.03797640690694507,0.06871198010221517,0.04560125916937988,-0.002582208503953992,0.02041734792506386,-0.14876317634832803,-0.07961809011542732,-0.02013558924420671,-0.09625466309797324,-0.005084788487731842,-0.0006326154175885221,-0.01434022595647055,0.06566914053665257,0.046537825717341115,-0.10482503664136869,0.13314464748359803,0.2133775869507322,0.45656611484130544,0.29864354841007734,-0.18482568042260464,0.2680800703805009,-0.03439780089305004,0.033313857284406063,-0.0886088500041326,-0.04776473988829385,0.04760727465477607,-0.37209206379558135,0.3422013611051629,0.03162065209115928,-0.07268037371894143,-0.5211774086880426,0.4605078474476506,0.28394974650929244,0.13932952224584844,0.3687080959664556,0.15519583059754463,0.07886465858395411,0.10034986143508785,-0.0533654028359581,0.053868956800467646,-0.1166553007091161,-0.15803874181906044,0.38880551042901357,0.0334111845842437,-0.08483260654249772,-0.0942966870130528,0.017647655385255562,-0.004118733380696833,0.7227196638568415,-0.5813392746940771,0.13043362345477927
100.17984771728516,1.6287002563476562,0.1279667565950099,-0.2238223211110637,-0.39645419449369246,0.4796297643194192,-0.9418771619049562,-0.3965036144616073,-0.4808970191121025,0.05791219883950281,0.050888286829795154,-0.054073750026678476,-0.15195747318484515,0.11250777561273013,0.06266772517490121,-0.03254624524980126,-0.003208894206312464,-0.016745132940404715,0.012535668240469089,0.022532306312009493,-0.05146562291840901,0.07571886869100701,-0.12744671803687316,-0.12575612800348857,0.26274858062956585,0.7847226365681945,0.04042897849782434,0.29326649485274214,-0.2768939063643524,0.100172009731657,-0.7347915583273364,-0.2696704122695193,0.030119675067602998,-0.10480721357764561,0.125833000327352,0.010780744934276184,-0.09126857649035791,-0.05876286623223815,0.011935696075726433,0.022496775218756957,-0.2809870172198592,0.11875156526100855,-0.008623596613024281,0.19470646037362216,0.2677813457650994,0.24645744865716304,-0.04881282811723242,-0.0487425987939063,0.12637342092589293,0.098152649607005,0.12404752573139116,-0.030362776825026867,0.004819589881822869,-0.023599893418940837,0.028878778108474897,-0.04996737377111818,0.0275147833309095,-0.04598889913399046,0.20803294461709473,-0.004413070671369565,0.0036869926934180184,-0.17470045747069696,-0.08797222296489918,0.004010723563691838,0.002487059079106224,0.03088298594085325,0.07368745031675113,0.05762228154670203,-0.05649733020539485,-0.11798206942840644,0.24143340312502265,0.1404001657114231,-0.0671724659692277,-0.04917295907882499,-0.04464414833100878,-0.04738813242973375,-0.019460005933240515,0.500449259644153,0.18196306754245495,-0.16004798935291237,-0.630153260689346,-0.23393658320873045,-0.18355573423909266,-0.5969096183849474,0.12145248383107453,-0.08360850971507973,0.14088314520172926,-0.6132200787390536,-0.041376984065783995,0.1789652255561347,-0.0781999206732318,-0.14422648929292217,-0.3975218282262647,0.12139857924784025,0.007912767692455733,-0.08054071405287587,-0.07500970643704025,-0.7440998680832632,-0.25919225628148307,0.001732346582898345,0.16139679906224147,-0.2029649997435009
101.80854797363281,1.5782012939453125,-0.7693797124170494,-0.7635484778761648,-0.41330121076224674,0.14845016448271078,-1.1082941224469118,-0.058332642190059895,0.008930316372642487,0.3784859438453912,0.6077584261061951,-0.03245927910694445,-0.5463498650880927,-0.06793768222769231,0.4791526606209786,-0.2470953891019337,-0.13216857092727977,-0.05939841441530075,-0.19632976679773795,1.0523686301681807,0.9149561187503007,-0.03876565141648651,-0.3933417360576282,-0.018981961705898595,0.5886223321724458,0.108322131335602,0.4432964026499578,0.01501781882557211,0.34970658604254445,0.09792188204907275,0.012712886894196987,0.14799283569138813,-0.45030386222768304,-0.11575971461911062,0.2708170472856519,-0.001019027787913007,0.4945303686724344,0.13456911227327606,0.1504581132309969,0.018333800301424716,-0.06329477219112245,0.037217597309421646,0.03451934582102947,-0.05390912105496588,-0.11265170824209322,-0.06440069131828674,-0.01801775438853204,0.007263098707905794,0.09213597736889055,-0.024950842428739087,-0.16617424385606633,-0.08844140307572312,-0.11926168462096026,-0.0067325757884859755,-0.20204613895926957,-0.056622158759313326,0.018274120772800884,0.07292906666000958,-0.02701546881099689,0.007798948937998922,0.025163166213669486,-0.03146979855853969,-0.075217787598446,-0.08398185749460485,-0.003691845960923096,0.02668141668253864,-0.07410765286794917,-0.04233945482880566,-0.275226646676625,0.18709566232780495,0.12743694367066558,-0.2882793601631116,0.17123689457964403,0.026400724501925127,-0.11834129769693456,0.1241626018544934,-0.014594008134756604,-0.09792504836208679,0.26889204051756826,0.3051039235575351,0.25248040453092924,-0.564714775762833,-0.31722039938957663,-0.07701969282075095,0.11449745377382675,-0.04490607592602118,-0.14387305226563224,0.11101159388958284,0.047350402417791135,0.012317568680304494,0.05975794917719695,-0.09247145568077605,0.3739801935806468,0.14631691064329966,-0.17483428677290028,-0.13614816675370817,-0.025105317129537612,-0.041012901091506716,-0.006427327406687833,-0.25941388004351795,-0.13826932770840028,0.3099552013643067
103.38674926757812,1.588104248046875,0.18838235265050246,-0.02484185734361033,-0.214135197002852,0.5157693224526976,-0.29675902407351135,-0.5879995352190738,-0.48639029563810954,-0.09217973911395948,0.4146865081490828,0.028477200393237114,-0.7320045863746412,-0.2678669227528308,0.5207891001039305,-0.5112684143319728,0.31819431666728903,-0.02986072800769174,0.11719165242943745,0.08661093085218584,0.028951207414407126,0.03570240733000548,0.04243656974607873,0.030077172230707754,0.028386406052342793,0.017753417906087348,0.003873286371862941,0.019168960433542496,0.017741775140997187,-0.0008097990209285172,0.1089395532035063,0.031919671223965815,0.12474313428017296,0.03702383057890165,0.05369749570522703,0.012310848178433463,0.0019411100327391196,-0.06401142666077811,0.08219270802585958,-0.08323252017511434,0.03369688915974994,0.03551630685082136,0.09934451846240346,-0.008657734715993237,-0.02755110245766868,0.04356725071239479,0.03760787963779611,-0.05770155805122556,0.11799234946688081,-0.10198975628294661,0.016457618788949704,-0.13956878699871147,-0.11862630305322186,0.11257186340587517,-0.08487843909132675,-0.26644456703817593,-0.13590513821921668,0.0401370067805266,0.0619295900367393,-0.031540601690872215,0.000377271272089657,0.012932507117050799,0.04964055833070263,-0.008210074417177388,0.08146291281277038,-0.05647385403371523,-0.03718181367217571,-0.11832635151752156,-0.3697241200853616,-0.09913368474420636,-0.4882938985937395,0.3361274697810942,0.07636770909053996,0.1890788126287785,-0.016067167319090817,0.14286942556592386,-0.09926400151144057,-0.016797801803657343,0.014143628861926124,-0.36521013073333997,0.1814791974187066,-0.7866545282158829,0.026318894345320098,-0.0447428909418732,0.34665165857834196,0.3222125153108185,0.4438940104729383,-0.11719920779993975,-0.05905189185398659,-0.03122042923714831,-0.14251341319176983,-0.41430989778357447,0.11978907807945698,-0.16900356331347383,-0.26572127061995277,-0.0014808742548890006,0.28506884020989137,-0.21812707120642297,-0.04912031095739232,-0.2218560048119708,0.0717885063180047,-0.05198194058070782
104.974853515625,1.5882949829101562,0.11646745632514421,0.33870160690389617,0.31718698556065733,-0.30410748794943565,-0.8948688759190583,-0.00543090543298758,-0.5571920972744604,0.32943595982326873,-0.20350638377105645,-0.2553112695460691,0.024046400875577422,-0.1711456440737648,-0.24492073020565835,-0.03375050836760205,-0.1450552165497344,-0.04568078259635889,-0.08493202195663932,-0.07914408219248559,0.07527650255547477,0.031071197758731534,0.028280031665844387,0.01670981515391812,-0.023851009178071713,0.1913661963684003,0.06698023739137257,-0.021244367157976243,0.0430895593910667,-0.05812942121977047,-0.014515155926366706,-0.04721707069080902,-0.042232399942132286,-0.09123822035929799,0.03871017852278363,0.004751035018252546,-0.058804939441478576,-0.007065772772102648,-0.1060708259953897,-0.00746209392229269,0.09930746812698417,-0.17158499378599676,0.20540175560679574,-0.02563141378550033,0.07898340341520693,-0.05431712054072848,0.03673715158333187,0.08938922769244949,-0.0747754591642755,-0.09961841782073111,-0.22211459553137008,0.014078968013759283,0.22169027211027703,0.12760786949750824,-0.0751271019616544,-0.0214984318599177,-0.07343184654532046,0.018354624505468917,0.08470220883022533,0.007102873473626665,-0.005456011038276112,-0.02522719539794076,0.016753816792337815,-0.039302836410404024,-0.019167959896554385,-0.04584645957225068,-0.05630414792583743,0.1898245763479008,0.10378450833748816,-0.7630296513007879,0.01593697965488819,0.4052700396889893,0.00837706151066267,0.2554891651202156,0.1732807925811166,0.015846674052671383,-0.03062995731455919,0.3745076312878918,-0.2127421038853216,0.14029493893914388,0.6651191368343643,0.24828853862145167,0.6985386875832043,0.12527165205987784,-0.2529679317147233,0.21820826077053387,0.06942719931143226,0.03444239242532969,-0.019795823585810442,-0.022224903200367692,-0.015697966376661546,-0.19631029680396508,-0.09340502590177413,0.03759748365719145,-0.020761524114310665,-0.0767997779629946,0.08805593668769739,0.002267330264646364,-0.23939394681252044,-0.4129408589867353,-0.5402955698766791,-0.562439005389506
106.56314849853516,2.8169021606445312,-0.39929734647760545,0.44497172381894173,-1.6262108792500756,-0.2264930972926864,0.3993603759853585,1.0039811722772645,0.8985738517193356,-0.03440306026173107,-0.654900506474442,0.08370961918795108,0.519618572204633,0.1262357661902404,-0.26381298252635055,0.030804879418135218,-0.022564520063128007,-0.043382120589799386,-0.035664682084478164,-0.02416883251991344,0.0035188627224906075,-0.1001745002647884,-0.11582508743935063,-0.02474364921072926,-0.002062299173709963,-0.03062439183728971,-0.010725617625945854,0.051494078288904926,0.10095910097332718,0.0782164290419179,-0.18182990310529368,-0.02182765312121439,-0.014379227149950586,0.06810131964561086,-0.09627718983756658,-0.019603645988108837,-0.06982820919209322,0.03393731580544017,0.03352934851890729,-0.06809571682993286,0.028208957449082327,-0.033927874807590186,0.004267868587566335,-0.06904466767182253,0.04448493084385397,-0.10991426662867285,0.045535716447055945,0.022775729895289722,0.05736221573930985,0.037305198978115114,-0.02049385613593656,-0.016188154459716112,0.015504170759230327,-0.0556587553400599,-0.019212178534369944,-0.040948109413534425,-0.1521981398844265,-0.20756278267054773,0.05271380809287454,-0.17858059752916117,-0.005246378768091366,0.015490902304827048,0.010024375832156297,-0.05364697022952407,-0.015030993624007428,-0.020862035795092514,-0.04172822781347149,-0.026398314453181818,-0.0963542092210327,-0.03156207594858802,-0.14345851786786729,-0.05757087231690926,-0.04135457913483125,-0.051607302959764026,-0.012114399708337852,-0.02923760629345773,0.1019001247729664,0.09549759957201945,-0.25243403935347675,-0.23942015241058703,-0.5597152655060681,-0.06357097109521974,-0.23705254608190046,0.027602885554198667,0.017833407354377193,0.15088366366238715,-0.07803114870421081,0.06209182603690936,-0.23349913100852687,0.08084253228820307,-0.03897008180469557,-0.02773961376520736,-0.04623542517729216,0.23944250882963372,0.12530925588398226,0.17551743455882365,0.2793558681052561,0.22675110209182114,0.04803685365708293,0.18361725155964664,-0.4975436085134868,-0.36455107246310003
112.32675170898438,1.4679946899414062,0.41703644811274754,-0.9239950126756938,0.21146435369936759,-0.4559676509445816,0.4613015373782454,0.2602439665309913,-0.06533215099026866,-0.41496264879506284,0.10678364296187028,0.11047153340485714,-0.23057834564182317,0.04222090172142726,-0.029745041706492757,0.05405245194964749,0.0013577951637124537,0.012044404519612927,0.07022557249455004,-0.03357017683726449,-0.03184468117423439,-0.07216061332919703,-0.01324864260623188,-0.0006447328220663406,0.05261619282994808,0.22976976603590127,0.038081324819109905,-0.02132795352407633,-0.017864000919985037,0.012229683547905542,0.01894780439526386,-0.00018677475220385846,0.03350695320801225,-0.05168692373342344,0.11988469234475133,0.03020814672256734,0.013691264232489127,-0.01686895983262343,0.17177414973612812,-0.09031738545682719,-0.06163300479270413,-0.08872168098146796,-0.07907741447188296,0.07307629830295721,-0.27890287851618584,0.18092580345833426,-0.12120554107929124,0.16509807312189234,0.0918927038692941,-0.09103800997506806,-0.34050993253675,0.030606332885229137,-0.07977673622863245,0.06154990772724524,-0.062252836157904674,0.157884676966295,-0.15250136203217157,0.0006426933623755338,0.026378724163931378,-0.04413068137910755,-0.012451803391066829,-0.016997039365679964,0.008510922620236627,-0.00039884668968913134,-0.00923607419895667,-0.08952256366487549,-0.0752823216586689,-0.016748285771069366,-0.12258943492112861,-0.04778235343104949,-0.1731468678554655,0.1194808437826276,0.29024639728064705,0.027932333445910135,0.3033373588714638,0.2771922476881998,0.1538851479717513,-0.09368656180594893,0.5508201241683636,-0.07555499352542312,-0.05596634601244907,0.11472885904897803,0.2195639044958374,-1.0557619213388514,0.09186088661539259,0.09123573427375604,0.15643725136132125,0.09655330105456701,0.018692493619581304,-0.0013545418469960739,-0.06109575585264324,-0.48982068054416755,0.21275262634576753,0.04350169892567599,0.08064107556268135,-0.33329695316265934,-0.06885735694522792,0.006754786401989939,-0.015624425796689698,-0.3503023843551108,0.9342207653059765,-0.43044262803694533
113.79474639892578,1.558502197265625,-0.2920000133278041,-0.20241492519809076,1.213861132050361,-0.6370895376909864,-0.4372240616912814,0.5084020735125766,-0.8817751617131943,-0.15314921067297488,0.0728937001097851,0.08827573659878721,-0.5439825698395164,0.28802559527918853,-0.2213850433608118,-0.2391853713648372,1.1817221801860496,0.12222954260813443,0.4465567429750942,0.09801110028383696,0.08256847458324172,0.443749509379265,0.03780447047601729,-0.22712163360532484,-0.0030002734104864898,0.0542077674747314,0.02585505715681966,-0.07035338889480006,-0.09618784612590862,-0.025618570873412266,-0.14235635295772234,-0.08991172662310601,0.03915091272453066,0.06702943219673943,0.08190048031629675,0.03885402387805898,0.009780443333178325,-0.0528984828810538,0.05128879157221398,0.05954824012535116,-0.022531737028062274,0.05125310149439917,0.1366256637594417,0.04698665277374223,-0.022136846383104515,-0.028587129615321755,0.05581775456309894,-0.16242433591385735,0.03552197644419041,0.01687497861011673,-0.12722768496032544,0.1044947554141179,0.08323582769929187,0.13534377250900656,0.046356314256471465,0.049977022155618916,-0.001819980679260284,0.019068767519130714,-0.10702085267460064,0.03445502936627081,-0.0028402537671209094,-0.004172599746350064,-0.005613893491763465,0.08731837651843173,0.7635259147285207,0.224360295496366,0.10401915288469202,-0.01007602106085037,0.17227553792682837,-0.23003443281350044,0.019053354129721964,-0.04222660162662922,0.18585921251688725,0.04035399472044916,0.8780564088151295,0.21739630139792912,-0.41178998328593375,-0.37432066323370605,-0.4220900442481724,-0.3974592887301474,-0.2099723315930935,-0.6017555188024011,0.04864876062315595,0.05486924380040972,0.3533662153199064,-0.23328302664144973,0.05621380462193082,-0.006783845510188945,-0.011311834895404419,-0.36162339273880834,0.018801332629041857,-0.035662901377468914,-0.045834976119074264,-0.12202268506970626,0.05125872005773148,-0.01956747284127794,-0.41649553174582393,0.1452982864603933,0.08259780937768332,-0.2821667718432934,-0.19562346623855265,0.009718370478937116
115.3532485961914,1.5583038330078125,0.1756744794863608,-0.2825619354236966,0.4625567687177621,0.19538255161841378,-0.5330512774518499,-0.6961146845899624,-0.17383609073757875,-0.2108493750599652,-0.12078843832241852,-0.2191331796178881,-0.03521793321402892,0.07694317140025198,0.24047944865073884,0.022491266797257672,0.2641758243436211,-0.04125304762499268,0.01672251402443992,0.18566652668477845,0.08578366343205435,0.01308349783432983,-0.025209111946974477,-0.10372419840638357,0.004970866951984936,0.03255939874560292,0.08037878364578727,-0.001473210330354896,-0.19309441076849448,0.10220487790423713,0.07259245719128592,0.19761527502117673,-0.1231203751221599,-0.040492886937368286,0.04518460038906175,-0.09371983547884956,-0.13496990626862254,0.018764543444349926,-0.31532406356209164,0.13878196126296347,-0.008114000618773196,-0.05527227781788108,-0.12041592415085439,0.0017081220868433835,-0.1653913529866696,0.03167657195174928,-0.16232151964842917,-0.17176014259031092,0.046782479533221746,0.11000367088511369,0.16230622697970845,-0.04490083227206415,0.11080326665084014,0.1084165238893695,-0.2063532461126978,-0.11930387236298072,-0.006585359759786118,-0.0029481848569166136,0.029292308081230716,-0.027074361485108587,0.027700498156004876,-0.05660440629324112,-0.006955669789270675,-0.11058343330884475,0.0027200648254569887,-0.004911089867420912,0.6549451649042053,0.43540838908137214,0.2137139039557814,0.19717069734630432,0.09700529470685701,-0.2898248054942814,-0.2708428275921705,-0.044754974443309524,0.13299651460075504,0.17237918194371435,-0.11344081691063834,0.11387433208664195,0.12366842696733754,-0.21893343159981196,0.07076341619816726,-0.206792477249918,0.1970931537620026,-0.13761692172142231,0.258120717323022,0.01138240185110706,0.03022348195059391,-0.1681264596946671,0.0011782949707188268,-0.016497634523642536,-0.00045715194449810347,-0.021135355061471062,-0.05065075028921981,-0.028544293572988037,-0.04424775907993277,-0.07838409827010226,-0.10766556695732359,-0.21242890698395528,0.5041763415640166,0.1721235682818115,-0.1178031041280779,-0.4817820840306841
116.91155242919922,1.4782943725585938,-0.368032135582292,0.664938535243695,0.21396687406289483,-0.11332840623593225,0.5806702914222147,-0.6725443997475119,0.1808704436935586,0.39168971698605237,0.47116915973907303,0.13982774165957548,0.04404914654099058,0.5992100913107715,0.3217267034563897,-0.3345910297277819,-0.03729805239818976,-0.105581514933773,0.061930089023255586,0.055696348766450035,0.7225264257673268,0.10872640890059898,-0.03739490791533633,-0.07437012056081478,-0.5810119608040384,-0.1198723385869003,0.12294052811681479,-0.5968520637621928,0.21548855407830117,-0.24158655886727237,-0.09277216238391049,0.03443651834243132,-0.43913719841866755,-0.8864181418153143,-0.28655051514423824,-0.1900656124466027,-0.08539951724484646,-0.04467900280404324,0.1268548485272661,-0.44679676085546344,0.012456323605467421,-0.06159299660091587,0.08512035071917416,0.009809584408238495,0.09969076761263919,-0.06497988458357333,0.013352561535719207,0.06136808524516898,-0.0011138927260866622,0.051129014009907985,0.34664168821008173,0.06027640683528817,0.06282921401378139,0.006212561236813973,-0.1905883710358691,-0.1046470758431953,0.1000674055521617,0.44123095313788874,0.04421943259930531,-0.06560979757551622,0.003567135322494037,0.00037716674250384613,-0.011215481426486372,0.007474467057180301,-0.0062826294697886555,0.07722051084782647,-0.03874863581669111,-0.13517836096153943,0.12993147918097975,0.0998768751224686,0.5622278079292702,0.2156442921591039,-0.01065596857713869,0.27142702523675216,-0.04960922230945321,-0.026788091428168223,-0.10866886129317278,-0.3217872223251137,-0.34271900207522676,-0.21292890506509893,-0.024899370557264128,0.3978030401023848,-0.13163309143584995,0.009393109269136096,-0.028443124958724253,-0.2072849186278642,-0.5696991484606677,0.2795451371116807,-0.7706796168763942,0.27365002583105785,0.10910035296946441,0.06571820419028197,-0.05491221414572453,-0.009617375978763788,-0.24284870355390467,-0.04920919860020376,-0.18512421224468192,-0.04882216304543947,-0.036931542613568555,0.7743162346206895,-0.03192522531833081,-0.14511210090464643
118.38984680175781,1.418304443359375,-0.1465701946663816,0.6595579691465965,0.3864617946317122,-0.23976760571385955,0.43293373153197795,0.08365939462530952,-0.48838441762336243,-0.09361308872239424,-0.19642973634899022,-0.2957347856630669,0.3444942492993788,0.8012131962075278,0.5148051458395577,0.4823979434629283,-0.04035533591166383,0.00761393998929605,-0.08846636715605545,0.7165716400310794,-0.10403408100864514,0.026133152556638645,0.004423782727012469,0.25071233544138544,-0.03635081999574979,-0.12651523915417706,-0.010457339235324319,-0.1550344096797217,-0.20493202507036623,0.0074779648591928455,-0.005216944554462975,-0.12740747483542994,-0.03433427539529078,-0.10283619511682908,-0.003911149744196807,-0.11676690378385747,-0.004139428706155248,-0.08895231223961936,0.04051252524094385,0.09262033433151931,0.4271302227239805,0.0650411268853703,-0.10692690866126636,-0.04896110155042474,0.16929771018904316,0.17098413396013787,-0.0072010734398303845,-0.03306495602010706,-0.026886419323279766,0.03986789089050217,0.02157494512019409,0.08223487359387806,0.13051033014953492,-0.18967283577332336,-0.10773790020224537,0.09628768092873127,-0.015912860377436073,-0.021747074407271232,-0.06814570616106468,-0.04975714203074269,-0.01635678720729882,0.10550753437697968,0.014057230708999113,0.0013612961698530985,0.04771658047482433,0.015631163065429714,0.009367113496961862,0.01920114113081363,-0.2502543197285928,-0.7653157100315081,0.41281958080886494,0.04780281911747239,-0.04943054018223052,-0.23385137655863938,-0.29026969554603893,0.3378844789529067,-0.1303897041055892,-0.11485290099546328,-0.048549526555763785,-0.12793194910544248,0.441862713178857,-0.3178962967025442,0.22301294806158867,-0.07219468919008515,-0.33420457492307,-0.2723399364151252,0.3009386409330274,-0.029997143587077314,-0.18474895863302898,-0.07607579414756183,-0.327890593787978,-0.009714089286882777,0.010964636188770343,0.026556945026553466,0.5695295086532159,0.0695251880100916,-0.046808003157250914,0.1640758415967886,0.24706846939180557,-0.024662019426527734,0.5716325022755924,0.2403817583149046
124.29325103759766,1.4484024047851562,0.035866400500279866,0.4713111460476043,-0.004451964121572394,-0.5190338556237973,0.042344163462017775,0.06452709609200087,-0.5318452925134756,-0.23639134185274754,0.027010251939082835,-0.07107016428707413,0.012382458049271738,0.058858047203612346,0.20356611894626814,0.04403423114914365,0.02126876761297876,-0.07133492304516634,0.014006646811755358,-0.0042827149966890125,0.002402059591710042,0.03171092525399538,-0.07103829703088017,-0.13198658806153032,-0.29899553679247953,-0.21329110213151858,0.002979878692054246,-0.048237616581504106,0.04480579027412884,-0.15947500203125478,-0.02099165074955641,-0.14736346762945218,-0.02086822306651124,0.11670027636798212,-0.08862719859635462,-0.05064910973885638,0.147188252756956,-0.2567015144437536,-0.11898867641991956,-0.003610956994177233,0.0665496375100269,0.07257456130245073,-0.26513576089792557,0.2845094634780262,-0.07562863096768233,0.03226650211209006,0.11474071627044087,-0.05131252111469206,0.10652598350075522,0.053394324777141955,-0.07268843367843397,0.26688599206059205,-0.4122661990464642,0.10514265129726434,0.2501027438856891,-0.019119233306606743,-0.016297164613938795,-0.02737639094379679,-0.0451540065802118,-0.18616175822216843,-0.009497376622073587,-0.005787135186088039,0.004452452807108518,0.024996676352943455,-0.02630219845960014,0.08911796550967549,-0.04618824944066584,-0.6320242126532553,-0.12444119311933385,0.6586917980231354,0.10811691665261824,-0.1262292574675131,-0.011543595831158035,-0.10398866452581616,-0.08290106133522207,-0.038386087830233326,-0.09860336459016536,-0.1632900092988494,-0.5716609221561685,-0.08407765012163083,0.07246295845931924,0.23235451138668872,-0.30477218163284636,-0.173852375011902,-0.5508844759926413,-0.6002003348579795,0.004221304452122404,0.02913557424533563,0.15216093776786072,0.025252481341011573,-0.0066187069739603675,-0.015839321883777915,-0.028111609862970878,-0.16315185620183387,-0.17806277901461753,0.01635256872923479,-0.06430160592420207,-0.3223058471266934,-0.043196829935248766,0.42067214508193806,0.05583977036621016,0.17339351539098102
125.74165344238281,1.4678955078125,0.021009379906301223,-0.17512970552058651,0.656083268987333,0.2914362780317645,1.12331372422761,-0.15479714756711166,0.5364000837741449,0.4791089642036207,0.35844694764201707,-0.13217162168534016,0.008434485201006548,-0.05172301694546707,-0.07455332574719929,0.22051766501790288,0.0931280293241056,-0.02533041825063436,0.058387281777214695,-0.0320412399244237,0.042107317558970465,0.01751298084767862,-0.07571668735572623,0.0831858201277513,-0.07575566891352312,0.028504933997476264,0.08815834668302322,0.002229546255732401,0.072169568330836,0.21806875529505915,0.08485382656054272,0.07781417303803856,0.07998667684852855,0.06401127413843748,0.043464612275404706,0.05438430423262808,-0.0575138855188674,-0.12443210726190763,0.03396886144633514,-0.0776983151202238,-0.05474399359046664,-0.0022995497932089366,-0.20842033422534276,-0.06976735720688329,0.13086240050315984,-0.06211523343722088,-0.25673895896728627,0.035902333254797865,0.19044204194261716,0.3031860311092902,-0.05349513891346523,-0.19657148276181163,0.31182907550366007,-0.08901533565298882,0.2089391305316996,0.14081733205983268,-0.04869208732239701,-0.011596411735830186,0.0976134686718162,0.016034112885490785,-0.05426132061361089,-0.06109954742745058,-0.0508349710281617,0.011445298544927577,-0.010437921815593684,0.11656446611660444,0.045424869364442205,-0.1552724026005198,0.20090514265431955,0.22554126547982406,0.3769001478938382,0.19547382740528269,-0.06759173643206383,-0.06849795102468541,-0.06969237004957532,0.04409367070142768,0.4644419035107254,-0.577245228561206,-0.12491034756451763,0.18464111369264688,0.14141555370088355,0.34705559713944,-0.27380091383105926,-0.22170774754804898,-0.4837565047202242,-0.10070804101324492,-0.0017068659126564948,-0.09966831471690366,-0.15474287011249913,0.07124202479484781,-0.0748644827910719,0.15426551982243952,0.06636657401669814,-0.5792021874809725,0.07688946362292612,-0.13786179869104173,-0.3384803589971313,0.07745013841862898,0.3264816713013319,0.20344654412729601,0.04858960607757673,-0.8462017619985487
127.20954895019531,1.4582061767578125,-0.6842534687970834,-0.8397433391653217,0.24069655247459723,-0.550264910912971,-0.3346147260802519,-0.36851028312172296,-0.10496106923025628,-0.5665000135435277,-0.012406206580515639,-0.05153820309592106,-0.0968979861647499,-0.041397603006359654,0.11042287141375652,0.311715384981716,-0.008580080203536473,-0.0028531046580158553,0.0312786132695582,0.03522283797566947,0.12731445312102757,0.06514372436328085,-0.007025107990512508,0.04059721027673986,-0.02502608426487808,-0.04085278129931842,-0.027643378230937484,-0.08698705478212244,0.01616685439598481,0.12202155071127704,-0.01269045956872679,0.0036371996754013154,-0.0721596181698015,-0.0020727923589605813,0.0063102907479825636,-0.01291895329291147,-0.03179982867886752,0.07294598019647248,-0.009501385177197404,0.06923609173694538,0.06648295049493202,0.09591502543595888,-0.18012240414744626,-0.06957493086924357,0.150459836891795,0.033725360154153984,-0.06567985204068859,-0.3088645481513021,-0.1267341337128208,0.0710562000680906,0.1349495966088241,-0.42683436801859964,0.21135208930534227,-0.019000109728250496,0.07896914634238407,-0.07731000722153655,-0.02446987573970194,-0.13867691831188303,0.04166025871653723,-0.09503201628383423,0.014763958430288094,-0.056514940364647145,-0.04691308238462241,0.04810517671692008,0.004665266398249678,-0.006650300718405315,0.10807087993184944,0.07979311056600588,0.16242812601678688,0.49844616480229276,-0.2597833841999716,-0.35467600589772313,0.06685774541565034,0.05808506865191834,0.11832126323503,-0.05925370703749701,-0.05217171151137471,-0.3099474220395477,-0.32583532417427213,-0.058161754746622316,0.12233832646444383,0.2650554021536764,0.6455783545818762,-0.09456636123984963,0.2165477508196706,-0.1564366138896114,-0.16698701626342172,-0.5415043231825684,-0.15089897475041958,0.12788432828295584,0.09075807963680844,0.06853907702359294,-0.03301455108028005,0.0968996196042606,0.13132692501454735,1.31486806969437,0.04478943866651605,0.11600975583365919,-0.061148123636841446,-0.27626112520803253,-0.2677203340806393,0.12110388346350483
128.66775512695312,1.4989013671875,0.10606661900901607,-0.0031261516698762575,-0.602341525982317,-0.22026611287445227,-0.0395999608635039,-0.5005570538586261,0.38670933614102987,0.005364764959334509,-0.0292356309675711,-0.07131536600429586,0.001552012553621017,0.10531008473408414,0.10775546472687379,-0.023432375087145116,-0.07946155491474098,0.003966457954509651,0.03623149540704608,-0.013392891530831301,0.04740155001063664,-0.06064281269288375,-0.044147866269307647,-0.033085665180175354,-0.1264200433107495,-0.031186726608985065,0.019022662975476473,0.01415169951364967,0.006556676753514195,0.15105109981905412,-0.06287864962069217,-0.0028617471453514743,-0.0017855265230646692,0.0011161490761384437,0.004455686367174966,-0.03928515651286814,-0.0646722616938947,0.02274859317305534,0.19998859948729483,0.014166824574113834,0.11438624897966888,0.049831430263679144,-0.23601379108995657,0.06951142526853951,-0.06972677646113501,-0.009700783329848235,-0.027769227186807546,0.05679734339608194,-0.0677156942273285,-0.2217847865692352,-0.0332810401411583,-0.008258141784249079,-0.09501940236421315,-0.11235065651138657,-0.04419134788931671,-0.032732692754720204,0.1316966175133341,0.03611303415355048,-0.09678122723670791,-0.023906467795294595,0.011130602718065593,0.01905248230897429,0.02761522276825997,0.02296744043431914,0.050440988106201144,0.0688031557886761,-0.23754303396223178,-0.15801629605037998,-0.2152998323938517,0.19498753316840067,-0.14994823090694315,-0.061827606664701544,0.10136579495749748,0.06360563909972307,0.06747990862604387,0.009534315849322857,-0.6762445690470964,-0.1116581644252391,0.05735761073049343,0.06289987270589098,0.4243298950384657,0.25877326570126724,0.7336279366444279,0.9647535777016574,0.36788507791911707,0.4500794596602368,0.1480955732239418,0.015051880483542675,-0.03628624383960664,0.023590629078191056,-0.022245459891564002,-0.027508353834491045,0.17647688531163103,-0.0363201766996403,0.47958223872840916,0.052984204959148684,-0.02227660246701748,-0.002588322603402665,-0.07768353443885853,-0.055769307407515165,0.08160955268545456,-0.2861384577238967
130.16665649414062,2.9764862060546875,-0.29224842105960225,0.6039037345885847,-0.23740710312072288,0.8182862919590157,0.6744137492378687,-0.1292272953426222,0.501060435105151,0.13152205654730603,0.009561377625587161,0.060794136640878266,-0.0635528225614927,0.011210081464854168,-0.00791485212385309,-0.004719449403827205,-0.026228693851744943,-0.030381457863542873,-0.09865443167007659,0.0015431325367168374,-0.000999077326561987,-0.05674193158840454,0.11172194243556512,-0.0025368793063552434,0.017170226478330494,0.035434252256087595,0.05022557801736641,0.04641115616880106,-0.013781838295257226,0.0010202671780378105,0.0779746863261841,0.12296364814898421,-0.025209048010697982,-0.07026513319681886,-0.03811742410679532,0.01025561735544798,0.04790528156947612,-0.06422531403914296,-0.13955064788929578,-0.013878771965423253,-0.05946826136509432,-0.037487377172565825,0.030434916044571946,-0.06938875038736873,-0.012674115633491134,-0.10672086068667176,-0.022865012841012645,0.026646685237953542,-0.010162865478363835,-0.05523055933244611,-0.01983013315563492,0.07572486855661478,0.2600030546632617,-0.1781274628788289,0.027635908284722458,-0.036676643033460896,-0.14942866121617268,-0.06248323855909678,0.003451098222934607,0.03172570500361931,0.16959297222035552,-0.030314507669816443,-0.027125629272867203,0.10263735678495689,-0.010237303257230143,-0.002925452980841986,-0.05211409216051943,-0.05845350435428001,-0.086828474676779,-0.013867796541583228,-0.3131944266785469,0.10460075887633338,-0.13647866359945066,-0.08876715567587284,0.02475245969391624,-0.022051376895507097,0.17410998931322286,-0.3006766263679553,-0.11694056025543229,0.039956281228112456,0.41571074558537496,0.2894502914852716,-0.7144472184261406,-0.21028333107270597,0.2848101333465247,0.26337249031785714,-0.06974454215159345,0.008254926125118092,-0.09322369388814016,0.3936632808719553,0.10222659300897863,0.03442562455232702,0.08581487763991179,0.3808176106078821,0.15960849827313928,-0.12913113628512757,-0.040051981945544775,-0.010447355160613344,0.04349896767345576,-0.19086401706103068,-0.24626391180012736,-0.020392000603456167
136.07005310058594,1.5681915283203125,-0.22047446789783162,0.04803312456646819,-1.0801794536987646,0.05355584075893427,-0.07640876213789194,0.7160665807768405,-0.4347364745530831,-0.08437634945825878,-0.012699968404759628,0.0795384390841196,-0.11825550531915222,-0.07382201531263083,0.14116927192984288,0.05845457342099362,0.00790529632244355,-0.11257775360767472,-0.0029175762078450527,0.01904517421827403,-0.13154422744532218,-0.07454282708556309,-0.053096507316801544,0.07783853526316653,0.23329410999491804,0.13888839743573653,0.11315677020664916,0.12972773832334752,-0.10379769013291991,0.1261349794336106,-0.21681171283555448,-0.04069325173406778,-0.19024185807289656,0.08753018939895758,-0.16500660432544692,-0.10801970125820445,-0.15475806131316772,0.13238389608702106,0.270282566854974,0.08231628731055163,-0.13605847747299182,0.09024608493648552,0.18178059469563634,-0.21932944467454715,0.12356960735702154,-0.04516494185616095,-0.10468745029852171,-0.07670843673193783,0.25204329966297995,-0.28678418383578835,0.029264987167718665,0.26548402168318036,-0.20384837334681388,0.09382755594295988,0.15604056924078766,0.018118859299947884,0.046414070095353165,-0.10649017526048578,-0.02157819471164124,0.14990641289151843,-0.0003137662975033163,-0.004107891040830083,0.05761213984453361,0.056941824533265156,0.053203657757112,0.5924314768833502,-0.08429557795020831,-0.18202181528474026,0.13213393336200155,-0.13205070370434568,0.06072723076188758,0.08884880904256265,-0.0056595082095703755,0.1783421419281508,-0.27517679573076,-0.38442499827719956,-0.9456941310406065,-0.5034100528066929,-0.4755401812957168,-0.2676513253126093,0.08610615500682381,-0.17166701882383534,-0.8126834517745896,-0.08744621112461026,-0.09719600969222517,0.2179020249830318,-0.1223529604753329,-0.09113546406279405,-0.08827270725819293,0.0323849964843817,0.023291159668153403,-0.05234660832962625,-0.09257553899310592,0.02535744282004418,-0.3329083655838862,-0.10755768575927366,0.009528089212489174,-0.11374309866383002,-0.21624530924926516,0.1825886283953046,0.3149974698494058,-0.4448752577004033
137.63824462890625,1.5077056884765625,-0.5741293704404852,0.5290495066717722,-0.6088086528027258,0.7987443409132693,0.522295344070833,-0.18799548632151988,0.2271872309967786,0.11705403333607675,0.3046085410704657,0.37638136412550355,-0.0784619332177575,0.2703897144806779,-0.2931996490655891,-0.19428173405615298,-0.1097312434752863,-0.02734438115746801,-0.0026001995739438613,0.12870962118238188,0.06098483616189241,-0.0621795541196185,-0.0010503036290696792,-0.07410129518397418,-0.0863011562779455,0.0053881680037123035,0.09614309350749906,0.0030372010519533607,-0.00830501335397239,-0.0348778880307494,-0.030016578505256318,0.0872128431194169,0.03139187222105249,-0.07705797855699936,-0.07973797375134865,-0.14082965189716287,0.03678711902680121,-0.014778943217351063,0.06990675534785261,0.06888196848379992,-0.07225918841518292,0.04235392746598983,-0.021652226593309943,-0.0369807324407504,0.00022037205601676733,0.007705313552190566,-0.11716137721002068,-0.044753195427448544,0.03337288036732723,0.06426830705549648,0.026415391301209915,-0.08366556709078721,-0.06448284438753746,0.1620085123314721,-0.0856845733339788,0.03611640425712909,-0.021026249003711216,-0.05015412416601392,-0.00890090405707338,-0.019213234439150573,-0.018576830486056312,-0.1078073485223172,0.005770331302653663,0.05830635590019427,0.09497335996119377,-0.03306975924798223,0.06006617232283119,0.15266152058779606,-0.05302590822829796,-0.20805200843734153,0.2666104482296437,0.20441670739534423,0.06933455878669728,-0.03329772048111394,-0.015734731688213783,0.06569879726130454,-0.08775488725138185,-0.09874478675170004,0.45215623504651337,-0.8275574121945817,0.12849276353043537,0.11459215816449977,0.07561369685792603,-0.2419218634282212,0.041020178102322696,-0.3409746211731588,-0.11484464225364979,0.02132058984117452,0.07460638776177357,-0.15358643286211493,-0.016442442139602588,-0.002009879142371804,0.13111248475947676,-0.02972870350008659,0.08311007494796371,-0.15535279789100007,0.10398338646102957,0.4213679788033119,0.10646730529084583,-0.6057191762485006,0.037956309098262475,0.2712525813976563
139.1459503173828,1.5388031005859375,0.4030405024934206,0.3140516829384016,-0.3899095832919928,0.18662468018691997,-0.38346463728595087,0.12028082834176482,0.12365274949082744,0.02210552730899761,-0.03799134591085173,0.12448315554059805,-0.05384486580135836,0.027337890772566473,0.02773874384426291,-0.12328582742488783,0.07554122216842774,0.14297609914678006,0.049843804766976085,-0.026269308802513144,-0.10384288382760004,-0.08382530246252021,-0.0470482826713132,-0.22641035050666014,-0.09320770088650296,0.20678720309133813,-0.03154959755511437,0.029900883176864235,0.046283389716103907,0.009005403422177557,-0.1592060116157603,-0.0047481244685590954,-0.1349193213960514,0.11532899223062958,-0.13014235731265464,-0.013199955130582523,-0.01264422496371466,-0.2286848011427907,-0.09655412380345695,0.0049641594256588225,-0.10977271923118603,-0.14185118248008877,-0.15285854235943558,-0.07893226372028445,0.0011079036071296028,-0.00541149859483268,-0.10681408560603094,0.006231238160810754,0.03960833058832042,0.09260820005728963,0.02778124096341314,0.036143224714295326,0.01000595044327627,0.0386448779038068,-0.19502707936792563,-0.055374029323311966,0.10186577295888945,-0.06898010548960977,0.006457814182468155,0.056573525178863646,0.2118281507992386,-0.024530523013842537,0.07534823153822737,0.0056958147274244275,-0.0005677132816246241,-0.008849598283226167,0.009999362319595417,0.16055211746627715,0.041089803652145214,-0.48992010553276466,0.19314463734496237,0.22067410890552633,-0.15158032477207461,-0.07864624654927731,0.0078094543983890895,0.06571991814264896,-0.03775203868430496,-0.16519052710604298,0.4100508483456165,-0.3884555984374073,-0.568756208572006,-0.2727647648220467,0.33648458297111794,0.5727379812428,0.30763971799792733,0.1516228608163484,-0.09964743931854347,0.07900964439291637,-0.0769385976569709,-0.23188053705492986,0.023141209537598764,-0.029607705982589504,-0.1631148046900837,-0.2498037475036671,0.02698231544741185,-0.10854446107892478,0.05054698220383124,-0.1218183110924919,0.04510536669984668,-0.027757824514269815,-0.3268686271621731,0.16751218209737823
140.68475341796875,1.5381927490234375,-0.2033012282019006,-0.643468003319337,0.7023123507781822,-0.31301551305942454,0.19591743600113645,-0.15317697009274783,-0.43215922477573127,0.18093822630282008,0.004028677087870794,-0.1249271841860837,-0.8917318976412811,0.08304858863154095,-0.4797392004865301,-0.0062165961712038476,-0.03582965366609629,0.036946174886480554,0.0035971026088759996,-0.01662157004692954,0.059061724387049305,0.06496929766601832,-0.03557885600759762,0.07994100320867455,-0.025602720734545503,-0.01773138827513832,-0.012842903998515719,0.10873725894759817,0.0667116196735708,-0.005323374836923111,-0.040662461944753515,0.04780614120181558,0.08991948877787556,-0.05255931812406335,-0.023516467065753874,-0.001461913612565105,-0.1375761916791737,-0.0019980621677772358,-0.05857652003960273,-0.028578601040229617,0.06460802876464801,0.008148708790985292,-0.009798049026506177,0.12255044728228466,-0.09994741713897544,0.02197647838717763,0.014340991541632556,0.07103528891375943,-0.03934943575847382,0.08809028153343618,0.14138567470913935,-0.043628030961963646,-0.058972063127333774,-0.015783859899711438,-0.07871025001482318,0.05933126616861738,0.0444590022623642,-0.056775903116155206,-0.004665785475903402,-0.006937288149218956,-0.014306947881504578,-0.00036858923239581625,-0.00493521694366485,-0.0034759718634942752,0.08784053716716038,-0.009029899089450802,0.13253388576735708,0.9610696479739202,0.07098507516933361,0.10614373083530491,0.03467725411967594,0.13672756285402493,-0.182491079911794,-0.04861385331752862,-0.4942414231695438,-0.14624333767062794,-0.32794665028011466,-0.8988099050798241,-0.578591568214008,-0.18299002400434636,0.506090584464465,0.0632332713609639,0.016822782882096408,0.4601270105098762,0.009427324114891538,0.12094799878831537,0.06463674430875156,-0.20999979908437544,-0.0152754806728343,-0.11256366630787273,-0.02906990279378585,0.11891853102681069,0.503590522810835,-0.013643339971780985,-0.09628886998528882,-0.19258676778950093,-0.0835402057312529,0.10708604446521566,0.40384029164373414,0.26269754730024786,-0.1282052575439947,0.0015493450378015472
142.2229461669922,1.5382080078125,0.011692431489776944,-0.7073662618239046,-0.21602425230118083,-0.15635760583104924,-0.48731935714939956,-0.2664758845994115,0.16732269749767387,0.0059894808664135366,-0.01216959764252622,-0.04109616616615848,0.00900882649321582,0.028836050064096286,0.06759345324844669,0.01457003780362528,-0.04147508290970131,0.04915938753492258,-0.008394957311795235,-0.038940988012897845,-0.026179184223107457,-0.06391644853518412,0.04460274233233952,-0.09200508076994404,-0.023253141922154368,0.06574656579327919,-0.0435542519704696,-0.065123517619477,0.0666102078779362,-0.0020763723655105176,-0.05299641348856826,0.10032395144699509,-0.06927388197858746,0.022625186277668005,-0.00011109834841471159,-0.06927821043943996,-0.11965400816749105,-0.08001294111637089,-0.08801208076757991,0.07989061009235987,0.05952876063122643,0.02867432991878923,-0.03784460651946889,-0.08211669859582225,-0.06188680665915404,0.22607038054588946,-0.0222541698092655,0.08327704554246608,0.07580581436610241,0.045525495175503514,0.047218832960698384,-0.10564444816905155,0.10714955358825684,0.0757081226464601,0.04261280359414283,-0.13374538706536757,0.007190824216778033,0.00557532087888094,0.19170070133123887,-0.03568310961134171,0.11749458266368663,-0.07271853867363279,0.021542735356389005,0.0668429679516979,0.022724180206701434,-0.004523753380170694,-0.007762850946522505,0.16234598069000636,0.21374640111711188,0.7630062817540858,0.407906121616756,0.025075195034394065,0.06416806918283748,0.05719657318965373,-0.02834632898150533,-0.033154433448114494,-0.32387714510526805,0.4165276324604611,-0.29996393174038144,-0.5018531876818012,0.15992369282099422,-0.2730430171068929,-0.2523149399150513,-0.3031399484189277,-0.07030406509426954,0.17261630685912574,0.07659914298004088,-0.05409414184256035,0.003999581558798271,0.08280888676248888,-0.009054412709144886,0.05862093160567899,-0.13509342140792427,0.11160930005643833,0.59471809893591,-0.025778339628084967,0.12231331956123855,-0.04446146191710654,-0.13664132774997073,-0.5137333900448212,0.21398707741436207,-0.6600869637435278
148.1758575439453,1.5486907958984375,-0.08862043303508962,0.10334719251013608,0.7440574583486079,1.1275231183432601,1.6412955266031597,0.10739949409105025,-0.6540588317565385,-0.015268516131891202,-0.34956941972321964,-0.40332782950584767,-1.324423240164564,0.5972798487408771,0.4532616053613812,-1.2419387901155803,-2.5082039506983436,0.8366920367460517,0.2522333496076977,1.372597511307703,-0.8671803415680958,-0.1764328146607247,0.13565710476254542,0.7544875009885005,0.3033599147114027,-0.049272203358346166,-0.17335080066322697,0.3094905143818377,0.14395920249159547,-0.030825544591309054,-0.06778157817479528,-0.03152119446360016,0.2556310933997073,-0.015317113711252271,0.0798987235413381,0.003454646527016323,0.05058580670176977,-0.04277974606492757,-0.048025800871567235,-0.07485487000498883,-0.003827046068339661,0.018090473552464556,0.10311520647166385,0.15285159223702746,0.21258448813682052,-0.005299938226827191,0.20618491704404415,0.09107322804832053,-0.04305400280119016,0.2596722795343091,-0.13005480007965245,0.24572572439980492,0.14343400767277353,-0.05472056085827946,-0.015517853630728643,0.023253399552720735,0.001453400171882024,-0.020312888476847063,-0.0482551498685572,0.00012230681551854894,-0.003995740252560836,0.01670326924790125,-0.013728249804533259,-0.054443772108958864,-0.04604355552753929,-0.034856231860141425,0.13632457541782297,-0.5184796103549578,0.026736321545375558,0.13866053814859527,0.12320531621177841,0.05950500856965599,-0.05143135769283352,0.03249509396666485,-0.05080524037565981,-0.3130402898885161,-0.06001435781058812,-0.052807370444889146,-0.34685501092343357,-0.6117213947823175,-0.006251755750468388,-0.1839880366856909,-0.11828808521871514,-0.1790259832081575,-0.3522750594211907,0.1870314017225446,0.6159404127192487,0.4022143239163253,0.1882784336912133,0.148972178086735,0.018934642821770813,-0.12919806692719124,-0.0001113030252707925,-0.10515053678374502,-0.30759382826218196,-0.5601041237784239,0.06394977792477272,0.029483407048953362,-0.04769659600554585,-0.13412407836060342,-0.1851990720994596,0.5896005841215248
149.72454833984375,1.5283050537109375,0.8712313335310605,-0.762825743126219,0.31983149728585164,-0.31252303571125345,0.6359477416466327,0.2351662185774429,0.16428574906265128,-0.31845747762286863,0.22101623560407113,0.017296343072178373,-0.0038789546371063577,0.042317708493199366,-0.0702600075912988,0.0689527153614249,0.07843261615630488,-0.0016374192720620545,-0.07019584507751675,-0.00885891308966826,-0.04593596211992895,-0.04052264272238389,0.018316064311485525,0.07978398047106315,-0.02382057047430031,-0.020687524469889397,0.06061337253160556,-0.04340828702944828,-0.20018371386368655,-0.1825928213659934,0.2404582822701305,-0.06958599630035935,-0.05072569966309079,0.04146104519986248,-0.08078891323521875,-0.10919662639323025,0.03695321194322615,0.05496949005122357,0.1129867048545207,-0.05100788848888936,0.00549101033315122,-0.18914381576756897,-0.10768394316900988,0.043744484310309084,-0.13090451334613662,-0.35286581496735825,-0.07491755041572948,0.14625586386758851,0.14345096451424502,-0.013000338823426508,0.08987309100733056,-0.14897098821260407,0.07323081899981111,0.09312021870673455,-0.03161009375749961,-0.03534942042492433,0.17042395729304902,-0.03543161939598332,0.15000612252282805,0.12605888162917034,0.04013765574472976,-0.002979439806646075,-0.006443629466273934,0.009946313840903885,-0.0003151605932436034,-0.003870826665621306,-0.05047318918580218,-0.026391615479703815,-0.06471608510117674,0.1888661570526369,0.5775443376721565,-0.34867123453648896,-0.03187927630232905,0.025366069315335773,0.0683540555608018,-0.06531250889430133,0.021519375180694023,0.10469120703587521,0.09994282485300683,-0.13072785744019616,0.8125001492157364,0.5172361817268687,0.28403336435135573,0.4665498229538767,-0.11657673027694689,0.08463081846383758,0.10433001055945715,0.005921971531601872,0.004056556189059507,0.20436379425023704,0.022627473501066257,0.05270505165632595,0.031183015052933468,-0.03121505522925947,-0.5005053152198825,-0.02442752429660981,0.04782211715718058,0.04542584526145472,0.012830198397393732,0.15612442446019814,-0.14420235629445138,0.566775595301869
151.2528533935547,1.5281982421875,0.4625773031046831,0.4419569885697726,-0.043520275874841044,-0.7097632452171919,0.09436420013190941,0.3886372277272566,0.2974754454488827,-0.1760220229273832,-0.1448052372180498,0.18188011909522048,1.0466986728119303,0.05755578006732815,-0.4263818823996305,-0.12365799052653684,0.24415338859565372,-0.19813028858334347,-0.38635543448029913,-0.21892622402852102,0.18178814012183445,-0.24067406106901185,0.9774651653484133,0.2587747889191353,0.03996692780772377,-0.11280575237451032,-0.05061787574832505,-0.07140849023686968,-0.24688088779690628,0.3927378282945909,0.019642808542446183,-0.5135840862919505,-0.016794188081415876,0.27546660561152636,0.13938025390696915,-0.4363576226523631,-0.10162412532596708,-0.19349076694683792,-0.07546493284133525,-0.02590930717704267,0.004083861119020024,0.02229572707159852,0.09942562850829229,-0.018780472837122725,0.003125333629647023,0.10022346284011344,-0.1902587002600822,-0.08508751757326175,-0.005219710995977615,-0.030540137385849757,0.02409681973805415,0.11237329896503394,0.0340115160274691,-0.15325124199365556,0.30821105752246514,-0.06868775369076989,-0.03902930769163126,0.08863859936008964,-0.036536812823262585,0.004455810967181509,0.014643666319689412,-0.00775001057943304,-0.42622926505559877,-0.15900893770016558,-0.20438877377923226,-0.4040281968254988,-0.08310000162296603,-0.1972527401020293,-0.4868144603945951,-0.003992361422850822,0.08036432952976579,-0.11211096804867654,-0.1350672352972776,-0.6916806353664241,0.20612130077817659,-0.2763919487588797,-0.738434070763327,0.13037212233167297,0.12678445868433025,-0.095582609922486,-0.35940934646992573,-0.2228916280475839,0.025235315806097572,0.033820839331308986,-0.40354116047574623,-0.1539801738298163,0.04444575946381079,0.001286069427275161,-0.12409661209214422,-0.017929213856753126,0.0009232691723119611,-0.017012801064890358,-0.5714226169192255,0.08899613815181741,-0.04679430907429868,-0.043708956317517554,-0.06332561100448293,-0.025786807727702074,0.0010329509216985347,0.22772138406476827,-0.10511514803296293,0.15913688017336472
152.7810516357422,1.5377044677734375,0.03318344244203443,-0.9036661357535022,-0.070564674964926,-0.3954166095156606,-0.2528152980263619,-0.8008086746523737,0.0631813904697033,-0.11603180076578445,0.28465973924693266,-0.6646175665312066,-0.1523242436434643,0.046691656916821436,-0.10586375977906842,-0.3172870428658831,-0.0641666494008775,0.057670163679523094,0.010899807961580528,-0.056457332373363964,-0.011233943566964638,0.03004403408340399,0.08363660798069542,-0.002776973676267648,0.0007086771672414905,-0.004190512129360314,-0.007234660755313398,-0.013910476269494843,-0.014623325707481663,-0.10948449665125266,-0.1470960457226685,0.02116409438288866,-0.10448913657734508,0.08098149884207531,0.012753945536153152,0.038753627337047784,-0.04064777819562076,-0.03125685007677453,0.14410370487967583,-0.15297156367131828,-0.0882957279368611,-0.049708798795152505,-0.12759760715542734,0.07378252599272445,-0.2606651753805944,-0.0004356819407279967,-0.17549517846259466,-0.018642950510028667,0.08262511185771296,0.10815215508122758,0.15571387606496076,0.16416419684318218,0.017086581257340607,-0.09989694304467721,0.07107713994694567,0.09168345083362296,-0.09460275022011908,-0.03138508465485525,0.07395497311832122,0.023815616880638144,0.028820080250639812,0.022253432920322808,0.07982146226107972,0.01588386037082112,-0.015946196124160983,-0.008344380495088207,0.05798408464740922,0.08121435118958101,0.003153771901272265,-0.17553633064787566,0.05801789492243124,0.05933902206080768,-0.7048819917657294,-0.14560839729280467,-0.037666048941864594,0.08057421786541603,0.16590837407199396,-0.14497282641996223,0.5115902526145838,-0.0464233710968551,-0.07046172681032195,-0.2632766037579216,0.045745906607327386,-0.3555895694306196,0.1557051944608333,0.11568259614883498,-0.2220641227986261,-0.4318266512905083,0.05774640785822064,0.08686662185509116,0.04409923376278804,-0.004622171748537125,-0.13353793115141244,-0.08756204252581264,0.059234693413693446,-0.03266056009945404,-0.2786211660228829,0.10148831027569534,-0.008459365850145723,-0.017672255921703565,-0.48398856536719065,-0.11548682932228145
154.31875610351562,1.5189971923828125,-0.19294732133099465,-0.22502676381825262,-0.33875516328792155,1.583916067848087,0.02974891940170644,0.11880445055381943,-0.19687564363291984,0.16008516764021238,-0.07633540468809233,-0.34740393971725436,-0.1489077073413662,-0.4528791694280259,-0.051210276856547915,-0.08477019506947919,-0.04943955186329623,0.005520323719213798,0.014089598415516226,0.2690366621899845,0.13314290382254357,-0.052809937968189086,0.0022199081539701405,-0.00807845339400646,-0.02712501283858021,-0.038380230397865096,-0.06644792271861251,-0.11195550582075885,0.09032664447665086,-0.07142444645796543,-0.08275632928709759,-0.0535617126647728,-0.06502732816967313,-0.00887636416495136,-0.02861743085423365,0.078192475165014,-0.09184958912325172,-0.024597924509855533,-4.8131829868638953e-05,-0.0663565788336517,0.016679818125429378,0.05740344493520419,-0.11424173589671903,-0.19436702601332181,-0.05647889697096714,0.009229693010436668,0.022493236806201557,0.02140160649204525,0.12156393292290857,-0.10426256172236649,-0.09224427502028072,-0.10998290528159205,0.019760204301342232,-0.006353408268016959,-0.09879402484671596,0.07913374158627808,0.05413804809005881,-0.07661436157115482,0.02322932567761671,-0.030330000934921802,-0.03425453292561793,-0.051644765121481646,0.07471282613205606,-0.07128244948458615,-0.07056269278929647,-0.015107721688814402,-0.0021733054975785343,0.04901496196386436,-0.2518798193279732,-0.19816140700363996,-0.06176432725033047,-0.07188685101254644,0.008245856764251809,0.22036030851703117,0.03584670714775525,0.018885656851815195,0.06933409369587488,0.487020556372549,0.3087681122389063,-0.2952561915620258,0.3914649985975257,0.4383009233343089,0.14152315032723478,-0.5720445198981567,0.1213608245521249,-0.030620682934553875,-0.0032640490415629646,-0.11006914800027584,0.03462024461079191,0.1126625792923593,0.5305865893159429,0.04891401606575918,-0.14094517017477018,0.29988670804533424,-0.04383569562676695,0.5900671102442905,0.24419251786455765,0.04102026588344261,-0.03225659075521768,-0.1427993070693773,0.01199905654218402,0.022014773974291996
155.83775329589844,1.6378021240234375,0.019947929212867407,-1.8404858304123761,0.06488457855553267,-0.1838599843408078,-1.4370484380685462,0.022674559731573868,0.13421639018254705,-0.00681137398209321,-0.08166238707844843,0.03244513513828316,-0.09680607038066788,-0.07577544540871595,0.06646904936895585,-0.11560375251490325,-0.13865479219992496,0.09423354165920744,0.18363898422633004,-0.06795558824148235,0.08173154149932793,0.0020050520943875726,0.014277208316796172,0.10681558606164736,0.015908320295200683,-0.15656387350496467,0.23318915861570644,-0.2290781918797939,-0.18985321251030415,-0.2072102566602036,-0.09297000999123534,-0.04594961580573497,-0.09750366959248968,0.08196604636801064,-0.11540074680813539,-0.14509035284349217,0.1609886085950023,-0.011304284917996734,0.10646094899175709,-0.09686860276685935,-0.0037129687734577393,-0.004491686874483034,-0.12666222813177852,0.08305966940321236,-0.16078317213741827,0.28743520224641766,-0.06545455293177044,0.07714736563354237,-0.1196200433616558,0.2328257051169772,0.032859010707944246,0.010908668247274881,0.08159116872823315,-0.2215461160255735,0.09519855353922455,-0.06148713481209397,-0.18006528611237801,-0.12788824443022295,0.02834010852531975,0.09904826068806324,0.016020257078843286,-0.0014141790103646412,0.06152705898565618,-0.014196361115615355,0.121861419746484,0.09658309329364058,-0.2886163275446328,-0.5993352783495843,-0.1222058645306761,-0.25643615049888363,-0.5578680514491071,-0.12481578510976254,-0.02959640791811953,0.8261983451561035,0.07270876653579375,0.27205703685369315,-0.21768650699767678,0.7437109107840443,0.41116923093311053,0.6075728628625514,0.6644857095703864,0.8121940182820253,0.6016408226044723,-0.15452491560646292,-0.9011276616047279,0.1254537141072209,-0.10550487639453253,0.04919201678758309,0.22175956889101758,0.1396761223916776,-1.0035865052930104,-0.06056178156583088,0.014695540068509828,0.882364459221696,-0.6145661920535161,0.09513286457803694,0.1231969591369343,0.18731423447240403,-0.23389369312669572,-0.04585016745164988,-0.4592836628481658,0.29435795949953486
162.12054443359375,1.507904052734375,0.16971135195824116,0.2785474598738569,0.35543887182323836,0.4899432820862926,0.22497123376196776,-0.038697629754512186,-0.11896558193511654,0.18029847503503324,0.020816083996415907,-0.025467665602336653,-0.4696864695243734,0.8704160656926629,0.11627136224233903,-0.14169388323694113,-0.025226332902584844,-0.05967098702085059,-0.4555236197212734,0.10060475233013849,-0.2175946298372897,-0.02358985364971177,-0.01875732602104945,-0.011020019191738367,-0.010122030293121337,0.2248357782385047,0.045540194542280386,0.12291269076863227,0.0645547337771321,0.033295829502423456,0.020842963160879698,-0.004868491419129843,-0.016067567626203302,0.05807896848952617,0.008317158343652792,0.022654809596983114,0.06292251661305116,0.04430742313551565,-0.09308849913190778,0.0131356338368751,0.027338517306630554,-0.009720825780185016,-0.012447731948071139,0.008806430973841872,0.02996276957566925,-0.005458029533665292,-0.20143035166493262,-0.032109154503828494,0.031235524850759443,-0.23517961194181936,0.024479339910697572,0.1992396552663999,-0.015127703200136984,0.008123190369073543,-0.0653718831992976,-0.10479114062565875,-0.0676746583043912,-0.02131427151057691,0.08742620969155823,-0.08062045613249318,0.08155738633123889,-0.09705308615293795,0.07164226004920884,0.048694715116082254,-0.0016420266124604747,-0.010173811925912286,0.009003600305328081,-0.013014510661951027,-0.1504003765056909,0.0459106243904899,-0.03756402879598159,0.2685192846824438,0.0540249542643258,-0.0005796678242876289,0.05912759590401558,0.20253113367999492,0.0506503601211438,0.47418331287793936,0.07868174440416079,-0.10274258957350957,-0.06528690864903954,0.21464403710788466,0.05162020732741436,-0.0006980802174821055,0.24117834470888244,0.11626095739367795,0.0880679455352576,-0.05160396544801005,0.028501080439458107,-0.20511662949479043,0.07852389770520103,-0.11641659946263946,-0.11521866311254317,0.06912539026464722,-0.3318610001602514,0.2583086366952596,0.08340174031800868,0.11625977391437886,-0.08976796410575066,-0.07536789623299099,-0.02889447003641346,0.0008322797531655213
163.62844848632812,1.4989013671875,0.10855066406354683,-0.42656232051728815,-0.4842297710576734,0.186883166191004,-0.4424546169578549,-0.4640732032478646,0.24643322194718206,-0.23747078770149788,0.05168445287745554,0.06234885798321431,-0.12647288910619547,-0.03663108727751089,0.019816663002458736,-0.1073412132861687,0.006390886872125057,-0.02614234604216743,0.03890912782989679,-0.007416689569020767,0.03919923591524605,0.024636083437311482,-0.09562311722305933,-0.030380931354144203,0.03683211289793691,-0.01910482998324729,-0.023007761884059078,-0.021357048606627585,-0.06408174462365997,-0.017526589979962086,0.07126172018709391,-0.021780792664309056,0.021305674608874392,0.015418766289220917,0.13579304934934355,-0.07736379779735218,-0.0161494791953681,0.050804368989099874,0.023547308412317,-0.0061776473583314215,0.031840550692970294,-0.06612936788138295,-0.01846712432246315,0.12369942757198121,-0.01854707913672825,-0.07336339503891054,0.15054502495887293,0.07026523306072138,-0.2087901285963574,0.06891569089117251,-0.05376960105895585,-0.049707527418847014,0.046061292963031235,-0.03567001143898392,-0.043268040414792555,0.010799058628331661,-0.04399211848985672,-0.08630539764938017,0.08663186781969084,-0.10596382612291934,0.326044800207955,-0.013647937811286166,-0.023110967246643552,-0.004935728094747564,-0.00038441444744066744,0.0020597374717012708,-0.01589841592013132,-0.018106869001927102,-0.1941895944195659,-0.08681973705137566,-0.23915761596399057,0.45480275563249745,0.12565161537108047,0.09185164329323685,-0.015509376243765177,0.06509636103754785,0.14336986611388605,0.00796263686954888,-0.09000967853597845,-0.14466657371557834,-0.18308123363129397,0.01772523498418506,0.5580588320935651,0.5834468360823081,0.2776222379082277,0.5151741509151846,-0.3005712747380308,-0.2090793769142913,0.03698425484459441,-0.1494134328671766,0.0018400435121186387,0.008482831228290097,0.025553937629151764,-0.3214605969294158,0.007130834994745559,0.10516304151382061,0.05076239627219704,0.23380879580111646,-0.021247648379984378,0.41566225932854106,0.2151080892694871,-0.06398759700616952
165.12734985351562,1.497802734375,-0.0761986935603364,0.866323421282342,0.34716175557257023,0.6931199833978366,-0.1543292963567308,-0.23323578216645502,0.09065192536133258,0.1542906529551547,-0.6718075521834485,0.0043614330439221485,0.030383700529385924,0.1275688688233973,0.0654496752651231,0.08743752114549691,-0.06268047535043682,0.001918258730766572,0.0933182988375572,0.0030349395198007536,0.08930803479546169,0.03982908647435464,0.005816364470533603,-0.07001455179815659,-0.013316964913841812,-0.002247602832368599,-0.008477497540180687,0.11099738695415667,-0.005766088821417187,-0.043126412580406406,-0.011038447296532791,-0.02328526926974942,-0.03817948981824725,-0.06741575901927255,-0.014268280550901857,-0.02448990924637421,-0.007885333204087824,-0.03432888966111609,-0.036876157842000275,0.011053253725138813,0.05730418637475816,-0.06700314143214682,0.027755123040533132,0.006862136067664313,-0.003675378032230378,-0.10838627245620092,0.07948867947408579,0.007465517174269675,0.041669759997806574,-0.040000625598695896,-0.04892249240364325,0.022486329206296965,-0.015726631558502596,0.010977841450175186,0.07203197224017865,0.007055870792529137,0.0447270096014996,0.07896125450434958,-0.09931829499168142,0.04840754158111019,-0.08215052630303737,0.013951145288256639,-0.045872110136071696,0.010546817201005114,-0.019414414650396616,0.06956786929852252,-0.010068982364175102,-0.02175535660519295,-0.07991169154914886,-0.1145373172998993,0.26529350662554846,0.1473392509599761,-0.01572806298925914,-0.6535301127642725,-0.04304527394045588,-0.044351347194934075,-0.13823696330918642,-0.06566394651966398,-0.07985174642496012,-0.4280330007862356,0.026073010601934926,0.21073635066401655,-0.7170951334082746,-0.2352456087790806,-0.05015329701611113,-0.0657090812308877,0.02119989982848728,0.015523056239271069,-0.07572610686206234,-0.12410885765811062,0.07783172764732553,0.0374490253033366,-0.04465324919795739,-0.15725559548688553,-0.0704050489754754,0.10756856309161218,-0.08407950326869346,0.22990773730350816,-0.023117246284118022,-0.4417015963953026,-0.12818991985254527,0.020037159671058444
166.62515258789062,1.5085906982421875,0.14476134906457244,-0.1469764884583852,-0.39805603010194934,0.15665502003479326,-0.15589774788367589,0.021427108611232107,0.13854841701621504,-0.04078165485447443,0.09829737941929051,0.025096159699545748,0.010396027804074531,0.0017415862717461094,-0.02570169579947527,-0.026293981285522645,0.011255048558308963,0.007465261293576063,-0.022487476378055413,0.021090900196985715,-0.06108708789012686,-0.03742928130304568,-0.005446206204345196,-0.029883385804750404,0.17766718199748566,0.054059334671537784,0.03680402345813763,-0.18774184103113314,0.08980052108029458,0.014890383796283421,-0.07387675604211007,0.11914638806226828,-0.00963777887612329,-0.016607979143436362,-0.036875711081871716,-0.012022490678600868,0.01637418540270792,-0.038703345277921145,0.05283993326462029,-0.06256209356240809,0.03148869014247894,-0.02549148575553536,-0.03138807407549924,-0.05224369166551183,-0.10108353500998994,0.1584930596717593,-0.008112031989666495,0.11172917405503513,-0.0028977806966629313,0.03615309029815546,-0.013298268284020226,0.08626704955773208,0.06098513866894808,0.02387578925485957,-0.07389307029494194,0.017942927845197527,-0.07359404932523257,0.03440502361864092,0.03522613597173844,0.03301805150601398,-0.06497694649309826,0.05854300138623809,-0.07436772649753275,-0.031627412011200264,-0.01251019953608029,-0.017396308243863744,0.027437875629504248,0.0961733600775178,0.15134850413196077,-0.3468151497682653,-0.42144009183020414,-0.09870719919430888,0.022314558305325933,0.011882703186942928,-0.0075948519305587825,0.00021084733327951088,0.04339855516806007,0.2575567636766045,-0.5293186320910022,-0.293442333561639,0.045332036392013775,1.17808798847729,0.030222372745075818,0.25102853375629686,0.06048883722557714,-0.00758732861561018,-0.07174953333638569,-0.3816259681390695,0.12905781042182848,-0.5860778015450793,0.009975819790416986,-0.09680512735815128,-0.039365539028288335,0.16071047632751922,0.008710930448804905,0.24693051777959227,0.22016716934028102,-0.2276622785707066,-0.23490064523783818,-0.2656782986442416,0.3934201795899788,1.756355519782819
168.1337432861328,1.6279144287109375,1.7693991378236795,-0.011689869002891571,-0.05438406577062954,0.3399579495427543,-0.5575175718272232,-0.7285644476627353,0.2918914770588038,-0.19619517467340084,-0.01935151682769628,0.22926949015471434,0.0442733688078092,0.10620922788891678,-0.039321548200992415,0.08326993307554957,0.0016597285924419287,0.05980385823215,0.0010039246021891742,0.0466717670621664,-0.07865380182397545,-0.014157088044528943,-0.025689305563534753,0.10009137913201509,-0.015905185208648167,-0.10459257775175629,-0.013198917607967809,-0.00124138961755549,0.03735879217489685,-0.07818688451444121,-0.01428929172557163,0.02979035968263773,0.01047060781221721,0.05655890722619837,-0.02815215511819893,0.07262848648028607,-0.06969506135404083,0.012032230770956802,0.05846280646688405,0.2593301505118093,0.1076355029558348,0.0010596506197809996,0.11754019091932577,-0.1397816566169911,0.11737868204778824,0.16328064465453646,-0.060161988869957383,0.031600564628004243,0.09020845816823923,0.06857361853932893,0.02681283428861948,-0.06392301042188381,0.16736706252874434,0.047521555104712135,0.06821039708163353,0.04189624856174608,-0.12424475774203565,-0.05094580285121268,-0.15717285217692045,0.10868200390989362,0.06163473017405714,-0.055552003921249545,-0.09794052271210954,0.0005534228550993856,-0.06379780576278306,0.00823769716148493,0.046144916340938744,0.35019439453914414,0.013982547401919551,-0.03391592618938522,0.26349095419698987,-0.33298104840834464,-0.06111204927046416,-0.1518004850326007,0.13227092155753,0.28908809955346204,0.5125432329011355,-1.0088824900572133,-0.14140171937266674,-0.5810481927844118,0.28107494751959516,0.3511003146485425,0.3672414263087135,0.08236017002335,-0.2538310446465931,-0.1185367698493166,0.3866628518194334,0.5455225298800958,0.056807120469175014,0.26818007620655104,-0.013241311632314715,0.44934654555196174,0.001358602465878156,0.1726251779690546,-0.4989750109581206,0.701315106338929,0.5663088326922189,-0.5535335156148604,0.25315207198736195,0.7334743390822814,-1.07139583456178,0.30990146796181073
174.3467559814453,1.53839111328125,0.16445080837173712,0.3136225310351789,-0.9885316169811462,-0.12296640519791516,-0.29909051106964674,-0.38891914119236703,0.05850076082246234,-0.015376317150417762,0.04625278214820086,-0.09988398972363588,0.019617177830246663,-0.021695113105760114,-0.24984150559853346,-0.3180641211935871,-0.3398897083515886,0.06062187679989236,0.01906876831063665,-0.03652456660550047,-0.11155722941375855,0.017561882263640964,-0.054816931993682594,-0.07285712922610856,0.00560412286694338,0.06905414944328012,0.038726493901016804,-0.017444792092563437,-0.02129315145997617,0.006105120473241603,0.002775534252557993,0.007799847841015133,0.0014938396480884194,-0.0074237944065202125,0.007815173145359367,-0.11629260341043142,0.1453813591593271,0.11562777661455331,0.05718199598905032,0.028031262966682985,0.09754779833847721,-0.08731617709824281,0.13481931807211156,0.05227592042251502,0.16954612713538048,0.04252641079686087,0.07595755054807588,0.05367824667576893,-0.08583535873922497,-0.08228065229515083,-0.13338159208643108,0.00775315417792917,0.06329924035216422,0.034995670711813434,0.0770177199988138,0.0617743121151723,0.17529870707880107,0.027910028417645366,0.1845956581257101,-0.06968929701804359,-0.0996354761859998,0.06482425556115402,0.03297485219711265,0.0019814953088988494,0.004737145463897394,-0.02285367545187049,0.010943005970805811,0.0018802030196833283,0.09938801321961932,0.790573555290773,-0.04477434887227555,-0.14912913617583895,-0.09267282492352061,-0.4515909795849027,0.022513291070916916,0.08044099422197416,0.04822902676950844,0.3351915634951013,-0.18112255873979866,-0.13478024065202218,0.21275481777157912,0.35924377924158163,0.03182064226294003,-0.5020141187293621,0.011937446714400463,-0.45725949774888097,0.07784551382140484,-0.05751683016537225,-0.1298461499229646,-0.33170426337470643,0.10824887706499768,-0.012201075556666633,-0.0014107469656848579,0.008566094426261356,-0.10518813667774773,-0.20834377874686758,-0.0616017868344078,-0.5747591104762023,-0.08249069088020183,0.06190561263183956,-0.06689146739684088,-0.4354619199154226
175.88514709472656,1.507904052734375,-0.14645408839221252,0.06028422487962541,0.7523820529280723,-0.09154435640983127,-0.22248520209168937,-0.2688626992311603,0.41701916143568196,-0.3132568507909582,-0.020143264676470693,0.1640442617291282,0.143637663712665,0.0015359206190935567,-0.0055887612175756236,-0.06563275330632266,0.04115933436060819,-0.028145481317359455,0.06872055125986062,-0.01635626174465999,0.02679390783640051,0.0035811515412169665,0.05911880492081238,-0.0035940295625723376,0.03954895116027701,0.026145027329558493,-0.0148928482204588,0.0200251196648235,0.029537562995661758,0.054061580199626084,0.023515561626080952,0.10712241554443946,-0.05013329878525027,-0.03255014096060179,0.047746987164912234,0.0015518769221600135,-0.05711244425199439,-0.08380524080598224,0.0053165360543080895,0.06153857741683911,0.06131077984218963,0.041844911098418314,-0.009050837190003042,-0.05115777404007108,-0.11825100241938671,-0.06320958647175316,0.021521192374115327,0.0034309156246191703,-0.0460534913795692,-0.06753181004556165,-0.17589214203808504,-0.02183427410170629,-0.10939173120134502,0.08724818202106278,-0.03836957671721941,0.02884673768383586,-0.047452730343063035,0.05674630732715042,-0.012767246106318367,-0.00785923790817698,-0.039127061719142785,0.030459175634902712,-0.0019332601855167105,0.0012772969322057384,-0.017193602003971926,-0.09799048138937685,0.03136925998429194,0.22536762677129338,0.1280697011562237,0.21475280128831162,0.15400422377076833,0.1518221403480827,-0.14117914630262351,-0.035218221040747094,0.041221978973423855,0.4120491755078453,-0.20460992227663405,0.31181212448756257,-0.20159537406008526,0.31547484657695335,0.18944952620223227,-0.2722492107756386,-0.20833694197179847,-0.024432863387762058,0.04511465067521975,-0.3238799516346172,-0.3912913595010883,0.037993448551991306,0.0035334275465672502,-0.009744894497922256,0.06543600841338694,-0.014689123514763452,0.33035681799077576,0.0030804706338353575,0.2371031285313504,-0.061608778671208154,0.008868532870669982,0.05568293926334215,0.08161705153977827,-0.3540518849585007,-0.23986185518518083,0.06841487263475146
177.39305114746094,1.52850341796875,0.3214844940384558,0.5598937757059471,0.484095858096965,-0.7879943759868698,-0.2677154985742052,-0.18841804579534224,0.28068786225330206,-0.6972034488105284,-0.06384551882663841,0.03252271570733586,0.010723332449493417,-0.11423969322058472,0.05340710589916559,0.23127424479028008,0.12308021169217657,0.015550861495545331,0.008221355261170946,0.0005469753516232252,0.057471368625005445,-0.09789105247243327,-0.05300156812569561,0.07382256775130377,0.08222272635031844,-0.04053524718335979,-0.04722794734335225,0.039548834518034065,-0.009259764903480364,-0.02539684249670166,0.011801234738554265,0.027286100004940618,-0.09567141974142836,-0.11616312795684226,0.021915055764954717,0.11532606727193,-0.018425500863215663,-0.08264042599361537,0.016155862235713334,-0.0614484100166226,-0.10703718519717716,0.022888112389830063,-0.010427740943743644,-0.07868236654347864,0.047916265672184294,0.0956307224505548,-0.06718095996740325,0.015094177928196943,0.07761008926970739,-0.04846317133097122,-0.06259094442247021,0.08101140869922203,-0.2218332189339134,0.010457160045634864,-0.0011730953390163557,-0.04454585875623989,0.06763894913696478,0.09717213881258971,0.14156532570642574,-0.012540257283369854,0.07642924579648275,-0.028575156613507968,-0.056842879579136196,-0.011504122105362998,-0.00908521611252051,0.00032447566740660726,0.012786346678321514,0.07366395124508453,-0.03715036866496881,0.27173281640675057,-0.6396233708248519,-0.09932742762013727,0.11936930377189121,-0.4335489911381629,0.13886305675710942,-0.06944983821670972,0.012563570519763288,0.056987583407246474,-0.4691782297980598,-0.03894517029585359,-0.25848906723154647,0.4342143935388231,-0.6341460973564986,-0.6229861626333177,-0.06706879574067492,0.16277517931271307,-0.13510293331035977,0.08850137852369239,-0.45208904361815133,-0.07367972513958694,-0.00789177977600325,-0.07890206918566497,0.09686509883571243,0.1276296914820214,-0.13540617879654412,0.731236213716754,0.06463670254225484,-0.004993509557587733,-0.16596081834187676,0.049143705061740345,0.3992016692116427,0.17564820654497348
178.9215545654297,1.53839111328125,0.04936505093912694,0.43930671524704157,-0.3219937241282328,0.5504208618977574,0.14460760884835325,0.11641702157381206,0.4299368653401334,-0.06620493920155603,0.29044752527350637,-0.14553988482571098,-0.045553455975269455,0.02998157422293619,0.010453329846458984,0.10184508225533577,-0.08078247036550877,-0.00757862282320333,-0.028884218200089,0.03952606403772127,0.026183628387116867,0.08288019247047168,-0.012531456139039956,0.04860377430313595,0.09768679097482079,0.019695563576574534,0.11106877597622747,-0.010197699512319186,0.06899912942868323,-0.014670294522713375,-0.15392616408920762,0.0457731498835792,-0.1550653144939713,0.158954869152738,-0.08426758432357496,0.09260541954096788,0.07715317246107138,-0.10096269951455501,-0.08215069183122678,-0.06738777121000628,-0.10391617651745161,0.1303443108623467,0.12407167486813231,0.018172262422124528,-0.09645925368642208,0.15443774330385218,0.1916144635192649,-0.11717027018103937,-0.11905224963024122,-0.021443182326101984,0.05717980981597659,0.0011164550100901292,-0.09435287512249074,0.041887243955630926,-0.06598756349366748,-0.10654439377112868,-0.07446198463648174,0.032379902893515625,0.008837722379355227,-0.1311676149251824,0.051960335833464315,0.0018094613031403326,0.11482437035224764,0.10806947036836526,0.003926813805626435,-0.1361545288661072,-0.010176305528887594,0.054694823287198706,0.37500776751679493,-0.34323906117943676,0.038108778095498334,-0.10858262721638684,0.053476158896277166,0.08251520072377712,-0.01952355993043275,0.11906242230226712,-0.014390620883828099,-0.7927855970270866,0.40906697548529714,0.3887899879650806,1.0177284175103802,0.6791726711847368,-0.23271812673740574,-0.23256595289741774,-0.06556568308521402,0.06239913594383468,0.3594973147895961,0.09405957809492571,-0.12356696411783184,0.12253113564178325,-0.08071470570454928,0.13448879206810654,0.7527473107615786,0.12321216366722897,-0.20882547174213584,0.04241824613145213,0.0504015126554993,0.20180686782154228,-0.28673816687261394,-0.1449079850615224,1.3319803216015298,0.556833123234847
180.45994567871094,1.7378997802734375,0.3865011960535173,0.24666340321430597,-0.1347944970857363,-0.43231033927468543,-0.37027636133678954,0.6871046629732194,0.0764098603217962,-0.042387361172946704,-0.00940409472785547,-0.089957953227594,-0.014477949922174266,0.11628774167625242,0.0480084814258457,0.012664133029063277,-0.0025861730402712,-0.011156800513139404,0.004328111233839943,-0.029799872752361872,-0.11697090408812065,-0.026460683331040052,0.09420559137120993,-0.02499606439768911,-0.0015673376234516317,0.0038329118922604275,-0.07803210795227652,0.025336496061249193,0.05149638166649792,0.09847866787826867,-0.02799242334868282,-0.08450409358300459,-0.029194673951947712,0.05247677471491005,0.007819700753604822,-0.03460612676828956,-0.008954204022009193,0.14341827874141766,0.07916912972116985,0.07240513634607083,-0.08062500358446599,0.002533314180390916,0.07354376820324707,0.07146734439609903,0.03692598003036955,0.04681984364728506,0.04541636836801921,-0.022451355821105176,0.11226630758540043,0.04605510495919544,0.19775797385774627,-0.03281897509288119,0.03008870116602862,-0.004363064500244925,0.08753270336752884,-0.001441821985747408,-0.004341798278181766,-0.11988184906422925,0.016503796648764335,-0.049217951150322715,-0.021315512138021568,-0.06671327095797046,-0.05624739650101609,-0.03136686497735348,0.018353299122370863,0.011832892321894935,0.007165943524700747,-0.4883807177401692,-0.1000047555672962,-0.24207555073456324,0.09567222329054198,-1.0003849396028455,-0.40943167983089773,-0.18263709907300546,-0.25757568956642446,-0.35047898149934953,-0.20761526736565883,0.3462337210436064,0.02072117935905332,-0.3487599809965232,-0.4894814591910017,0.5525367296065904,0.08758986902560402,-0.18400778830063066,0.04231187737911388,-0.03854179348934008,-0.17515100452451085,-0.2597153026215259,-0.013409318705590643,-0.19495575775353519,0.17970578345523844,-0.06387857015987032,0.27618120702626,0.24645131301274056,-0.22333485249818047,0.5935901081576727,0.7757225919268645,0.6337128445571435,0.6065014297165718,-0.18836981366308653,-1.0038405351579394,-0.6988227869648649
185.3540496826172,1.5785064697265625,0.15045435761495074,0.11037152510022585,0.09570004966093207,-0.0013605029055854465,-0.16459371030878645,-0.20863530312960704,0.08367692133107656,0.09841464775128489,0.32273065866220363,0.15871987370506824,-0.39833902998812243,0.1635211287448598,-0.004404448765035172,0.018541205903109377,-0.03025434833475874,0.007244675046502351,0.01279372856128827,0.03069703947022792,-0.04600231300468794,-0.0720758817440382,-0.07071605671212253,0.05408213868096673,0.07802062741048757,0.09192199560316619,0.020700032065724322,-0.06625202263385324,0.024424181508911822,0.04893416929809366,0.009173224518836263,0.013265544771780416,-0.1035857324142409,-0.03016460736831803,0.0018145662360087578,0.007326753868408364,-0.04773641262787851,-0.00954520757235411,0.17827836272878209,-0.030208213460962925,-0.10038942345152785,-0.00493739457527379,0.13500749546199417,-0.027475361334113737,0.17285605073045157,0.04036279025967271,0.0444398008042394,0.09983199923554852,0.0070441034052137474,0.042415544218606306,0.034112436640915164,-0.11862671071121915,-0.024408090710125355,-0.09588648510879688,0.05678117540567594,0.0042375982152307425,-0.03982373138671253,0.08018759895401523,-0.02584523318035459,-0.005313355522153434,-0.019320477560881275,-0.02023425486256049,-0.0038394589188631197,0.06863083463675108,0.004739209357494018,-0.01114616583850193,-0.021942183230041053,0.1083752367711164,0.5031028024758191,-0.16276486370253612,-0.17046993871935265,-0.03772395701335546,0.13406108894885826,0.06627281018215599,-0.1672628564583867,-0.17425571239128837,-0.11659141026046625,-1.5130138689509587,-0.07910949664701063,0.42756273204845485,-0.1420635916175022,0.18434769008127172,-0.24319425478765241,-0.5629443964093235,-0.15212461110666875,-0.14270302035972723,0.13494807117597202,0.13341767983761693,-0.020621261975263698,0.008181463966200363,0.03557914129100462,0.1793322533006625,-0.0018193356882447336,-0.06415654428518067,0.010171403936969345,-0.09699409137728845,-0.20769965117499903,-0.37094662547306034,-0.1593881462077629,-0.11485515386732578,-0.12234534385204739,-0.30934233474749384
186.93255615234375,1.5078887939453125,-0.3401809893891074,-0.29480292999049673,-0.6343007549268742,0.3871786814729864,0.773367904112018,0.21645419835902488,-0.18581849729016325,-0.4218783446696015,-0.38961364941692156,0.23589434353500607,0.7703045435880663,-0.12324628676027433,-0.17170241536496444,0.12358729355424972,0.0456383748609701,0.12892153755669936,-0.05539803547086466,-0.195763139010517,0.3563018712997516,0.022765595435655532,-0.01639617593022677,-0.04676390474534778,0.1219740356426619,0.0031956222268733495,-0.019438998699775497,0.00065150423463263,0.04645536470619786,0.001747603070036118,0.08863181759905996,-0.050687741580073574,0.07912304784362241,0.021531818943385336,-0.028479931570600584,0.020902714949384636,-0.04841976624669116,0.030879959662100234,0.019767762012499867,0.07572700729935264,0.07081274545461222,-0.04968217705077294,-0.015844052152280002,0.03496934195862612,0.11189580679730855,-0.15589552469431484,-0.04833869927487709,0.031515739891147795,0.08130980472119348,0.018719096226966683,0.07454516153622082,0.024176894788632747,0.0315790623757304,0.08214474795475626,0.07339907850648719,-0.07322179216095843,-0.07249184875012807,-0.02405636995661263,0.049833575642451305,0.013053505943529928,-0.055417970564519296,-0.005957587039433787,-0.0024097332962902925,-0.04702372218500872,0.07786411870599969,0.009823873364650001,0.008151567500096693,0.015682934281508572,-0.2701222799549837,-0.1356104290209156,0.0905397474971745,0.3451450615225051,0.17773206467135128,-0.3363946930312134,-0.055740579829135814,-0.14025643169654134,0.0563622433000052,0.18890481042330726,-0.7994407985985834,0.4404060287323059,-0.020819211194935818,-0.15533939902519991,0.0014716563754487919,0.44682440047371075,0.30938696705368834,0.1119418808306323,-0.366024554828202,-0.09434675643844755,-0.017670714924052755,0.008152270476098842,0.028931285958646216,0.11680160749470568,-0.02606043383036237,0.003199341800413257,-0.08706733770722996,0.056879786227335354,-0.005527202202059936,0.4174710173078613,0.10762806696591473,0.3608971529909054,-0.3811830168210805,-0.2418691378593381
188.44044494628906,1.5186004638671875,-0.49409672383198644,0.09439676950005807,0.24524403016249116,-0.4384408689404818,-0.13740723540540906,0.05870823237817892,0.16484433288704556,-0.005761456742830493,-0.07769321514199155,-0.03338855614529364,-0.020838988927426957,-0.012437314442716584,0.09477005677881592,0.013489741022513657,0.026453680632967835,-0.03677091238000933,-0.0052384855430759976,-0.028395745415599666,-0.02617811028422297,-0.08277793957799995,-0.05514991801965944,-0.06980521210275033,-0.0026638676033755512,0.025168201445307015,-0.05986439511011606,-0.06593096401366572,-0.02310629685230251,-0.09783395802046127,-0.036970646198112585,-0.04537346728558668,-0.0330939599717915,0.0766040866867475,-0.030632965025443607,-0.05551689675256518,-0.055560040708640325,0.01013813399702205,-0.02329707002519299,-0.04828304947751492,-0.08075771566398786,-0.14157247700324876,0.02261696225041343,-0.13035457289532296,-0.1120482754833491,0.07792795617443059,0.21452315869314872,0.012474323379517854,0.1649854205771025,0.09160680725685356,-0.12295388416835601,0.030638978917013955,-0.02771477391487557,-0.08372893432564937,-0.1583506310092067,-0.012358703521925989,0.06878714864688745,-0.05701347667001275,-0.09521808521537253,0.16701442795423405,0.10676610567146305,-0.09188916269434107,-0.1274430145582036,-0.0037649115129277694,-0.028878474607968982,0.018789563632106352,-0.004438332046696743,-0.0025578226123191944,-0.0019532710696043842,0.18232174669666593,0.6932253499640184,0.6916887369579247,0.5237418315849689,-0.0651679412905938,-0.03473721683330116,-0.1533935559146909,-0.31069071878069987,0.13788641094959464,-0.33665426858101377,-0.7743099665356523,0.008659323781082813,-0.38785091522144366,-0.49697913809475713,-0.15763289289882787,0.0046185859501285155,0.2788293655539003,0.03460963761060633,0.06293175091179543,0.09358357397195316,-0.013085448082380855,-0.17124676830073324,-0.05050658469947394,-0.05654993096859473,-0.23920315289971011,-0.15348215370695906,-0.11125382193371111,0.02561858765829979,-0.03625857713025119,-0.005141221086102378,-0.1297182306855082,0.7128298248893433,-0.06590131258285115
189.95904541015625,1.5185089111328125,-0.3476734429069165,0.4082044403138923,0.08921096094830856,-1.103629287863012,-0.3793994309817008,0.287234996043508,-0.14790334609805394,0.1195338591285695,0.06074762205376234,0.01619193359974326,-0.004213065878443958,-0.11077151874954198,0.0014731620843192262,0.02222909011592563,0.18400384084292665,-0.05812057549588174,-0.030892671716624773,0.049211473239305754,0.021481358617514826,-0.11833730746382776,0.07909853212712671,0.06891875311269867,5.2898908865478544e-05,0.012394648228458498,-0.037309408472633865,-0.12543783367140132,-0.000248799127621502,-0.016557318176971522,-0.13338288867161213,-0.08165779130786467,0.02315746949665027,-0.09344869703129813,0.09001858357289816,-0.009950262015359469,0.07443668154507341,0.14431189500550234,0.0464211732863726,-0.09837750168241596,0.2115966597077997,0.05072488026938107,-0.0631018365047653,-0.01634241025154955,-0.27338030644723965,-0.06918331847900419,-0.0853625089020704,0.14400501074312558,0.01126913697004122,0.16028716274035626,0.2303180308626966,0.13180540249936926,0.014001760143114838,0.013975443184702868,-0.046863974778835416,0.2505660400804336,-0.041592548746875097,-0.048053977783862944,-0.029604299351916382,0.0016705306588242208,-0.004281484677846103,0.20413471524404195,-0.015916596118238507,0.07626337234308968,0.03293884112104416,0.16615504283035828,0.08415051870325005,-0.45352010962837214,0.20168397950258019,7.493793349143407e-05,0.32439585670437787,-0.08378955082607448,0.02742985489841886,-0.01557443634270474,0.541413918182909,0.14861697412355068,-0.048765053312411016,0.40633524628481177,0.4451054680528412,-0.05726079569644226,0.04426123679793292,-0.08303784055167901,0.7804892776745374,-0.16828053470241938,0.5383604079535993,0.49613375285058436,0.06440092611881519,0.30840428955261784,0.05153747450455165,0.026413023224134198,-0.04079367867779353,-0.12769015132598818,0.1252256785983365,0.13840495067355568,0.1073972418910265,0.008028599555134783,0.06093727418650816,-0.07103883125716698,-0.23777328690537036,0.09090106348670474,-0.02404953549702448,0.21348020981010002
191.47755432128906,1.417694091796875,0.39031450006891916,0.17667443899916027,0.1185522412629819,-0.9560982636305184,-0.30579288425075707,0.28414814159527246,-0.11360798999769099,-0.40289928673727277,0.25224529098376036,0.0360349530392904,-0.0005606459685151633,0.06685927907956375,-0.05581092974467426,0.17280963771370605,-0.0027856803369372602,-0.05362786775365884,-0.007516379789432942,-0.12005874996033974,-0.0011839129233116783,0.08148753590422533,-0.02011662507523036,-0.006837976488295788,-0.001503316737123822,0.004461871699408475,-0.07795552701691953,0.013086858751356869,-0.07383328781894906,0.010639084756365273,-0.03303980626025619,0.032231918728772145,0.004834357286628073,0.04936050254041441,0.05217363573533941,0.09441704293748032,-0.05510985840796988,0.08487320130683727,0.012144577742338222,-0.017351719939310575,-0.052370739953253545,-0.11573835237976077,0.10580366837227326,-0.026053465416173927,-0.005570524266366387,0.03785079732576818,0.026296545813650964,-0.09769511689448933,-0.12005710056830621,-0.017227903065174674,0.20444321228321943,0.03896523382387888,0.07780941332946587,0.05317133778099879,-0.014112116398884714,0.016362306104729364,-0.1334267783731208,0.029329227057232215,-0.054322540988467956,0.018346263545942078,-0.0671593097452039,-0.005372389999753275,0.033263049931691546,-0.0028738928275538166,-0.026118011647528278,-0.04254446928522302,0.025515092583177683,-0.04531402291494569,-0.5419238824765161,-0.3061346372805117,-0.3153919481646945,-0.0006506102821086379,-0.22963292881543604,0.02741685233350355,0.014559715935807203,0.09167669078189607,0.016573668512215024,0.19616107936755356,-0.19966047101626122,-0.33813263080761147,-0.4681581034338739,-0.1844857130565054,-0.06556777907041147,0.1048187964249855,0.027599913157268174,-0.37936183519598043,0.24421020735322804,0.23929187140621205,-0.019613121258873115,0.107449174075952,0.036447760112304224,0.0010858807981831264,-0.5421710570322497,-0.11034806645909429,0.3997151294925581,0.2213848061508167,-0.3753180919773364,0.35984751899218836,-0.014786161278335763,-0.10690514200093447,0.1953717673590369,0.21504490376751662
192.89524841308594,1.56890869140625,0.24785951360023484,0.44999240562582027,-0.026458758113038317,-0.4420433914260149,0.2673717951895722,-0.27319107370639034,0.32189672489429094,-0.13455753932246592,0.03254233394372772,-0.07829151175576676,0.12067234007870534,-0.03470051098473115,-0.06373538954286494,-0.046365054298125805,-0.021792214629162004,0.02906674007254437,0.11185230701043089,-0.0013430736070922876,0.03236113942373592,0.003587038970512803,0.018301536294759262,0.03992166754475997,0.08219388192082132,0.10629076593674512,0.017650775986914637,-0.013092650902409578,-0.011156619607321158,-0.0021212711597751593,-0.062448459800566264,-0.015952170576326752,0.02731088004724337,0.07421689888922747,0.020694863980839643,-0.0027172745625743504,-0.029733023433338862,-0.10651368001563732,0.02898352653467351,0.027365764906897974,-0.03197548220470189,0.12915866766931186,-0.017854542476521528,0.06770260008815518,-0.025480077865631792,0.030960791710300202,0.09970895838940998,0.14874285504964654,-0.19934045942512235,-0.08999619379778953,-0.049708798924384665,0.19019210525221297,-0.062311674135750554,-0.04317997083416797,0.06596142305433862,-0.04415905012657868,0.016970695237306495,0.02583905786981285,0.09925232131717915,0.01172513957224908,0.034465891536485466,-0.009864877840144445,0.03098564950306023,-0.0057772189235769785,-0.027203958059554268,0.00156831490178026,-0.022422240524069482,-0.030358526627790955,-0.01705733247210467,0.8339727576708084,-0.03089517800881204,0.07367995583140168,-0.0940539091114609,0.21870892223553293,0.23576630951433852,0.01690929550905354,-0.17528628813055552,-0.6026206600095334,-0.036168986014151826,0.29745285994445797,-0.009325503814113146,-0.31532017174294624,-0.5299322258792544,0.6541169349403831,0.13434373920470477,-0.05899147568149968,-0.03347944907802631,0.26758684082985595,0.09143055751759069,0.11120811490660826,-0.04468508793995174,0.8611359543403254,0.15044252696616087,-0.09536724094228684,0.5694336759924035,0.7001926532921082,0.029510249379305714,-0.03309977302186634,1.1848486518858634,-0.1895761175388052,-0.012069942977637305,0.7397272141732246
199.10885620117188,1.5378875732421875,0.1685805282723674,0.10122180722683656,-0.1312313253580169,0.0457705514237082,0.15857084146055195,-0.11642521986889337,0.004562511821383619,-0.17493052064671233,-0.07859789045411647,-0.1464732927812693,-0.03895363089752617,0.05825215940575901,0.07280168560161154,0.09202558123108791,0.001266659388440285,0.1304704524889752,-0.05840838808146803,-0.02403748558242051,0.09313647473165049,0.02718286782578911,-0.05239799954349318,0.09551887413262895,-0.03145693790374609,0.006594093440958757,0.051358344475264134,-0.06788896587950792,-0.041968095577604995,0.061314788557706015,-0.012521969676519105,-0.054516718809826,-0.011941582999245519,0.11057948521782107,-0.17580399002231134,-0.02883498976335808,-0.1530462234581609,-0.018344816939780142,0.15748494818385125,-0.007655735840381221,0.08517911797672678,0.025945046002391864,-0.00941866474385443,-0.08069351452856544,0.07273157849261014,-0.16591666277514633,0.0894890646624752,-0.1947682651003512,0.04658080067389477,0.06124247321110143,0.08551237118412569,-0.00982937192566053,0.15459046060987097,0.22422722135979553,-0.12738924883310532,0.03397167813605429,-0.08161406817758143,-0.060466623356523176,0.02072079091233595,-0.041482336263885505,0.04139686699825634,0.013121329510053657,-0.045683403613440046,-0.08804013405480864,0.06547511063237221,0.2101117852007907,0.12311557953982485,0.022214257158836397,0.06058560157899095,0.09253398253835637,-0.34121177657709806,0.024118187640901526,0.002512858594380621,0.08237830286482503,0.06466536875912747,-0.028351148338870924,0.3442275394996146,-0.6156510842679025,-0.10410098886986442,-0.43056502642348,-0.20388182724879797,-0.29435380221417623,-0.8027488506765678,-0.022205961800655215,0.19033241434392564,0.04991601887945927,0.22248303535049496,-0.021602462706200025,-0.47249608096901746,-0.058407785995712204,-0.00564827856372904,-0.06593625245886461,-0.04842713301594989,0.29200190198159787,-0.10163260463816923,-0.02456837272279628,0.051847356889412874,-0.11885987268282061,-0.21405390736579102,-0.34673288831870736,-0.11028776089165777,0.022315707201971235
200.64674377441406,1.528411865234375,0.16801583609040982,-0.06984253916850502,-0.04204916264076988,-0.7110949101640537,0.11103081181606095,-0.1674068779303887,-0.19400193116287257,-0.13475705683422823,0.37246586220201405,-0.14017779802970998,-0.0024518255803878007,0.015820888672922535,-0.18670748185012412,0.08716863600130428,-0.022413542735436436,-0.0003834592125755331,0.08478768757947719,-0.004562815863100376,0.06673605423728905,-0.012959711564561443,-0.016462369934758376,0.007201662264068326,0.0029619289718581954,-0.010439777638599768,0.12623456130203844,-0.05434252637019592,0.025541862429014753,0.09999451028404532,0.16736239525453062,-0.026775887955413604,-0.07480662755631275,-0.04325716186150972,-0.0839631018424208,-0.030540205285918342,0.019678349899365594,-0.04234969652899009,0.0659018012795269,0.03079050798145628,-0.043791239777819665,-0.1371863159742175,-0.023505393872993524,-0.06044367322997044,0.11334228791067917,0.08830344149414111,-0.1386197419616177,0.022546985298175434,-0.19333629467255772,0.06698351346184535,-0.009705564101776816,0.13807515297073342,0.023765445911837317,0.2196650464836081,-0.046082413647460456,0.011211443509423347,-0.03234682169696185,-0.1105347984042464,0.051064228552555824,0.05048551641503428,0.09858855848719458,-0.035461443278506276,-0.010457615030910004,0.05275966843958508,0.0444898202367013,0.0426873102133431,-0.013949555755088227,-0.17026068045652765,0.23633348262553797,0.32447589847489305,-0.008390743882685028,0.0577189288926626,0.5548396861948689,-0.2642157979613595,-0.039160449453817636,-0.39105634726395916,-0.09250948121294146,-0.08249325854355626,-0.17164031634755292,0.40025705453813043,-0.13926843356159713,-0.006219976666059765,0.22811029277148617,-0.10682114036800461,-0.4298576734349861,0.0973928169967815,-0.13940442119590973,-0.03057283703436714,0.03009710683067901,-0.19381125429326115,-0.03959574416675525,0.04952807092576852,-0.15209051155911424,0.03238009744829066,-0.8992220078125007,-0.1540328488148737,-0.3668402858470008,-0.040852387078595204,-0.11044646554539064,-0.12712808235098402,0.5579680523296501,0.10009003045931186
202.17515563964844,1.5885009765625,-0.3315205372565364,-0.3513285480814681,-0.3978117312268878,0.34201493726379023,-0.2093187052879746,-0.18108095308265174,0.04564027736335595,-0.06828454800659588,0.017623890633725173,-0.03776600100910039,-0.13216107272011807,-0.21764558239801685,-0.21042367950212357,-0.0804706918149102,0.004037447937496774,-0.033013737570087194,-0.07501014637916258,0.0038704393822052586,0.01709453770857383,0.059205536589276346,0.0016540564426641645,0.12910189759383445,0.034164565132306854,0.06949504556458727,-0.013851545790517325,0.031562022076536675,0.0774489794227237,-0.07387766911069484,-0.04208304300100901,-0.0008085238799742673,0.04901650919179595,-0.019099550899844393,0.11652670060304009,0.2551459554899863,0.010614500920810474,-0.01293348272397758,-0.09683256033545704,0.04059361364565006,-0.07925214719251295,0.09481033201328656,0.06865807990327755,-0.04101490460762096,0.05233691011308911,0.11070728188054418,-0.18130004208522635,0.09513906586379275,0.17979835281440493,0.11945526729224158,0.001691552703512351,0.04567337754373317,-0.015481037527544008,-0.03333461643692245,-0.03293755221323979,0.04676897879108969,-0.18327082186911503,0.024541972184545673,-0.09449998120471313,0.0525554016814852,-0.024505876710547884,-0.001574477014414461,-0.0012358964847910688,-0.01649507556988883,0.07008807628830407,-0.0003537195283691587,0.07299010537467539,-0.10653429158851749,-0.026597967525561993,-0.0009122043204573167,0.13691011920425813,-0.07159190340372631,-0.06259511149453463,0.012479426923454141,-0.3529143381303237,-0.07524602774736303,-0.05781959425024129,-0.2744186656730282,0.5401846835733732,0.0535763515908085,0.15151425338882407,0.02744403386575532,0.5570728216331822,0.22040450910237888,0.07284303007309784,-0.322964049107025,0.1413908989976616,0.44297624405954505,-0.2293526470847116,-0.018196205961663003,-0.6098961207919913,0.2998837252687967,0.07118024179082041,0.006221928616186666,0.5676676172712807,0.053098876334735715,0.12860943770698655,0.009364300072205546,0.3410309604725694,0.03120031353310868,-0.4913784757231899,0.3602672466033453
203.76365661621094,1.558197021484375,0.37028838040745005,-0.11862690197226602,0.03329774792416024,0.04428953383688711,0.6199942002251725,0.39320261608316837,0.7346919122360712,-0.20413258724528893,-0.05514785927751747,-0.003471931680780291,0.13636972790946247,-0.09400545068586827,-0.16654254404977573,-0.004462024847443458,0.002564959129416057,-0.04054899153940505,0.028987128032041107,-0.002226300787447908,-0.05070528678101603,0.1084666261435385,-0.00032662442738962285,-0.08467807561660495,-0.054458362424114594,0.02187046826292709,0.04449330208818376,0.03565694491112913,-0.10557632160215483,-0.09387788867153223,0.041910970844780245,0.0018670601104710696,0.0342241035356452,0.03701097854574395,-0.12123662457088176,-0.07059266958941934,-0.0041800262299695745,0.15988298925732097,-0.1067340274942547,-0.020618500299247996,0.10871657986933617,-0.05217581449801101,0.1570850461929566,0.02458421443290816,-0.06727959650531608,-0.031207481335223882,-0.06777164845295605,-0.02773339670557526,0.026968713485765565,-0.0025324929919680605,-0.040456417786573454,-0.1266808450418784,0.147195418226834,-0.11367601560884434,0.10186033936245482,0.07118848187507482,0.10508960114400688,0.03357062509505645,0.010262774176061876,-0.0747848654487151,-0.05803184850056016,0.03429377255701779,0.059865506876348236,0.01188826364810663,-0.00032154663978390416,-0.05803258168786939,-0.020232193695317712,-0.0019935098809594487,0.3580977992106959,-0.002043146299123541,-0.3048956646557846,-0.12526432564085527,-0.07717772206870274,0.035904629527690496,0.047360988280994824,-0.045314993947919796,-0.2692978620744138,-0.04697241819638204,-1.0950253269572694,-0.4951763337503846,-0.02811671659708939,0.29046018969865434,-0.01977871093814207,0.13296771974744592,0.07082426997873066,0.3458925049728356,0.1002997110624465,0.0032510252366764214,-0.2679580348514239,0.043901391407249295,0.3815890713848722,-0.001418405278930699,0.10534646073057263,-0.01934541325293066,-0.0008945586692146778,0.15989504227617463,-0.02670204923649294,-0.1249614161240398,0.14089019879205075,0.3467452905276635,-0.04660378156119408,-0.007196987412758628
205.3218536376953,1.548095703125,-0.04440660244288809,0.030726707157736163,-0.254699644662491,0.5236905521312359,0.4505603006804275,0.19436477512229505,0.2082651711107814,0.03867295743979113,-0.011634592299134857,0.01584883328772007,-0.041102721582809344,0.019991758289025927,-0.006548193398714277,0.02340508290243161,0.010421736160920493,-0.00443684388509305,-0.017808230154425415,0.013261611515172737,-0.004253502642861588,-0.0013188069343295675,-0.00109470878903771,-0.005728915761378739,0.02303536801938691,-0.021119732092526405,-0.024512327133200493,-0.005153821152069257,0.004114957028705448,0.028686231280605504,-0.029771961001251953,0.021339646804839293,-0.05031510816673286,-0.0583513402859099,-0.05583505311351393,0.05915979926155769,0.11678880508367961,0.05703066927650559,-0.007855852007618685,-0.08801396022034902,0.01912545252681556,0.07393648031412454,0.045897682773775456,0.08539560974456951,-0.002540647379741759,0.027864801433513442,-0.09157505434595026,0.1165716598350047,0.10947280453782532,-0.06681470695686549,0.09696146075776857,-0.1142193949719507,-0.026802024726955316,0.026157447764548817,-0.1070072309539189,-0.056222889259648544,-0.017824703423019377,0.08064643829270167,-0.03870451213726094,-0.09464009745455867,-0.000185114221449666,0.042209428325557914,0.02052203862555878,-0.06182342215925029,-0.03127743574791142,-0.00817872051397565,0.0030632236737596595,0.23049592519657217,0.25102896946901243,0.2255318159180775,-0.13725094231444518,0.1876060263600975,0.41411544753739765,0.04599586166512593,-0.09351117102787575,-0.37268907751797165,-0.11685041887431795,0.6565020216752333,0.3897762091563421,0.16237897321627073,-0.2510561098951558,-0.027884901416936524,-0.2687092513969856,-0.32130751904043764,-0.3868487270051309,0.26814035168036837,-0.026422551319268364,0.01191692539378722,-0.1768361292947477,-0.08275543593813645,-0.05161383460297886,0.1030775062088379,-0.0620494449789071,0.2725233747766952,0.05024168759998968,0.5713147389462244,0.2370394621269932,0.22884552286222404,-0.6098117706643397,0.2972257413722733,0.0071726017546832055,-0.4020111568891973
206.8699493408203,1.50830078125,-0.5417253213076751,-0.4182437680778551,0.7096927051117016,-0.11432976619709201,0.10374187981500121,0.03641305665841538,0.24304508376133,0.006570876021470099,-0.08394713769277765,0.009733280791736762,0.00040627836897912106,-0.11818244605614886,-0.018911896653760564,0.054648043838092346,-0.20592914991309919,-0.3028969794156876,-0.12218227880109936,-0.1567616653356035,0.07916889618072774,0.03249247984472218,-0.0052444086276689575,0.02612465688438395,-0.26660018234586036,0.07198054518319143,0.019198040189426984,-0.0009337972198391044,0.07374343254720056,0.01270218713924352,0.05709363909175129,0.028461045552848892,-0.06278506180684668,-0.04845152725341116,-0.019784120787088567,0.006898256889308466,0.08848535017282103,-0.11146131337268438,0.02184309444270993,0.04888297689389122,0.006126664902824389,-0.01631246626448757,-0.1836566561411872,-0.02175578163404874,-0.08118739556851028,0.0361256303688193,0.12092379957262775,-0.02586054992803727,-0.03499269388270737,-0.02191573061935195,0.11930164270041198,-0.0826483042214369,0.010926316502385439,-0.03506050575046023,0.021760661943246665,-0.10286328347034475,0.043916909596096246,-0.02519924202461369,0.008417361342872232,0.0069363947677701715,0.0687577296250842,0.015372141998615002,0.28847360478661926,-0.32021586270385677,-0.09159150207222691,0.3342807546746976,0.21612996546008698,-0.019762576299460866,0.09200921921615965,-0.022511716430741298,0.08989337381649884,0.0043386358137643966,-0.4741000946215971,-0.10964277173648579,0.625033540843676,0.18869986122207208,0.5344497909975823,-0.15557268853402623,-0.11652374071997142,-0.19863433435821953,-0.13583401800938943,0.5292454894709536,0.4958177081101035,-0.06737676929804798,-0.02105455357261914,-0.10695565094741619,0.022715992928529008,-0.16452755287640375,-0.04304613795803835,-0.42919427426120316,0.38836260249192905,-0.08624974616618511,0.022058925877439392,0.014040836404311433,0.28929612811286776,0.05003461019943511,-0.19894211284400332,-0.20387089964800023,-0.19145944669797973,-0.3463868795163774,-0.3236733363040095,-0.06530432215242722
208.3782501220703,1.58819580078125,-0.0707739350214827,-0.12820680803359136,0.15252226323626783,0.5188145529207308,-0.16206111621388755,0.11996460591806825,-0.10138737858842493,-0.02527642389164905,-0.04192915694649562,-0.03717737019848904,-0.008164441323237846,-0.0029735840735812757,0.020025769237754287,-0.030827751843212264,0.03980846486692715,0.07311974253213903,0.008678939963969252,-0.004073882819342026,-0.0014683786198733096,-0.018727309967115996,-0.04942458294369824,0.005864254486801704,0.008280117046081725,0.02412393793688998,-0.011247711312590026,0.003784807063732265,0.040100932248372904,-0.05609306004191711,0.07281458233026489,-0.03445412563501536,-0.07219810229647404,-0.11896056269100702,0.020083118415105336,-0.032844639138682394,0.1990777253975337,0.052307482710309904,-0.15159493325140982,-0.0980943443357559,-0.08550793276279445,-0.09002375500312386,0.010821161306772104,0.1271090805380743,-0.07113163819744181,-0.16011881891422095,0.050033586099458315,-0.01247898176127694,0.09254394378879438,-0.02675409696267881,-0.1626537066970008,0.014301568601572615,-0.09008537645808115,-0.10112224532255445,0.11551418478173825,0.03501076473972557,0.025989438355505608,-0.009444178236078585,0.059953124860887066,-0.11567621945820383,-0.0646927963351665,0.18458577501642262,-0.036502206824258455,0.06922943428905855,0.024434795190042078,0.023805198925396537,-0.014379522150018895,0.35543428761495083,-0.8741282975218772,-0.47534712466575046,0.39385438742714624,-0.06369606576988388,-0.025906549324261032,-0.006342171404858014,0.17486080167456472,0.11550278290422741,0.06455620726129715,0.5222771595181903,-0.03130542804795402,0.2979225668533023,-0.24807417199040058,-0.050070584493718956,-0.09549509864375126,0.004157827213750527,-0.008232237920777444,-0.780093104886069,0.3291369601118122,-0.11939977427318221,0.130217228805583,0.10651298941696517,-0.09538976384920379,0.009847227844395673,0.013156176626439114,0.08380737392552313,-0.019264055496736703,-0.13142680457574532,0.20131834680836488,0.3997285775871676,0.4426376430878212,-0.07183543268939557,-0.4950804133108019,-0.6009969679909963
209.96644592285156,1.5279998779296875,-0.1775993056503763,-0.17960005240475385,0.03814890703519197,-0.9046055352514617,-0.32753382920617635,0.17792009008423296,0.34346079033989435,-0.3796162819727782,0.22322503935185234,-0.2664468442602043,0.2727820320248091,0.08852895683803548,-0.04733647069429806,-0.005275012270200781,0.10946350400450074,-0.07500422329031761,-0.06353302325363859,0.009367505405302278,0.024682029950155195,0.01792787801321288,-0.029243525315164574,-0.07662751000317292,0.011648478507012897,0.010881717872467533,-0.06883371806113919,-0.011151956047296935,-0.0379635790090153,-0.015393792271051083,-0.007864675823194264,0.015271182695575564,0.027156153420854312,-0.04801877523030499,0.019488980713767527,-0.029529066937374306,-0.0589751522380123,-0.04689397945900932,0.011759702613108743,0.010728814609706962,-0.04417645543406117,0.002460616639277276,-0.06952213938548309,-0.011164388457497058,-0.07358369068964957,-0.16316790774710638,0.0014558017749592724,-0.08205602925317919,-0.1015329815950071,0.10529371498036451,0.0534007585344207,0.03305049320614202,0.0027769423117426917,-0.11759962428157292,-0.10497852956268769,-0.035968362826385214,-0.03773117802339447,0.0009894939217836313,-0.0308616501657423,0.1540910364092912,0.08473851476545383,0.003176387806274515,-0.00939148096692171,-0.008633940632256401,0.003075169253337006,-0.04120674316618424,-0.0019544915046070806,-0.01260536095763494,-0.10464474565834692,-0.44736550394771546,-0.07210357187515798,-0.04975453377166303,-0.21847035383623845,-0.10238548914762617,0.09608354822727914,-0.014098908093335421,0.1630285927441401,0.11369817955360892,0.05249537885565194,-0.010411292982668133,-0.9219610031449654,-0.29325404278393763,-0.19863954556072078,0.2690833366044725,0.00021855013163883316,-0.2739766393045101,0.23641503361156402,-0.8420130670173243,0.10088503498655255,-0.13777305196800343,0.04600206003622991,0.15951827161681267,-0.05877230708588457,0.05647010747725432,0.11192956974926631,-0.25994730539094435,0.07792446685620272,0.029888098944063534,0.39263844663299835,-0.08422671302821212,-0.1654071766791087,0.3597239579902011
211.49444580078125,1.4784088134765625,0.38485976326125815,0.3799723311954223,0.12242454191522532,0.039991277372663066,-0.04624257337633326,0.19946131460571676,0.503979939708781,-0.6042536733020027,-0.04535991573773056,-0.0664941040410172,-0.011033997238919797,-0.04537667703693374,-0.022591008238000747,-0.15773357952198083,-0.037837888744804204,-0.036033029021778934,-0.0021553384999165527,-0.0037237973887834152,-0.04620091347289179,0.0957254940015272,0.06654526117967767,-0.03383030430786794,0.024899838300139022,0.05767776594269348,-0.02871850687719936,-0.011624224581211135,-0.11023241552444657,0.0024871077691543406,-0.012189778424728834,0.028864214212592214,0.06479482770564032,0.0444707481840578,-0.007906556015578773,0.014606342467299634,-0.009839254346524197,-0.06899057283143353,0.018311410212610804,0.05895714279784014,-0.03068383841380969,-0.02150994620647176,-0.005006059415050449,0.11988434743002942,-0.10393858910367672,0.09410192515164918,-0.004724414182676676,0.0075871738355932266,0.04467894528235839,0.1140734234662763,-0.09184907170748217,0.08225651686223029,0.015528104896563194,0.08318566334467922,-0.13184004339060773,-0.062278423101389285,0.002285773216129704,-0.08808414594298754,0.010675258449489858,0.0006369870604217063,0.014994346297400003,-0.06663081742733931,-0.005804073489924858,-0.02440739640544368,0.05074519185596864,0.04006105756058662,0.016649692306034417,0.04145848270617624,-0.06021210600570633,-0.14816135842498782,-0.037021471054150906,-0.5066465847399233,0.06572571750686404,0.1306754872419999,0.0034076945748528417,0.0038458056856452783,0.11812854251145752,0.1460399273035244,0.676418642679556,0.20874709087409604,-0.0028173092069397054,-0.04912096967146147,-0.1061048905879103,-0.053976293145821544,0.2624195403724711,-0.1918647701110723,-0.011107328467423558,0.31957024812326307,-0.16956909074685048,0.2332735612369341,-0.030262189893821477,0.003911648765212819,0.014089039703113808,0.050391326361015565,0.34633540089016424,0.6789468637479391,0.06769063215821951,-0.03846047497765337,0.03771865957951907,0.2623332685714054,0.3429317642271713,0.17230397082808924
212.9728546142578,1.51849365234375,0.1522224266589034,-0.16526512177235297,-0.8905101583282398,-0.45174704861660847,0.3241347414574517,0.7301409805929964,-0.0397754354333663,0.052135106426219976,0.12590248968477147,-0.028138390981554864,-0.04113973151359577,-0.027725412932521926,-0.013379704335504762,0.001954178926317261,-0.06497640792719309,-0.08711648749394349,-0.017561641058046806,-0.09069012783818725,-0.015215142195806533,-0.01648133053045933,0.0064424851724639715,-0.1004317227385742,-0.00469301741523474,-0.01537540929826256,-0.004051940833786467,0.03899554391813384,-0.10803092566687326,-0.09300937000127636,0.08666778333051266,-0.0730220019874098,0.015273019732281776,0.028162873514473677,-0.10300845480459796,-0.037387069323353526,-0.0850349282344488,0.09255632337492276,-0.0849807007531267,-0.03364572880439991,-0.16349176285906442,-0.18183778331733746,-0.11374728188936793,-0.038983269625604916,-0.0579076122933248,0.23362092671548204,-0.039297974216754045,-0.0688438851545482,-0.10214871462021159,-0.13841718200197672,0.11378272108985245,0.14874589762468415,0.08074963710066199,-0.06359539241215656,0.05674395480717852,0.19971690526672353,0.07459718501565614,0.05063795782025133,0.05557670066289849,0.037571242792909715,0.08174367726856782,0.003932903570617021,0.02551923944607249,0.038600829646516184,0.08792854667751951,0.603145179278392,-0.056290659026069265,-0.1045504287541941,0.0007803053081294673,-0.09142765480208664,0.7475557395309539,0.1649089348159611,0.3764366690695741,0.2051159723499452,-0.11913357052438694,-0.27694482065896614,-0.20370547601633593,-0.48226664060215807,-0.4050878836404889,-0.5315086268400483,0.3078557952850759,-0.07826081899007538,-0.30602381932449507,0.11942903550980209,0.2509938429022827,-0.09173956162285445,0.013886144198914449,0.26219545960710666,0.03478239917814248,-0.03586086722241032,0.0034572063931382,-0.042801911705591236,-0.13119905217923084,0.07294167445593094,-0.00853562482913592,-0.0299165582071717,0.025729232077776044,0.09280562057972302,-0.04352366829638138,-0.32380429523009935,-0.3301424072517019,0.06303846527809542
214.49134826660156,1.45849609375,-0.11264044153276874,0.15473006347609475,-0.16140556326623567,0.3217088548905821,-0.06826089755700887,0.0788312567126931,0.2823891702694369,0.28458963227244627,0.904957825225972,-0.3663395292516709,0.19301900145566114,-0.01922511922328822,-0.025312435380812112,-0.06686014435268595,0.234352513316867,0.07642734121421708,-0.07111916681214703,0.028853602327875854,0.2743153337088407,-0.0987150468850281,-0.09040043810966103,0.03438176271374687,-0.10085542359733198,-0.04088525707930991,0.08685460233933505,-0.05008673016749947,-0.09023701791329627,-0.07405606044411654,0.13535813031594354,-0.10829487869080108,-0.043167633027903,-0.07806114892684718,-0.06789978326375874,0.05330981544011645,-0.011400689467830682,-0.024999818371691157,0.010131380953855795,-0.11433327450353714,0.04063095348129281,-0.07632597388275586,0.07445891784931787,0.02068539239404271,-0.1419563098582718,0.08818337045742602,-0.02770259517527067,-0.0029239878255856167,0.02523001476594139,-0.38685549351303183,0.025281961074209006,-0.08331016932470578,0.10350469828605478,-0.04536090487400736,-0.014133242023112398,-0.06333925543895196,-0.14803424700424173,0.02274560147960389,-0.006669725456441363,-0.052846368353043544,-0.013063523096562278,0.020205554989858463,-0.05817987972031598,0.005911200647303931,-0.0023221776200792197,0.07027992898835649,-0.08589928888785539,0.026900853451463168,0.29401192981008323,0.009593513639074902,-0.09104313599454866,0.3652687106001499,0.2469144729254421,-0.017578760080572443,-0.026175331892655862,-0.008793369986885699,0.08364194856437437,-0.15752216197361524,-0.9358162383519153,-0.3303854870694498,-0.11323950754793087,0.06314763873941664,0.11379230327935964,0.05555790116676243,-0.2926804718230718,0.4101551047994702,0.9037511932364828,0.24602775825429693,0.04066114380103939,0.014377239416885245,-0.048823258612777934,-0.06132946903123423,-0.14570071956158398,-0.14381311395121213,0.27468554533308315,-0.08836152565644653,-0.5098341526857817,0.21613176471528517,-0.3626838505184597,-0.2586634542444617,-0.16377439991826606,-0.045865190222385624
215.94984436035156,1.438201904296875,-0.053203918001482164,0.2970279092810909,-0.027336885136722333,-0.5047865439351629,-0.7076118585099337,0.09075300244345326,0.06322433058108672,0.021562229018958694,0.04716775469565551,-0.04751253861849105,-0.09365775186591722,-0.11192409759862032,-0.049297221111095295,0.004835348385578241,-0.08279750692719505,-0.09527868287106965,0.0306388912114969,-0.12525267248108773,-0.04011052246721432,-0.006563892436278649,0.007775239952541207,-0.0010753465860918361,0.03342673888223249,0.0662606965434897,-0.03131956493206231,0.12001540968053134,-0.05674246273624907,-0.14230247063864426,-0.08506857119669464,-0.10917362740416275,0.03279034475685675,-0.027110734109487895,0.061233564361395175,0.12437120098663401,0.00672944347555223,-0.046888987225650464,0.02540823225149559,-0.16540208738373788,-0.12676488204456757,-0.013698504980210406,-0.0110837288320553,-0.03133613389662391,0.03426817907793971,0.02544929045824908,-0.0696989466711238,0.42617603082362987,0.01093783578910186,0.05966769264209876,-0.01789936074872786,0.21090452869892637,0.05259917362931561,-0.07782322908264416,0.2428705557228523,-0.012429803949490156,0.08460458355871071,-0.011825724169904073,-0.013279770367682894,0.010739498977320594,-0.06795465164263703,-0.0421787979976507,-0.08731442558895884,0.06474605804919831,0.13033208906830593,-0.00795410830360803,0.03864591088374617,0.03896773728981777,-0.36465959145019816,0.060127781251531384,-0.2675850677372565,0.0798954374607116,0.32991707076702953,0.09110845580934379,-0.25520956454763144,-0.2937197049701098,0.04098956990430582,-0.1949431336857852,-0.23892402592944487,0.631592269301086,-0.1610700296290754,0.023901984570589913,-0.06923659817013808,0.4077098890155839,-0.22800480048707772,-0.3427852890747518,0.6199348285110331,-0.16181158055277398,-0.07368562888186161,-0.2780560109081406,-0.03164453333873088,0.013467922282856485,-0.0017678239441464138,0.09325052288019661,0.1936451509672332,0.008024263932884699,-0.2897873459029599,0.14009819140862811,-0.19324688860332456,0.27154051746052554,0.029408355959413143,-0.11769283273881598
217.38804626464844,2.58709716796875,0.04826846155226561,-0.2210753588037853,0.7799923949199222,0.07678336882153479,-0.6196638733923326,0.06815587220044374,-0.02163910314446371,0.02444343891710694,-0.018149594683479528,-0.0654840896146977,0.005913033908901117,-0.007501489962682128,-0.0023415504999434733,0.13495015832959978,0.021988474051252493,-0.0040087115429316015,0.0038291862842809304,0.012374289066476345,0.025370723257900768,-0.05398680942789847,0.0847948241898936,-0.09047311197300506,-0.10502089826021849,-0.04210112328360055,-0.12297057402358015,0.017325788526709244,0.009229507048073656,0.012765608197653261,0.0875601759252314,0.027222587721838814,0.02854196932600188,-0.12955944311406892,0.06662913992286104,0.008526971838046113,0.012334912699268721,0.018373494154742338,-0.026381985958494954,-0.01948143783056189,-0.06703644012464766,0.06541099612373541,0.017359516068440606,0.10898073207910298,0.028398629596461118,-0.18838726304751893,-0.1631051379368431,0.16194882873717073,-0.15431770014106225,-0.05393686557054128,0.01729016107563389,0.06442239982822512,0.13726473942955583,0.031338730980585344,-0.008290436584776795,-0.14393945783472503,-0.012655613913018077,-0.033251268041380434,0.012136142167811947,0.006309131642123326,0.0657525265797886,0.03231908252611861,0.12116120598687509,0.03267337467169651,-0.08319393023923963,-0.009335849145432885,0.07970642828366484,0.002181664537127707,-0.38613349864539603,-0.06641608589194985,-0.04208564127040798,-0.16867512496787257,0.04591416406760259,0.04109845850760305,-0.35094398851233943,0.07622320323232976,-0.08749368050942966,-0.24319055768291387,-0.052521886799691664,-0.7898696498111961,-0.278836986678153,-0.4227730105251611,0.38674001954267123,0.5522799908281523,-0.13586295937455878,-0.20105756653276463,-0.014261519980016808,-0.5501854243746778,-0.3404159738999125,-0.026033933268379036,0.10218865217187159,-0.04658539530488042,-0.028747578071673306,-0.06663301365482942,-0.18398563076232916,-0.3337621139475799,0.2465459836877688,-0.23308983897029525,-0.0035553583487908905,-0.03630874199716515,-0.4069494461914733,-0.044410367504722575
222.8920440673828,1.4680023193359375,0.9390285639561208,0.17004095740167074,-0.23484374119923934,-0.43557874520016543,0.40567755718473475,0.27649666549046775,-0.08495379566077879,0.08574854932067925,0.01922228966269209,0.4487484515045254,-0.016690661435662647,0.0011094649968682244,0.22208814542487265,0.06567159761227415,0.006933684831897134,-0.0021871119097463497,-0.012253703719024931,-0.013187869836816966,-0.053955857010128505,-0.05666032352361421,-0.00567985177999674,-0.016230915977227693,0.04419214208707659,0.00360044126454195,0.09713544009267584,-0.035305822787797134,-0.06054972397888827,0.049704586132586506,-2.2446059548167363e-05,0.04723878727484281,0.0026867587370671894,0.09186348836621193,-0.02821788731582482,-0.15615154694777436,0.07209366778402394,-0.11109743913057724,-0.06463256358158705,0.039530414518125286,0.37410208910966125,0.36715075987722456,0.1775654831066468,-0.11671161262283113,-0.004845129425660136,0.0067513015526595305,0.08376176485938167,-0.008313409032114125,-0.053903243930815775,-0.1600896803368015,0.03917285881730363,-0.027196678883391015,-0.07840373477322347,0.10400635822205913,-0.3082900957048675,-0.2191597373420506,-0.16654023176998958,0.01084558929584156,-0.12103420241012537,-0.009416584216383098,-0.07923923196707192,0.009640689177830527,-0.08818934593946265,0.05467332041020707,0.045153435315815955,0.05784939303124441,0.04301069383136803,0.25160304280034834,-0.476252859232206,-0.20456753819842186,0.11934761219059842,-0.16401199894881838,-0.17034756514039565,-0.10633867085195281,-0.08829662357282576,0.014703691999467508,0.19754030575578546,0.5579648254999082,0.2847754630856651,0.0010307257821129887,-0.21060343336879503,-0.12695944080363067,-0.18276374877256774,-0.4697265779014366,-0.2083705603414883,-0.34936130229263607,0.0575794727755939,-0.3578437183138586,0.00262437508149504,0.01182076290911284,-0.02121925731612025,0.11761574998170082,0.15152126856028983,0.24634162405469825,0.06734709653500952,0.04171876840329197,0.047903821752284546,-0.0544399513624564,0.23052905920690916,-0.19566290426365268,0.539459112732367,-0.15117056130598838
