start,duration,0,1,2,3,4,5,6,7,8,9,10,11,12,13,14,15,16,17,18,19,20,21,22,23,24,25,26,27,28,29,30,31,32,33,34,35,36,37,38,39,40,41,42,43,44,45,46,47,48,49,50,51,52,53,54,55,56,57,58,59,60,61,62,63,64,65,66,67,68,69,70,71,72,73,74,75,76,77,78,79,80,81,82,83,84,85,86,87,88,89,90,91,92,93,94,95,96,97,98,99
13.568650245666504,1.0893001556396484,-0.7609526392160937,-1.6096060639548344,0.15168090794689854,0.6666828480631627,-0.7911632190902613,-0.23931832475250284,0.5995042712424791,0.3065950333869051,-0.4552985423942671,-0.922850048196269,0.47374877764001744,0.2984851943661612,0.7197609207920533,0.0229323170550407,0.046060003649171455,0.11650883899205082,0.0041145079010353695,-0.014703583972217264,0.007856578446639756,-0.05412134664712689,0.055093505716002356,0.020680601963363122,0.026553578607124838,0.018711877827969136,0.010764580059239673,0.012388990014331615,-0.06009831083169476,0.03271455476233947,-0.03464229306326512,-0.01547557476450006,0.09345914005783842,-0.061145356827300566,-0.0983153454417966,-0.047736925802455366,0.2102121929149178,-0.18870014969898455,0.03983572162537319,0.565507761691914,0.08891043040975952,-0.08456027829764924,-0.10689249090444007,0.05029888346198687,-0.5418855448657433,-0.25137321116481154,-0.0809368028898438,0.2920900823818807,-0.25078847330138304,0.3883586207681683,-0.48350265809158444,-0.1759756779652988,-0.12781822279651622,0.5283336624892649,0.28977228137747707,0.12556118414032297,-0.06446760411206709,0.08239182569572288,0.056008472050454436,0.02009471076417355,-0.04420551717486912,0.0957493586800227,-0.043454803716285434,0.012901925346125831,0.2548410509552584,-0.7830465431783056,0.24223450279313002,0.36870717285906085,0.045589865191440024,0.2434880454302733,0.4590036526129353,0.023795259763324576,0.0752309600267651,-0.008221011320405088,-0.45827128691905683,-0.0017176214694290398,-0.4027978970375783,0.3732173295097626,-0.7096273318910202,-0.09286294381424035,0.003220052596279964,0.0672229412973562,0.29682292646076347,-0.37468498214334195,-0.3087351818232183,0.014568367833861822,0.658867601686914,0.01072328319793095,0.01795944250038061,0.06173476244234468,-0.16509826376836878,-0.08096765312559782,0.3250955951110327,0.06816744539780024,-0.1672454491483637,-0.2914125514825287,-0.2404506821511898,0.6424560790579836,-0.24847059210663397,-0.5219696619183853,0.5300936015779726,-0.49697313700806195
14.657950401306152,1.1290998458862305,-0.426729330759804,-0.08372025425203239,-0.6521379983225043,-0.8025002987137982,-0.2087960856066092,-0.571532635775764,-0.8761176768189818,0.8287693491432883,0.3042062616647705,-0.6504998388450857,0.4084293444723194,0.056528980771153065,-0.35579786182587925,-0.2022019748043115,-0.09139484577617217,0.05581431255644283,0.014565852012925234,0.003382228788669625,0.021676153379313064,-0.08989078157309671,0.08585908585571192,-0.038098180404836236,0.0348019754197442,0.06459368646190336,-0.049877928583195494,0.030661288746261728,-0.1385554416584651,-0.012156935321898694,0.09928613999652972,0.0008911368779988991,0.05175285601267826,0.018478493083062243,0.021787900450347918,-0.010287783986056884,0.22562374967888654,0.1272103631957096,0.1400014415182591,-0.1990433755921245,-0.055510835923212834,0.027377983575064387,-0.05985591557281932,-0.22068313268252915,-0.12229436679389902,0.10678051909531194,-0.5750606886265368,-0.2140896321607142,0.12075345138022542,0.42173625964889955,-0.035591780997759295,-0.15610996576435462,0.0558729557027299,0.004854744331434096,-0.1754005565542326,-0.0033375012362470355,0.02592891082289329,-0.0423944354296338,0.012616063384390301,0.028986816617536774,-0.04120153506723289,-0.006932472227643701,0.24763507542767565,0.1619548469417436,0.14798652153609285,0.3451990050952133,-0.13101815235487294,0.3335957010007753,-0.1036843042682812,0.20960472274346925,-0.2798302466097639,-0.21163054780769056,-0.26559802592980986,0.029473487537124532,-0.001397654489967811,0.5690142478609868,-0.7165289484299042,0.7574920350307282,-0.3243603378563133,-0.0011970657581167948,0.1116034158242061,-0.42226156035519996,0.1614116862512487,0.17247261031913408,0.07608510921475055,-0.16738156899760243,-0.20595553551516832,0.23165846178723648,-0.13969503352108129,0.021554693033840985,0.09607165703918008,0.020146635096760044,-0.08243892583761643,0.14936803157733133,0.09623471135572603,0.32548192460533004,0.07901464054289366,0.37834406988203173,-0.4264473928337619,-0.40440823275349025,0.2647718247951891,-0.08096483599657603
15.787050247192383,1.1191997528076172,0.219170015033956,-0.7924023235310665,1.1658856272169595,-0.5822465700642303,-0.5319272452881697,-1.8876683299707668,-0.6471588482548825,0.3497760020306773,0.46283780323180157,0.8019977511470975,-0.39854162742566024,-0.0834797893260297,-0.1919792239605395,-0.28936190478159923,0.053332846401638684,0.0291552263165701,-0.18814470429624391,-0.020301015865051442,0.03461749745042552,0.1361634712921768,-0.08233539116812094,-0.16512314244667337,-0.04016780559710228,-0.10618379222361109,0.06085736851492331,-0.1867843066338487,-0.14351685047355006,-0.02311831442794667,-0.12797321086272065,-0.2120148616149548,0.05500757128150167,-0.058439533181942616,0.046318794597375895,0.1351732350988303,0.06764554683150027,0.015069893471364924,-0.014700746860616353,-0.1705143927333437,-0.1829773732421037,0.05780834128776106,0.3349786116719986,0.02378144526290736,-0.11582947783383361,0.2727601469179441,0.5771603018288922,0.40769822993289956,0.0516740299043143,-0.4970253660760106,-0.05771024415294876,0.1328971295748429,0.47625987691936944,-0.02811963593410248,0.1329681041884916,-0.091069480994763,-0.044941774332584054,0.08075445980000567,0.006676020027059996,-0.003508142810181764,-0.01253987374187802,0.017815581128522634,-0.0021451171911974626,0.08610342030917244,0.1191877703631186,-0.12493446455979165,-0.2726887796940136,-0.006680249917651301,0.2787469527625562,-0.24860386004435728,-0.5122303372947508,0.10422494914337849,0.1461440971108974,-0.04765945152488169,-0.2011324253626473,0.6204895642583784,1.0650853317124054,0.6717195790131173,0.2642602029929637,-0.011500377092558023,0.2806176373478311,0.5505098138011352,-0.015988421776977624,-0.4971932005109467,0.19551257827286245,-0.2242353466044985,-0.22050329223949322,-0.11459931156176995,-0.1409598408877564,-0.10063960358561944,0.009272567735957096,-0.0317886058673432,0.06558179778433508,0.014332106789681068,-0.0905264802619826,0.05350460865353476,0.10203060617757981,0.22373095688675176,0.46882468527224086,-0.18021141181858513,-0.07623383280360352,-0.30957700091042856
16.90625,1.1392993927001953,-0.12012267018315163,0.1487380255834216,-0.4518096865576259,-0.8881524577840894,1.0900107476333254,-0.44201817210770183,1.0544754600423871,1.3017669322121421,-0.8248562411711349,-1.0116914100857832,-0.6053785453167175,-0.21373612603945888,0.8793608581625921,0.2109944323320738,-0.2789930492759943,0.13725976176724258,0.07922155079007238,0.09458391373365312,-0.00625173003251403,-0.018247470803618927,0.07936556904196107,0.021794437345676446,0.046136354548325716,0.17298613623977063,-0.09090257751391985,-0.013638380804466126,-0.14765212138481532,-0.06796372057944156,0.07984809732421709,0.03386718537005337,0.14882916320938183,-0.0028195572441219174,0.05540665609680163,0.03735567901873761,-0.029584634598975083,0.12311282607678338,0.1104083533447748,-0.2229684197295214,-0.006697989518575654,0.10543571823449246,-0.18325494747114557,0.08004844543908249,0.8435611375567518,0.05528900156139579,-0.30247173158311064,-0.5321592927522291,-0.14988288538007657,0.3849763593438209,0.15830937784409627,-0.39539265792894834,-0.28282503814955195,-0.2803483691751834,0.24959552220952913,-0.01897464283242878,-0.05602035798436212,-0.015567982525644196,-0.12238623053690861,-0.009756680094696312,0.03807334678494811,-0.052242553120748145,-0.04098631832366616,0.0637365956750763,0.3637740403187171,-0.8043685334892653,0.6753689286950204,0.037999977558758,-0.48450133350838476,-0.1279765590563582,-0.05759283929567614,0.13412440274938778,-0.24658359823597964,-0.27110743054930714,0.23806811587190227,0.07593211430719485,-0.23091541898478768,-0.6365402414239503,0.44448188929421134,0.0018352425267620376,0.0824354411885622,-0.3615351140788315,-0.09154339246178642,-0.04102615443276432,-0.1203800549986465,0.16754232015878703,0.00017274900470684584,-0.11379021692869279,-0.020296876246439,0.11369801001017941,0.16175517579820461,0.11652843152762432,-0.012486155607781017,0.02430118751076005,-0.05141060993322301,-0.01577807385327981,-0.18146095479393248,-0.02035967931285862,0.19490222153961867,-0.520174483154955,0.18998755976082965,1.336067153449607
18.045549392700195,1.2891006469726562,1.464059027349839,-0.8243405523533944,0.6804073861802165,-1.5326022466417635,0.38479538606259145,1.2190593142031245,-0.34118204467617513,0.5942154312053199,0.041194733113362664,-0.30908903243409397,0.28085461338023254,-0.22137123534763953,-0.018732389326709824,-0.21117941338113325,-0.04880132706013157,0.08779375701600564,-0.00869299365540336,0.04802745890592346,0.006305672924385683,0.0017664552845749544,-0.01759695450388241,0.0370211987019517,-0.05393015820375206,0.01282699232261895,-0.06333157175488031,0.11203743740181742,0.046379084499310955,-0.06077087001809138,0.019674090528662244,0.12403744857263949,0.008195095119196916,0.06775228936698612,0.038347775349637396,-0.09392285526638233,-0.10391348335464029,-0.14972473535301314,0.11679222354788546,-0.024359202285144085,-0.051247093887950027,-0.022575707234683298,-0.09500591284324589,-0.01307141000673779,-0.3074957074692991,0.015834684468038103,0.06224619669491138,-0.004319198814088314,-0.07951343409875955,-0.07860054432920965,0.004163750497532837,-0.050676623404597596,0.4456460158826583,0.06881558256933445,-0.06687343080239079,0.13994098198030086,-0.04602722290876275,0.08765351910510474,0.013093920216433703,-0.01247417967204362,0.03720420992963429,-0.030288704781550324,0.008402581314811558,-0.39767283146400784,-0.1906764040088048,0.05409373427566089,0.18084606136150772,0.1494846629818801,-0.5297030177023601,0.06514233285133347,0.09255445827825982,-0.05563175143572156,-0.3846136224912945,-0.07422684864698614,-0.11879169346630927,0.1518738372935355,-0.2515767432822122,-0.0207089692633612,0.051255731245010296,-0.4939098636339869,-1.0746766143181115,-0.12760207779110386,-0.10432736324433795,-0.16468086982147062,-0.34296057912083167,-0.08104624695306333,-0.07653750951310255,0.10795699000340142,0.07836355424437988,0.015962438201014686,0.0072312517372527425,0.2410370755496991,-0.055842484788815164,0.010482735078086676,0.16656943733573842,-0.15910527005960712,-0.5913950197541886,-0.3389085748509056,-0.058570243424693164,1.0011530806394977,1.0084488035151575,0.6811885635602442
21.762449264526367,1.1295013427734375,-0.1760009044329252,-0.26878263305344346,1.3654704349637812,2.0942406019490725,1.3244372372026796,0.8299587835446057,-0.7203049810204996,0.5125777495209151,-0.07855320812317872,0.283781471357447,1.6317737271700166,0.19647941806904023,-0.27082069180214247,0.3481189027851485,-0.17576054038156355,-0.12398457818408727,0.0034637338853464395,0.0076854565831815545,-0.27034982694388593,0.12853735881081044,0.020132484485656434,0.06523942152236856,0.20967644674845365,-0.010605094201846008,-0.0920640927356832,-0.047503437525577924,-0.1178804411825862,0.2762966659671659,0.48155908201501374,0.17253149473290577,0.14984343925127996,-0.060342137073354965,0.16778560954712624,0.11606407479133093,-0.0842826770546305,-0.04229813120687548,-0.21296011282117214,0.1390362915529645,0.1461680188111869,0.06141272579910473,-0.11723604282736223,-0.09720796925225826,-0.12968117027102488,0.004426265094266588,0.17634430099691475,0.11203472352360534,0.2789388476315417,0.41414683057531726,-0.4219009390948236,0.3120763086767398,-0.6075458760661125,0.08810215504067762,0.305582542974402,0.25855034086428175,0.4375288514677625,-0.23442872818797408,0.00777462753351942,-0.2320086013623438,-0.4466146560635983,0.018690107082496042,-0.0016730899278571956,0.05627329310918396,-0.032104629284998035,0.0869623021465869,-0.4416692847901168,0.14323856616689845,0.033359353551825524,-0.5298086902429128,0.14249546993910317,0.24212316214706225,0.4823159449765895,-0.22320038773043477,-0.4160420441009802,-0.3245246874404915,-0.037647992015151455,0.18862591263946665,0.2310178320751165,0.08518355100684825,-0.6967804493850177,-0.49674321452247333,-0.07076645857522887,0.08173796254755024,0.389246614027866,0.1670739639934973,0.6066200861150026,0.34934449380105753,-0.021281465936275293,0.13453854415095948,0.35319854615114055,-0.25911927315839645,-0.02334728168072403,0.005455130083505726,-0.028635346793026813,0.4125025262915949,-0.07001634786510211,0.03302517352519946,-0.3889570592168373,0.06173904035861241,-0.829358122695477,-0.4586087695691497
22.891950607299805,1.1292991638183594,-0.3771349145821048,-1.0053448200274318,-0.8622283554508376,0.2951945797027339,1.350186846379536,-0.4182981134983999,-0.6415719958675457,1.7800898795873332,1.1940275472144966,-0.23498244263974272,0.16082648392436785,0.10885886486814991,0.36992979749133553,-0.06976906901594243,0.10507090226037026,0.04697691257975275,-0.0032420436268305597,0.027769317145317877,0.0628099510748115,0.09423501595194352,-0.00610779406979872,-0.02641729335726396,0.005804637001177796,0.0010353885973102318,-0.03987228789868695,0.0737893993033107,0.17542904104409393,0.07110652389426475,0.23927364294313047,-0.18123604050658915,-0.05584612275368994,-0.09532612328063145,-0.07786882963200567,-0.05956159843460176,-0.00169864833509297,-0.04395574405859316,0.008599978755436161,0.12864892478815493,0.23962265768621951,-0.16540586834385726,0.1022181685132543,0.288250209904098,-0.015853700591998844,-0.42648682021107176,0.33450497137531937,0.2028034347201413,-0.05178282639180056,0.18117099726622843,0.7341863759741756,0.8930099007670791,0.12574373764343275,0.6063925299570175,-0.2773462150756578,-0.5290336886038357,-0.02236291584346625,-0.16810313435110288,-0.3400222980084075,-0.18529749928409384,0.019829090316134147,-0.05785310977010792,-0.02941977895145162,0.0017021922232026369,0.14843434329238914,-0.04774997456748915,-0.0787572187757062,0.16137258815861194,-0.28752877969555496,-0.04032387539614618,-0.5307290269606544,-0.46697604332714915,1.0376581721902693,0.18744239677285945,0.42896560041983345,0.4113162038844935,0.4475380685402232,1.0944761150353775,0.11269000174944038,-0.786739145657857,-0.24111676035120855,-1.3396091760631175,-0.6236272471185823,0.8468407557501079,-0.009519781157940384,0.32192871674637885,-0.07267719643355612,-0.1592783741941257,0.3533828409707921,-0.10255211194929431,-0.3020619592749795,0.005782394981684542,-0.03308877531125604,0.12224443270488916,0.10980613950123427,0.6117494148260264,0.28019047471085007,-0.7046553854196773,0.21592373767355155,-0.07172077478658131,-0.5584718358972306,1.3797016978881207
24.021249771118164,1.1091995239257812,1.1090940510222023,-0.7162209664822876,-1.8145112768378686,-0.8683339842679947,-1.8322051926643208,-0.8136897552375583,0.3050052810496159,0.8855723368645017,0.5284884241350598,-0.09366221209485481,-0.4731849768809938,-0.07685847368600374,-0.05531412944025342,-0.19753007730718114,-0.13857475303751426,-0.08915781516394192,-0.09455200843400484,0.10669326679015449,0.1361511072326955,-0.17124538771225073,0.1028032972515895,0.11140609346248007,0.5637187098060412,0.46889905663170806,0.32295262440097205,-0.1309211535401165,0.6421958174033057,0.7110289548361094,-0.39367087766275694,0.011826717342641277,0.086764525565295,-0.05130940645372907,-0.3256346618781536,-0.06441362903731926,-0.24695671551106638,-0.007131926770675164,-0.20411468174721364,-0.03161378320794889,0.2585267266460444,-0.2608364699153585,0.4069956628326991,-0.35712194477576,-0.1558324559848266,-0.7512047029754542,-1.11496791527813,0.8413696400995396,0.2524392292514544,-0.8294512358599054,-0.7804230706763159,0.3449936557914107,0.007309557568010213,-0.9015795090599422,-0.16700608691025803,0.034699959244021604,-0.5296649233134765,0.057515557865324286,-0.02289694074767941,-0.037568950123440546,-0.04882002926523031,-0.007461856350698921,-0.04403518617547345,0.024616433075858795,0.2102492243273227,0.16374659486902454,-0.04264597422457097,-0.19665907817397732,-0.049743037111018434,0.5708955089444895,-0.5640953554390875,-0.05234111559725443,0.12810894537896966,-0.4001948234178304,-0.6327412846547417,0.1876038428700252,0.15886761835831328,-0.7112257622179432,-0.09530960339300493,0.39744385711483843,-0.04880008551612251,0.14023964409732328,-0.17556548437515448,-0.23101871912266073,-0.15486443901103222,0.11237654500838727,-0.2140800592234326,-0.14159864552744544,-0.01611499319663777,-0.36284947831220926,-0.10168205331220234,-0.26100770137987145,-0.031787183404993855,-0.09372116409087937,-0.4237356074813807,0.27760111068869414,0.1975452101883349,-0.03582594123335858,0.07428590985123276,0.9406490571238868,0.4925917945573326,-0.19171439926198564
25.130449295043945,1.1291999816894531,-0.06330880146170048,1.3323508507817101,-0.6745785041882755,0.23663114527226195,-1.251828679440023,0.6082137232332246,0.10491795674994166,-0.7230905696299778,-0.4634423184520513,-0.42906306214552736,-0.18931566745663253,-0.4261419732352599,-0.06493982282482054,0.04333829887583332,0.10472519108697881,0.07433732640398577,0.09705847435762378,0.04625848535788389,0.0645744498275803,-0.19953519748896154,-0.048760010577075324,0.0545516075978549,-0.05385839214654074,0.06117573436687363,-0.10591088493932353,-0.0323138045368372,-0.042097040713858815,0.4604684712655817,-0.22930510395498616,-0.12403491376641602,0.029818073613704105,-0.002299574011755137,0.10481934302538232,0.04456901111481312,0.011180527388801636,0.10620170461362,0.060209906898580114,-0.001964555715657859,0.09945160500103283,0.14377806096943446,-0.2205358152726491,0.011000458763158126,-0.534060760013495,-0.5364266324209894,-0.12549038571343094,0.9806491958863867,-0.17813764575192984,0.13212249192299877,-0.3743305291567386,-0.6967144772757613,-0.25415226287557235,0.3452822802608816,0.11841577786357149,-0.05922245943448393,0.07240008133688908,0.03646070519276052,-0.026152343935828333,-0.03374754430655584,0.011699217009858572,0.016748456297714577,0.11148377922659615,-0.3006999022259743,-0.25454605505961136,0.7491664553156354,-0.11255759996623935,0.10143745367722382,0.28348853852700207,0.13278580529732223,0.31230774276979817,0.4739100364261338,0.77659630602606,-0.4345078735773634,0.16941780575700968,0.3251508205057888,-0.08226083123640715,-0.10213833515542026,0.45020542551381115,1.1651012329734813,0.45759028729926254,-0.102010063889419,-0.24284962936019372,0.12427765436702602,0.33369377399346734,0.6335975299193012,-0.11483695958335291,-0.44966632069662077,-0.12140406902188546,0.10062299740381965,0.45617202888277764,-0.10785287871635618,-0.13825871146326127,0.06527025520361394,-0.2587127738587942,-0.5796807537625144,0.32940193740764867,-0.6798152249743447,-0.10923783448345026,-0.26147224743629216,-0.19779754126792773,0.0037996957374784868
26.2596492767334,1.3687000274658203,0.23516768539223085,-0.39766189922034956,-1.5100061049827394,0.7084705362015479,-0.09069051177556123,-1.2685950646822222,-1.3088855663769376,-0.004560005687061695,0.44069499840577536,-0.04520456891396787,0.020700517749430353,-0.06112916692599678,0.10577096974071586,0.058424783697743954,-0.11650930082373159,0.05060647512650816,0.09259782049945069,-0.03210611194061635,-0.006868504324534742,-0.04451685744545989,-0.008414316957747886,0.05002678364592516,0.015099609729766275,0.008905764383144233,0.0064041070196874175,-0.01700253767303321,0.06806308842886154,0.08416404410419301,-0.11281522779349366,-0.013307174368120372,0.05643868584286311,0.05752240319361646,0.14959154985043435,0.008120206795709744,-0.07163213366046062,-0.03532355159186718,-0.22639868555998743,-0.21144076581001414,-0.07706855470481735,-0.4316633468746343,-0.29196411319720084,-0.22949504483785346,0.23360670040400114,0.04288315523874815,0.021171068065952675,0.7175352403907743,-0.04400420894175931,0.15357896477141714,-0.09430036102000128,-0.5056609644517612,0.2924461966510846,-0.11651162923930616,-0.0792908149671423,0.2680415621485325,0.07387986938770984,0.04198697446579743,-0.001548866389875925,0.03810384166921346,-0.025706585989822953,-0.09800520716521892,0.3503277667439191,0.07174237091915237,-0.13213265819118378,0.5493012234977547,-0.12171255916377183,-0.2869614301027975,-0.16428674348081704,0.004974269266027809,-0.31425822870710823,0.5923582798592558,0.019991163491226677,-0.3577903401878021,-0.06793240606559094,0.5013595799143045,-0.45806062120217755,0.3933343174507854,0.7434183962502816,-0.03432253914339928,0.7668349594135297,0.4376553118293182,0.3953929132143733,-0.19268049668019108,-0.3566346365141483,0.02300370058178707,0.01860433815883289,-0.32409257481596654,-0.312994602586385,-0.029427504725632114,-0.12962746948975334,-0.13550424167942918,0.010819361344722306,-0.04700398613254908,0.14790371015460577,0.036816918652135065,0.1433703158791845,0.17621164095615516,0.1389672142133041,-0.06685974802748156,0.2564997164865974,0.5724930373471766
30.87635040283203,1.1089000701904297,0.7160285746274805,-0.12357762738984274,0.44002485393369106,1.5891748353742203,-0.28448091232542305,-0.6083359600308326,0.021661158066815095,-0.19706421902428797,-0.4216487730808368,-0.22046091984246322,-0.2672569420846992,-1.0506347744203306,0.07069190834615677,0.16281266966141286,-0.22393269015637507,0.10963979137427056,0.010061261375110694,0.02203358454790871,-0.05461838477303427,-0.014321372157014666,-0.08048070813390011,0.0748677660998496,0.08882241571428928,0.014386971466408972,-0.10832534541374002,-0.08354100814352429,0.01893837730800399,0.004886269856531039,-0.022835901420934356,0.027501605522613097,0.03189373854282578,0.02761195948526964,-0.04120256393662855,0.03818563238023927,0.07608497872724831,0.006977594912155365,0.09230067681631712,-0.014360023822197795,0.05308822684377911,0.14765335949701036,0.03230168681998172,0.5961624004377837,-0.47188404952904184,-0.08107462105504185,-0.49851993079113166,-0.008840789679103345,0.08137527548477791,0.2532708469721832,0.024601000527527096,-0.07100212296483178,0.004570972117513811,-0.08139194415055971,0.3095749639082913,-0.006054520268383726,-0.37163052297945576,-0.035593338816445476,0.11130532501954093,0.022386723324233634,-0.038899892208477664,0.0581247651481667,0.013275478034058931,-0.4574072340102184,0.6707224123676689,0.07807294940332059,-0.6403651523617309,-0.06709279920970833,0.4008023700936086,-0.05215539159933494,-0.536668639512559,-0.2549288063703448,0.4339652705166799,-0.017329940117130287,-0.291500127060727,0.2587894999424284,-0.7203142129753193,-0.10435079118331898,0.9448185484523456,0.1446555602665276,-0.23054478295041256,-0.3748687127068591,0.006610685899602148,0.05094657356495612,-0.055476805154772754,0.32510600496541864,-0.043935258211861845,0.20276621849294696,0.4253592441808744,0.15141627419357231,-0.03590093860714826,-0.04926122789018955,-0.07382949875079962,0.001967046657063238,0.10712850894825057,-0.311167666990528,-0.060490279672267416,0.9840768652807321,0.14552760227915035,0.019075949170849663,1.0733213602445002,0.5301843777322461
31.98525047302246,1.099599838256836,0.6674506375989824,-1.0853522789513805,-0.11395219718588029,-0.9646221457344889,0.8085901270096172,1.0840090231867776,-1.1355667584462374,-0.10639256268102795,-0.4897524224215547,1.0027319977025617,-0.3853749268057437,-0.778005123644662,0.3890350981421326,-0.7452398115661132,-0.5282717300663563,0.01958677256048182,0.42875995066467393,0.1701235866912561,0.1276895072168055,-0.1974151954295711,-0.25515920829085226,-0.07064662762577725,-0.16511075539665226,0.15824801376062606,-0.0017314948342910322,-0.04404176813793685,-0.04508724760387258,-0.07838732159539037,-0.13452079480673332,-0.01927787391631583,-0.06306840286902164,-0.17330182399332333,0.0737224991652904,-0.009492543880601396,0.016808812936142746,0.07959306596852239,-0.2563504520430174,0.048979399775072235,-0.034599624579899846,0.008764870523716377,0.023781615642468175,-0.18781763934199489,-0.15290748394419826,0.27554471468893016,-0.4390823039426257,-0.30543914078568113,0.152984879951706,0.5113954349031828,-0.0052859063276133045,0.5661890839391288,0.16420346804285413,-0.14899385968676954,-0.2835326837491926,-0.006117222505344196,-0.05381364204483106,-0.07357669442313738,-0.08487551729383877,-0.025365176087987842,0.008915777821391505,-0.13731025055512275,0.09723643546972616,-0.40813358031286795,-0.20642977050181913,0.2980183709041875,-0.018674002721279833,0.264371084871845,-0.0464132646734831,-0.4535190439756233,0.35395861378178795,0.37638209424651314,-0.32927798632150806,-0.1335432294674696,-0.23293520155936295,-0.505587211360431,0.10555467785710121,0.3526278485437362,-0.050764526742504576,-0.2614405990807708,-0.11373072694404615,0.06080996367986163,0.16822008876338493,-0.128523594075473,-0.08127615467514117,-0.06072758384516778,0.11197533243954075,-0.017390870206364897,0.0881089568296047,0.053721399649884344,-0.02639930676416365,-0.22954945848800154,0.03614363808264834,-0.04439674846743974,-0.02329189185720648,-0.043556568265961826,-0.2189237100666262,0.029501377120325644,0.2749993280637226,0.051740148417278635,-0.8343564749995147,-0.505936814621823
33.0848503112793,1.1393013000488281,-0.552993385236054,-0.16250049398801591,1.016256422612208,-0.31684611970901716,-0.08262082800216165,1.7667973188771835,0.1263947699868701,-0.5788424619093311,0.2430143470968077,0.015560193341039079,-0.02474074306648618,-0.08379681219215457,-0.04072740107448327,-0.013972971039049343,-0.10541136471900459,-0.08375267868184551,-0.1593560425690059,0.007258943237867174,0.026572019591570302,-0.02775172171763701,0.034994790720437645,0.0026572630392028523,0.1330053866141949,-0.045066200877447726,-0.11622198487092324,0.026822997186549385,-0.051290169870622834,0.027612535603483312,0.04244454630772892,0.07661740886325423,0.03353816887076882,0.01347650298642055,0.34707120308544204,-0.08058597010262099,0.17728770979255265,-0.22287650057240166,-0.12591882942478488,-0.25541509131967616,-0.05497682515106732,-0.28164834416955237,-0.49880651670125004,0.2927878463601015,0.21882026861677054,0.6926488927065386,0.24234251709863036,-0.22700334014291887,0.025311934626758292,0.178907301844061,-0.4930027845761923,-0.5804824765699359,-0.40643814501054365,-0.06208949869119789,-0.14000509133766248,-0.08849532357504847,0.049806464299810844,0.04496871046275041,0.004685542929064604,0.011038109551984462,-0.04667810458540431,-0.12626133264244893,0.03871882940832832,0.18633507993465895,0.42989922541843417,0.11399534435618076,-0.11072499013063122,0.0008523312519629588,0.12746699251997298,0.33090904618192957,0.24555186624937136,-0.244232152653732,0.027042254752005907,0.42129351186762865,-0.16546107884748273,-0.2541042004730506,-0.18934524121337132,-0.434828812395281,0.12650533398517824,-0.028462957279585997,-0.6276119722706893,-0.2821813224761579,-0.44423981148672226,0.29071382784034994,0.22338564763099533,0.21760290285108458,-0.14344518940579448,-0.1400090483114525,0.3300631731791545,-0.04918857207140457,-0.04748790719908722,0.042694748598639545,-0.042765945056433274,-0.03663554646323018,0.11605766321607655,0.022695261992180037,-0.03152707066750025,0.1982723734099913,0.04106593780622969,-0.27521010178065125,0.2161349304214189,-0.6297913068490428
34.224151611328125,1.1890983581542969,-0.3200262374802496,0.7417503086364207,-0.010248891394972398,-1.1899523522849165,-0.1402689128399482,-0.14852906285505618,-0.2576030333232616,-0.056442165148307966,0.3031360001811094,0.7430026066187775,0.2649781945413874,-0.039107616318357054,-0.21759045238459362,-0.08164804657359681,-0.08834482178150546,-0.03479158083148678,-0.15931597197036398,0.017538886650327906,0.041730035906161866,-0.010008793406377541,-0.07392816990672715,0.1800863092387922,-0.0020765566970117524,-5.959144079364931e-05,-0.051435722170798726,0.04566649966817914,-0.017902849450374632,0.007738471736424807,0.022823984261845492,0.03272171499757248,-0.12317254859372492,-0.18217393701980666,-0.11656165286244044,-0.08741026457234488,0.04973257604987427,-0.1083495068634814,-0.19886144917256415,-0.6902163501299152,0.3704208840728877,0.09561150216668231,0.09657261634205332,-0.21079490273856258,-0.27551518250447493,0.004103373850780781,-0.1832179135488751,0.26735654188910735,-0.1690300201332112,0.06989433621329211,0.20523752883311125,0.1992543853197768,0.1609930687942791,-0.18776875193017536,0.1463987690489647,-0.09958785911363263,-0.03099836607472732,0.03635639532263791,-0.04984784892398113,0.019375043115643326,0.046938721233852315,0.06434668200640145,-0.43243910496802884,0.1504586265229758,-0.06838828773700845,-0.3545462921887594,-0.1587654388496949,-0.23641995112835118,-0.21622816678502943,0.0561504655173296,0.17849261620009055,0.2602315047307905,-0.1410935102934266,-0.11777558474941123,-0.7594939387853201,-0.46858438461496243,0.39991196639822413,0.002835742488696273,-0.1937673757187207,0.6158716712014449,0.12236968992587205,0.2954915415673383,0.6180775244458727,-0.49014442909492156,-0.3502152467509775,0.27246913433479386,0.1024209284104061,0.15835632317804618,0.07507023796640264,0.040740505713182926,0.11594540464880955,0.10104590056348428,0.13052927211798881,0.17153694061003125,0.23782822619623883,-0.4333456056517218,-0.24957707845007782,-0.26038046259452174,0.03333355786638278,0.3256239019794054,1.2870919269241439,0.87599758576041
35.41324996948242,1.3189010620117188,1.3258806567256076,0.24292566732780987,0.3956166011593473,-0.032369030520346065,-0.8508703139788267,-0.6131652022122449,0.4728695157999217,-0.4736070950280439,-0.4041816813568189,-0.2916410742244882,-0.07520030167603607,-0.12606012492152197,-0.053399266331693715,0.053394813025060606,-0.09650671982353384,-0.15587405902634843,-0.024805304758241217,0.07095277890601928,0.08716398991952962,-0.030419107731608993,0.062428209220830456,0.02045823052066304,0.05624434434362382,0.004058391734502886,0.027885956340009035,-0.036033425030147705,-0.05358024803319561,-0.18735180733583134,0.04646077114671967,-0.21349361677395845,-0.08800615102074423,0.06052372870172441,-0.09299223109511405,0.041541996586151334,-0.2067999223173717,0.06762688604064039,-0.23676001422220083,-0.08074474499549926,0.16546912515775608,-0.18051347127723913,-0.15322639023144868,-0.13571082865367975,-0.13269759544329524,0.19855670977122894,0.19598681384735775,-0.4289696961408347,-0.3168168867230591,-0.2148101185289022,-0.2211656608439846,0.11147493248445574,0.018325941946702312,-0.1744107169554385,-0.007808605461215479,-0.07680776274070102,0.0009157911943725866,-0.20182185475302283,-0.018778002528936216,-0.0917416496985202,0.10776312749541979,-0.12197188155092098,-0.4288272163391783,0.7362081825942803,0.5784254074098762,-0.24255652963801508,-0.39572418411444055,0.23858220884419792,-0.0018361682026509889,0.048567993744810786,0.06960239899464851,0.2006484517170614,0.14233650366741077,-0.047306952760159435,0.25711560050929216,-0.04990794438825677,-0.33515754333927755,-0.1995983657243817,-0.177718299107806,-0.6112371241609553,0.4954187737994178,0.43182715601468336,0.095190100966869,0.1883836315985641,0.2507711429385009,0.4561989223178006,0.23282254075003264,0.31751507004296053,-0.33126914661952184,-0.13547803347860507,0.09104153119911754,-0.4746502859927992,-0.817452243200245,0.8884459512732044,0.6552364470387432,-0.38191072693385786,-0.43267204018159044,-0.6419924414661088,-1.044280967709056,0.14983883364194553,0.5596318582868205,0.7300420243001134
39.010650634765625,1.13909912109375,-2.182703170585283,-1.3935185599320878,0.23804088462348927,0.1214745470023042,-0.7050981117845273,-0.2690446918279862,-0.4623657574863125,0.3969351414324707,-0.6789913815115662,-0.020121888831656304,1.029376920464422,0.3907307382590872,-0.00033472168986997675,0.06271481967898784,-0.16992817604345284,0.06942184464462892,-0.027802085815232115,-0.0026074739184352574,-0.002322633717529549,0.02048411414267631,-0.19003491343937012,0.13672634749171225,0.08335263880629598,-0.019481493610816386,-0.23203245035488995,0.08050115106529714,0.3048205179848608,-0.2447980764190047,-0.0039052616505157733,0.1812484488864418,0.07586501851712876,-0.004921343162071334,-0.11465172858435974,-0.20150300568894952,-0.031645745093054324,0.16312612278001093,-0.0075969507074908,0.21063773399431102,0.20500880254743334,-0.3097753828808052,-0.29879112648440104,0.6327417124635405,-0.10675192568017444,0.06053510262929342,-0.4235473927600952,0.09549816914209659,-0.1757216158328878,-0.43652776885613465,0.07878520662259109,0.20818735651420858,-0.08573790610513371,0.17265550503686,0.05525169368275423,0.3568920071331209,0.22129560656941696,-0.0610871633665572,0.15301703664916153,-0.048699291968037836,-0.010257481653734397,-0.030759388121971036,-0.09153043594547002,-0.046422644307085786,-0.07156744382971779,0.0362867584984579,-0.06791002660230012,-0.30841219486019567,-0.03853053310819421,-0.15838640461322545,-0.3196830857244743,0.08355206482413664,0.09822904624142564,-0.6624651708987197,-0.19501241914028405,-0.12693100358208445,-0.08002386818189094,0.12166456674012938,-0.01713172176070122,-0.23248640239994534,-0.15316826314430687,0.0020879063926794762,0.27830526243449283,-0.050755016122702765,0.0586959854769049,-0.04902470877861705,-0.0618960710537741,-0.0327744512452387,-0.063202979583085,0.15908805649543936,0.10695844715273517,0.11217089391649716,0.0003766576598827025,-0.018138430642876922,-0.19491521599491338,0.1623113480875342,0.2432477644512911,-0.4043534733321428,0.290136563809027,0.10022169434190506,0.21255929873893253,-0.3294941688590888
40.149749755859375,1.1389999389648438,-0.3652267449644018,0.03490250730574264,-1.3951465625962551,-0.6729898980883666,1.92096366069212,-0.10626278160692954,-1.01031223871025,-0.07891570402057967,0.05164895389023932,0.007336712741880601,0.054214676372410175,-0.02607463469945158,0.05369047198931305,0.05373036230371652,-0.02186169501186301,0.2584673422961258,-0.1280256526080034,0.05620826515047609,-0.0054328767952867875,-0.17699082408082947,0.20603399827873295,0.05266457111283565,0.011403146893577189,-0.05193723768352717,0.008815080254661028,-0.13829674894093097,-0.07241518058965316,-0.0983496555839169,0.025262909839710433,-0.07173447054230757,0.07629398215500634,0.023986942788902947,0.15169283909177206,0.17835444352073082,-0.12571349959856945,-0.10202999363141249,-0.0925296409407222,-0.07732264504091671,-0.1939046859298283,0.18873342655689757,0.1586086464737279,0.004139127117827379,0.2822016980872446,0.2783603240989104,0.257407673662956,0.7071013997958584,-0.2514422432506579,0.04012206694983085,-0.08023457430722615,-0.1098277225017738,-0.10808895011696662,-0.2113780039234224,-0.3424398753491375,-0.10004151469509595,-0.24960699802999317,0.2634113182686205,0.03090525352512581,0.002823180147465474,0.0866360581608702,0.10005295865459068,0.09279234475054483,-0.09721664190575599,-0.5445831749124237,0.4964443186715227,-0.5063084726376214,-0.2545608521555838,0.7733730270619137,-0.36586564922743753,-0.34288442570660255,-0.1170775626396773,-0.3588815875069599,0.16453574361134696,0.27544325402765946,-0.07506225961454885,0.7262540258733534,0.33300735260159875,-0.8647108380799071,0.3133658489591067,0.12902436824203461,-0.07776693318900997,0.3308736947903977,0.4479222599219939,-0.042609887090104985,-0.08218371723565976,-0.48186987135942905,-0.3855171472481457,0.03878333717424077,0.022836667417995303,-0.003839169220530292,-0.034160779189261886,0.3152338301387214,0.1258084603975354,-0.13059327468885146,-0.32250872508865375,0.06078630856664122,0.42123792178725805,-0.14692903911785235,0.3901099319610722,1.5598208347589386,0.835161039507613
41.28874969482422,1.1291999816894531,1.3473142582337156,0.050251509750143586,0.10143749910431676,-0.36069658568885565,-2.668619820027665,0.48388761196796604,1.040678776713411,-0.797469479715673,-0.9690388190364696,0.0354731692260432,0.0810926346733286,0.48328236007122916,-0.40727016074817474,-0.31647121084745905,-0.8341788673671248,0.25489312321706503,0.381374541299142,-0.4555873611355262,0.6286729124358336,0.7689078077918872,1.4810447621127685,0.6002278012760882,-1.6542397059621938,0.34381159597277267,-0.3059200238678883,-0.5381900647636508,-0.7444209489823868,0.04084744652455402,0.5128678763514345,1.2738209839773338,-0.08186129439499501,-0.13389190780584742,0.5203913923570024,-0.3718537155996377,-1.1867132260242725,-0.1846878804812955,-0.428302908263839,0.476559310557306,-0.15739291498863012,0.0998156306032579,0.41194065944674196,-0.22551549912533558,0.32993065317947656,0.21234821399534803,-0.46155424808540807,-0.6411551199162411,-0.3934822861702897,-0.42553545850515745,0.006494196941701197,-0.06214143601036047,-0.2685045701422187,1.3805287295957567,0.46858992529966637,-0.9085921581561414,-0.2733553768744013,0.2558485846995525,-0.07080002852842418,-0.028245368981563483,-0.04196792560151105,-0.018072874632382108,0.006713083282033963,0.06743854672874076,0.08709690287642563,-0.33465553336886666,-0.2906342026088781,0.46379921152900083,0.12283225261375505,-0.08989981107889089,0.29610154054080223,-0.3117207154782888,0.5254802187119754,-0.1153853410363254,-0.580643981566218,-0.07319678796905951,0.13492013615133674,0.5617829197568652,-0.20605257372844515,-0.7895714066277852,-0.3765770199732307,-0.0026310163699841474,-0.8805830055264638,-0.4536937565597547,0.37060769913734715,1.0036241563353334,-0.146777669514733,-0.051169392250979856,-0.17485177141212752,-0.032762000681664696,0.22090455502410072,0.34798097160038255,-0.00851003408809269,0.03468376046914163,-0.08479996220502423,-0.18996161880395263,-0.10430969761978703,0.5915955458952018,-0.023289796678903324,0.005803735633179384,0.054046403563841085,0.8574684398551079
42.41794967651367,1.11920166015625,0.613718075068336,1.2734377783848085,-1.204980613121516,-0.7364498627753234,-0.28068460808629014,-0.8900880553720161,2.0725130959280875,1.2650711090730316,0.2548387619095969,0.21092438875679817,-0.21696141244749698,0.021050463960660966,-0.05038589946742439,-0.07713223580133252,0.08887761003767633,0.2882290669061361,0.3099364455645498,-0.08182865211735067,0.03432908820081078,-0.021460264808045373,0.10703217534164149,0.0833675528913013,-0.166722106108983,0.027384809312485294,-0.009373678394735876,-0.03968140597614469,-0.06211582639968502,-0.05430488452109765,0.015754317670293644,0.14042113800933903,0.17408602652649133,0.03355687863920329,0.05460375823406609,0.1416673257824554,-0.03774729332477539,-0.17794623844213092,0.132243802044321,-0.08916458661968454,-0.22253717781723853,0.16358623890498275,-0.10712720441835384,-0.25370737485543104,0.29485813433046204,-0.12910403902031903,-0.33878139728717294,0.12438200686831336,0.1876540655456453,-0.30852718321439404,0.057726921885644114,-0.39075140882625403,0.37028351340308,0.12412443409133878,-0.005179538682862483,-0.0658109064257598,-0.03896052465320868,0.029584779918945044,-0.0405968645436433,0.001389480177612788,-0.015588231485819143,0.011953457344871557,0.08715192799269544,0.039931686837670996,0.3654489653782513,0.008633212125774272,-0.07189794934511434,0.18202323985529373,0.19856169563336454,-0.17402702705630552,-0.5053090283769788,0.16398714270116282,0.31228360343578804,0.2604092749856193,-0.09788643648628297,-0.19757823401868663,0.046711398300433034,-0.12053235166333649,-0.1941415029670691,-0.12050506839221661,0.022628928782432927,-0.3335665398150607,0.4213345351542378,0.443430188904657,-0.3249898393534344,-0.12283516294801881,0.15219706324828136,0.3258239095111099,-0.07752635887750765,0.012333289212114835,-0.015169555658485117,-0.08371301737895356,-0.04330241521241062,0.16933256306195116,0.054372696717984864,0.11864613452696696,0.4206579950641753,0.1393729660293472,0.3414293225958831,-0.4771644273225569,0.5611255206699843,-0.828224873553681
43.53715133666992,2.138500213623047,-0.7401226361127733,-1.842117192933381,1.8746741090445778,2.507742992539762,-0.26488092075690767,0.4336139424037261,0.12809736732780722,-0.9333066471473718,-0.06889717659558761,0.14482370635013275,-0.28918885233272257,-0.22344649931280477,-0.026908129009017526,-0.06435367326937844,-0.327064095282825,0.024052669689097153,-0.031192379663158354,0.03100687182581019,-0.02740765969145488,-0.002787354197192006,-0.02716634324450439,-0.1559190312720977,0.0033375434653545965,0.010795580115004913,0.12321578020988969,0.07733230630516892,-0.034348390507993626,0.1777721869525796,-0.007786941218612882,-0.11427661842010209,-0.0378903451166233,0.0013694653035146165,0.1318317456434029,-0.04675176708519741,-0.025958811758026067,0.04464115094060975,0.14846833767733533,0.06488644312152235,0.0572387017476465,0.017867153191789442,-0.34808391720842613,0.0020272783999668777,-0.11430598024850654,0.08712682989300667,0.32237875901573937,0.17173949038536732,-0.35208776976545214,-0.5929866181133293,0.391608493326907,-0.16239643781638247,0.16917535299217906,0.04773617463491595,0.09958748920468524,0.013007149503961264,0.012471219335342234,-0.02171039238361986,0.03989160039783181,0.05329196616823901,0.03270893775006344,-0.04477204254848056,0.18869358535739786,-0.08230238889006884,0.12261808040614545,0.2897073873354923,0.14259066128367148,-0.035895457576393994,-0.2282489939573063,-0.04808749939801217,-0.16510787305242092,-0.21004133696938806,0.27690568767430457,0.02919010479309269,0.21247976514184494,-0.11236742455917173,-0.40124470946188834,0.109161927646706,0.14647607221930517,-0.2320456557417001,-0.15531139782553552,-0.09063357323134041,0.34516178217617527,-0.16626860649005754,0.013458123515746101,-0.23704140449121294,-0.09873853606069097,0.08875676917197595,-0.01394082932727346,0.00635497589667112,-0.039228839245893744,0.029924479947136182,-0.004665447327413952,-0.05566889737665558,0.0035102621897168595,0.22224564185200105,0.11634683178958576,-0.12165242499802907,0.16257194581519913,0.3399838493276991,-0.751316682450789,1.4114264867723745
47.90454864501953,1.0788002014160156,-0.19497439657833046,0.2046863403411444,0.9742899214116221,-0.12251403747275358,-1.0085351357948988,0.14657136229565748,0.43104137458838543,-0.1765174339076737,0.1713282101607565,0.3029414385636031,-0.062241168319602365,-0.42088604347998776,-0.01758142341645064,0.07786561329751636,-0.04843925985629535,0.027575383382305314,-0.10577451530823585,-0.04501281462307971,-0.013682118252153888,0.05765930835955761,-0.03556725049784869,-0.011975247080498738,-0.001773489291057071,0.019788828324332007,-0.0026131882885439936,-0.06565268163299742,0.05672154856058431,-0.028038501275319035,0.03787326198361422,0.0918991910137865,0.03523653336397681,0.10304092083198595,-0.06258815958168765,-0.2487418222624609,-0.013137159909320654,-0.09155250487092421,-0.09839538150073093,0.07467558417355137,-0.10223249463682078,-0.5010581817738969,-0.7663280617063095,-0.06999312035527595,0.1025808508900295,0.13304790949232218,-0.0915885628083316,-0.06824140133211956,-0.1441732398126723,0.08707209337792941,-0.07255479168656619,0.26657512881458906,0.2512012730018982,0.3180701838840265,-0.06213614126423275,0.06811960198239758,0.002199400877534169,0.04840844849412255,-0.1564745790691452,-0.0033384436503330825,-0.019055452333994194,-0.009252200735836017,0.29032250637571616,0.41767228489671065,-0.24428187706940527,-0.028431510202613027,0.1673028941200296,-0.29872493318984417,0.18389797708791406,0.06707017412025984,0.023549785206588073,-0.05623533548897452,0.1727237264579762,-0.08722157439178752,0.13013953422551053,0.013813051100846567,-1.143314239210437,-0.6480080656315712,0.2232451470496945,-0.5981121274114212,0.22075476082301643,0.7431595354629913,-0.8272804319766983,-0.1319783702234566,0.07852042283199634,-0.11406904278625815,-0.011772813537138438,-0.0464598409948587,0.0425046360304841,0.06217665897149041,-0.018801383439307696,0.1466944728448755,0.001451476893331919,-0.05407780891195754,-0.04280382602642303,-0.18061309745273907,-0.15102727007862943,-0.11246281387157181,-0.11913361941507766,0.3368701502539149,0.0942246287182666,0.07528341285946646
48.98334884643555,1.1394996643066406,0.096818324653866,0.6676246841797482,0.28828002198658803,-0.07492262393753008,-0.8515144806445296,0.8653255810015889,-0.12613048735887353,-0.2758927872434205,0.8345358346328383,-0.042084665062532556,-0.07996395912767318,0.08909962684732599,0.07088246665782538,-0.053367598691010314,-0.20515270264149385,-0.3182908712636893,-0.0052861788166016135,0.16652772382841763,-0.045076565164678055,-0.07309420320295107,-0.00508850172758038,-0.08595486800842533,0.10274675948978819,-0.1396629086503791,0.09519579463219228,0.004685511034527145,0.05404705358145371,-0.004580965923578085,0.03183696958530808,0.11091823900120121,0.09686590207262694,-0.06354198616107264,-0.01620532295937291,0.12466070200212664,0.06664711833645692,-0.4333037975416931,0.1436279006282031,0.006561422521993929,-0.061158248894243095,-0.16107468420867985,-0.26236364210589314,0.2814319160147814,-0.03389105515916295,-0.1314910437533103,0.27804027389732083,0.19614583617531728,0.028079484574285093,-0.08200467068164499,0.06428393083402141,0.08956551395269927,0.10138034598701068,0.0947417789155834,-0.07973670861944487,-0.08737298316493074,-0.03245567463462598,-0.01280276788849078,0.005799071667093782,-0.024594782041978947,0.0011891487065623157,-0.0021882174003472477,-0.17026334721720193,0.2447088301948815,-0.28552016240007905,-0.2166657449871704,-0.25524446559447006,0.0064692957776427,0.20801454944305672,0.22814609051875467,-0.22920204947286546,0.020153376421552294,-0.16767641009501033,0.055875909642899554,0.2836984388280695,-0.14864496289025686,-0.08086078295748503,0.2315511327532189,-0.08348894989325306,-0.5152309813606508,0.29697403374661374,0.3252963334465133,-0.2186335356658475,-0.09956162988231372,0.1737493112928489,0.46347355131756895,0.11918090503723346,0.1683746950691098,0.08793116639497177,0.16507192894929243,0.1353315982322127,0.005845007112160822,-0.04975865399824377,0.05217746250421963,-0.24595574200099665,0.09288021949867212,-0.21195442058827416,-0.5988353577118279,0.2571364856670326,0.01710347285958279,0.08802455020488309,-0.23311414559663446
50.12284851074219,1.1489028930664062,-0.09466311202393779,-0.5357692811552769,0.4637538839400667,1.6433408300646426,0.24288816811845024,0.20474697277267986,-0.3480926997449766,-1.1358732052652143,-0.18309389933545794,-0.06086157892786207,0.07759382046336291,-0.036495221063727164,-0.14902571124913383,-0.06853905940845681,0.018156884831329104,0.06412130904947078,0.07584949320621442,-0.020941267069196592,0.035802681828759356,-0.05597794692216562,0.0805338718977582,0.12220718993832883,0.051513437617393854,-0.024165805648959048,0.050040092790343806,-0.03969554850681398,-0.0001610892500614608,0.12209516484749672,0.02563954662882485,-0.09094083848695403,0.03544147518061529,-0.0160327193163195,0.022690144848305654,-0.021635517825017353,-0.05798304416949768,0.09680234418019043,-0.081368802104236,0.009576663568232488,0.26683986614629845,0.13557252757714738,0.1993300249091849,0.07939798125534756,0.061574866848082,-0.2315794865458943,0.20093130746550852,-0.045467468924560765,-0.2796499196024373,-0.18176609638021157,0.15989547258224437,-0.13971388151011904,0.2035523447247609,0.5874555558954713,0.01557208107765777,0.07813645148682126,-0.038895463838649724,-0.09001893695108694,0.0099852676749317,-0.03319816901130348,0.004297480658084582,0.07593525509120007,0.06256087663652761,-0.22292346497562315,-0.13119169626704014,0.06734457971365375,-0.4944315406347253,-0.5536051650534267,0.14604181429114554,-0.0028730534052432387,-0.01578248961316345,0.14299357617166852,-0.09316226800103213,0.08335738080229933,0.16920469423541018,-0.00855223935487279,-0.05473415940122373,-0.3094075214845805,-0.3745947111312649,-0.13604414342813476,0.12272972028884005,-0.14197649734892254,-0.11997212043969212,0.6195549911679012,0.012608925519340283,-0.06636416336298037,0.22438954497473515,-0.16890202721272124,-0.3396518840229716,0.15416335133253672,0.04363108524095634,0.08241369983419752,0.03557650812321274,-0.03109600351313538,-0.1963650917295549,0.07715011789874925,0.18806966133264005,0.20697373336419675,-0.29135932272171855,0.1382463885521597,0.7232711125337955,-0.5556057691754401
51.271751403808594,1.1595001220703125,-0.3351672673184104,-0.6531876989836564,1.1471618765093932,0.7431766433250586,0.38081109997904966,1.0600327359027417,0.2628063735279902,-0.16315855705964463,0.4614140928312427,0.20435741897585397,0.3211248474596552,0.023167800906792817,-0.04387196103249618,0.017979490489849228,0.07141141806597859,0.06570303381718869,0.07296843556072174,-0.01672055258926089,-0.004497101437930621,0.023496099957189154,0.03005025456827725,-0.08778678642203133,0.08683783434380049,-0.11935955002308944,-0.08855850526201325,0.011639394338549438,-0.08461724710400464,0.04536797197271337,-0.2058065858172425,-0.03093112518875681,-0.11448691493700082,-0.08464431150772321,-0.02962591764467711,0.008587119347424734,0.04887171596988694,-0.05399040146694666,0.21709341869201926,0.014524916398897346,0.027752781298032422,-0.03981785208966158,-0.30995770447466553,0.2658482071728822,0.16504255032155796,-0.2961972559221011,0.5727490598638123,0.026689645122916286,-0.31726072012470063,-0.9778348220221659,-0.5814685405494459,1.4947438497849779,0.04924032435091158,-0.37603356007959454,-0.2770076460322537,-0.3449380201868769,0.08878214833602112,0.007541056947704801,0.023103000791502383,0.01382840556482019,0.07997357265614838,-0.05807033655735785,0.058440228565791424,-0.5762891411383677,0.07398923345407225,0.5586230444625606,0.16436226632574594,-0.037506632109920696,-0.17411405015690604,0.023495071708670306,0.35731807498287144,-0.24601065670433706,0.00856513073267829,0.04194125464003917,0.47320707677258445,0.3362988000163271,-0.9236699892787331,-0.26987312797309615,0.14289206799334955,0.07059184409257194,-0.25934183308797254,0.11314505280541343,-0.00811311453549366,0.024309020714386235,0.5433288108371416,0.25237557212831235,-0.024282173554985756,-0.06580486179053366,-0.07959890340955651,-0.04769494626534364,0.002094231703631871,0.05961604846347004,0.02913858602877599,-0.17523791465959676,-0.36718504059547286,0.14833523670176052,0.07669943563764828,0.16154524939236473,-0.4117361348774844,-0.2987497188377699,-1.1787440005823073,-0.06429802710067545
52.431251525878906,1.368499755859375,-0.16438953709948914,0.31787364108186106,-0.032353350289620275,-0.6847785619666372,-1.284016117572376,0.7783523531523102,0.19695040776412553,0.1338091704771285,0.06789535312619834,-0.05148509263550905,-0.05413159788209165,0.03303414507050142,-0.0274359443275453,0.05694692257193454,0.0024628837383676603,-0.019470265932642436,-0.05421193483037694,-0.016219930588083215,0.08357122840936607,-0.03515143053245415,0.05837795637405156,0.016911261275431824,0.019294373258852093,-0.06878095244940209,0.012109495684707414,-0.035050178532345454,0.005656835381301119,-0.0011002932964467166,-0.00464180253675924,-0.040922962312798065,0.03165045548594579,0.09997123424768758,-0.07230376661336664,-0.01453661434319184,0.06926084310869858,0.08495641472419442,0.018434819552946805,-0.11674512628248133,-0.07692308105978413,0.027172404553257194,-0.422782718580328,-0.23493805509172389,-0.019044702828157553,0.338687794573477,0.38590399403276504,0.5976346835043619,0.46132449064637415,-0.16602108147028316,-0.18809225416676284,-0.29897389852619144,-0.5318291646057872,0.6202181118323123,0.12710095403768032,0.053081747817611866,-0.04683868663138763,0.1359509336573769,-0.06903538528340045,0.01930392937675276,0.0777893402547957,0.08455118209800466,-0.05328333025625673,0.3451410031875902,0.35001880414616926,0.029345238123769036,-0.048325502065762166,0.17152387127581625,0.06292077845613864,0.06020240977663246,0.7348403930683072,-0.2778228882090555,-0.6270155193679027,0.48813703008608667,0.284642023042897,-0.8016586045215937,0.17279016066670436,0.2499621778469757,-0.14839225445036325,0.1755407606197619,-0.037136595657058055,-0.5321088388197752,-0.4885066846769926,0.34836516795042466,-0.5891191294968523,-0.5892894270537318,0.03557649467309229,-0.07192347329847605,0.14494132866252477,0.2044722092341893,-0.09998960701914278,-0.5144711979261463,1.5076748913230156,0.777579951013332,-0.0018836246996013356,-0.2388194192043973,-0.6955562051002872,0.7222126380187083,-0.06242417383348653,-0.889023206870808,-0.9996846428044346,0.30275783440687376
53.79975128173828,1.1797981262207031,0.1739283913972004,0.37571333152811237,0.23422539358107916,0.3404525554407797,-1.2198984826826298,-1.6007469921669328,0.46819822951029433,0.0636662711253718,-0.08630441512061227,0.13458655600476135,0.040740876776235904,0.08970291611073111,0.0728019485899204,0.005341238688837763,-0.03526643793137382,-0.12250144264668464,-0.011718896110263,0.11000829998949015,-0.04553835295748332,0.013890884597427877,0.026317429214151474,-0.034872391084832886,-0.09857626054208048,-0.004393308825554467,-0.1003200583505168,0.003916787259188475,-0.036761502917942224,0.06396247308839778,-0.11815981058943267,0.005409945372868943,0.009274546250114347,-0.18174115779594435,0.1580062631240125,-0.01670618243851163,0.17602965626634107,0.01545592285623098,-0.003913472063412873,-0.052510176141231844,0.15459346756709508,0.10588105955899374,-0.06966733395360852,-0.028008644990287677,0.13642706575470656,0.042126923842484815,-0.0935163485986508,0.2534053307167133,0.17744491305732438,0.33790862233556695,-0.15055527763843266,-0.2772433358927307,-0.19041923924475826,0.33294804536300343,0.05219148247958595,-0.031585645740281026,0.10600587777719121,0.12817874790429126,0.019344312575420932,-0.09048241304701736,-0.12525152495372108,-0.15336110107331835,0.24084970968549343,0.05512297642355174,-0.23737659365372057,-0.28573855763078576,0.12473735430483218,-0.022591718366156824,-0.0576347502107968,0.06928961926974511,0.03682209219007595,-0.03029836291205175,-0.40485225994544494,-0.5084860508997966,-0.08670163977276062,-0.2882265511343168,-0.3801822670647382,0.2875565760858971,0.5335948299663174,0.44137676160222,0.7136731200466868,0.4581059129237043,-0.20700162356247967,-0.4586412006540507,-0.3222733983152208,0.4442056627865599,-0.2604367274911391,-0.052819013157523895,0.8648538792221928,0.7681063017351305,-0.5814875782139012,-0.3233787931919135,0.18763319785095942,0.1502162548779173,0.06825798028115233,0.12490111066719264,-0.014079452513005372,-0.2225919951641227,-0.40626861943038023,0.39902664925825176,-1.3268325076115801,0.1895478358082996
54.979549407958984,1.0991020202636719,0.2552273268977395,0.9523990441985498,-0.10469990257625125,-0.2635086302754081,-0.1309610661208682,0.2206624812019123,-0.0718805478096058,0.03930770760627274,-0.06760460660057462,-0.05333605820398138,0.021123220630820352,0.12972336392896847,-0.02491076046653618,0.16467267279557915,-0.07084317171556168,0.2277032719666968,-0.1360789603553016,-0.1934241788611357,0.10749778618698616,-0.043547505645027865,-0.035965046029983676,0.20355870192052608,-0.047622168471407156,-0.08826439239971917,-0.19328902525549554,0.1816692374228698,0.4312924958736817,-0.12502289096372068,0.1815708945743572,-0.005230223047305891,-0.09428697211189518,-0.07209588050776294,-0.21086272642129522,0.06962456418153268,-0.031169454265069854,-0.018792454288933377,0.1477783981179864,-0.1176628263686436,-0.16541913820628334,-0.1423295999340132,0.14116370584033347,0.30272457159046334,-0.018502285562923687,0.7301476867265725,0.99396564924881,-0.21347176583013772,-0.15826624382822607,0.15479192132392922,0.10279853381062595,-0.4610068171805067,0.4464996582835679,-0.22229291777442448,0.6306898159277514,-0.38024797979073105,-0.01024907790717644,0.059729119608880527,0.030767660693310557,-0.03669093925060156,0.01282878382326616,-0.0023785175592960367,0.06040099891256726,0.148571346193045,-0.22337376518175706,-0.11017924509569116,0.310738763399545,0.042937185625019136,-0.06707830616362478,-0.14682697801889863,0.18095035720451136,0.4107057232260191,-0.3456967829778958,0.06833325817230408,0.5910810059258056,-0.5067066001228466,0.4751467466066806,0.14933882374222102,-0.9343361893578236,-0.2355402478307913,0.3858066257907261,-0.2803162812395085,0.062308290399325214,-0.20104683524241668,-0.40347095744224754,-0.1544735980992772,1.2245968654625996,0.9899737360432401,-0.16219705834080175,-0.10061023616571285,0.02620870400173439,-0.03456724908350277,0.08043900418559002,-0.04257729312797828,0.28586085587922816,0.5616556344939077,0.3663995922467455,0.10846250316517411,0.3326333641594284,-1.7083358147084797,-0.44861387859268315,0.865749597977726
56.078651428222656,1.1392974853515625,0.9904612562093111,-0.1815801349832568,-0.0853570120015252,-0.9737282384329211,0.5745754357923014,1.464252578685308,0.3264452687227154,-0.5115849200154866,0.3527374125686851,0.03549389035047501,-0.022731724964933236,-0.001363438490346625,-0.11172793338869355,0.03162321078013565,0.06511695635633045,-0.00015479585089937906,-0.04786543081788879,0.018628306231400597,-0.016839362851253384,-0.12982392929308378,-0.044132929247620384,0.13255488862209358,-0.09432682276099726,-0.0678583087691581,0.009617392047059055,-0.0931688087343888,-0.08427636028205346,0.060351276431296,-0.13216956618186054,0.01354278920299385,0.028327744891731423,-0.019942602457665784,-0.01738219368750716,0.16495368131155974,-0.0494868063687675,-0.17548021745780717,0.07381467899032591,0.20272639161020603,0.04241741909234668,0.0565499857689763,0.5006027294222937,0.3607959702200929,0.4643574671314793,0.10741684049359636,0.09048500176839894,-0.7485727459470829,0.4412598305433763,0.8536901057984848,0.18507485964745563,0.4276670208616327,-0.6563855288486292,-0.3749818466880328,0.09920861519085504,0.1486461933403406,-0.056195610457378926,-0.05123419630726774,-0.057324770730907665,0.035326401634369814,-0.020894797077970477,0.06955800099564279,-0.09464699710760924,0.04272562001885787,0.06285036722839034,-0.43184213240074465,0.46732534589157204,-0.060189058398203564,-0.1714918101130446,0.16010060460799064,-0.17095201058657386,0.2147866332674583,0.26496122509600517,-0.5035763806644229,0.2416601274149247,-0.38338510244245083,-0.6095920448188198,0.3744714226117142,0.6961869316489527,-0.34291447011441684,-0.1675800568690763,0.13084388369680972,-0.12231149703087979,-0.16811954763253087,-0.08209230698236471,-0.43394216715270506,-0.06543876693273327,-0.23611279926446302,-0.3479936493421954,0.13820030690126217,0.06460663037828335,-0.01011054048386709,-0.08890192439290168,0.06720599099159144,0.1137263115045267,-0.07316534339757055,-0.23207145692075457,0.005771666933049334,-0.05544136171031849,-0.1505578683399525,0.07790872594599482,0.27794863643310913
57.21794891357422,1.1490020751953125,0.36407226899763917,-0.10217653500362163,0.5914312873455796,1.0006409727240506,0.9299352607340599,0.15167997777851566,0.4327483510508954,0.9357160201892181,0.5399444128381292,0.14637352025895245,-0.06379935308597612,-0.0608278531316465,-0.21880924418132114,-0.04911423490474392,-0.04367571694354672,-0.030951080313160132,-0.08074719459660047,-0.05115081350860875,0.012168878717448433,-0.042829778649560765,-0.13739544963991202,-0.1254832867842486,0.0489342057727327,0.003211581649714107,0.1045809123614074,0.012603304277794552,0.03527880837618606,-0.0643228756166416,-0.016021976142561126,0.03416589364489036,0.07039316531683024,-0.060625527939209486,-0.0690064453280157,0.06658360811960565,-0.03745938695563014,-0.008644414136496916,-0.27306582511381355,-0.017299689406065685,0.14191475154190325,-0.14883457011174442,0.3573755141432151,-0.07968262909732501,0.0570773291316346,0.021013731580645484,0.08993216968281703,0.2817020320634291,0.33545820310973296,-0.0008652115856378761,-0.11714544551499728,0.21991923932328794,-0.1517591695972141,0.15939646587988088,0.030458717872512548,0.06604819017783908,0.016498827478149222,-0.002352464887736279,0.06267428379810715,-0.0007940710587284498,-0.04041778837350621,0.04106611996192213,0.06762611446062644,-0.4045620594140282,-0.18166435124695107,-0.15122989907060294,-0.24973832861443832,0.18579160675101003,-0.24852774094449206,-0.13767505297217267,0.10115640391339253,-0.10271469025232263,-0.22933843309802948,0.03253409171325569,0.7188179753854763,0.3306243513996095,0.06740394426249888,-0.16643380112525516,0.05498558484741929,0.6275766890223929,0.38938524098477406,0.12854604400697398,0.1920109156924373,0.0091261921037889,-0.17799312788780727,0.02333681341586341,-0.26639934747507554,-0.05656393732726572,0.14643632890520356,-0.10430960944000653,-0.00202481063587869,0.04902045113835477,-0.08703169205900141,0.027429169758435106,0.09672526075946473,0.39182692775254424,0.16523169377825997,0.38070835686256693,-0.04190548655355008,-0.2781025134685065,0.23615551785114658,0.8546186762413702
58.36695098876953,1.149200439453125,1.1832436012976741,-1.336150019231715,-0.34521976994761755,0.6310020556067173,-0.00031565848599392383,0.7434585778675331,0.03212611809544508,0.0612506524713927,0.303946449297843,-0.15511418287828566,-0.1340630118688928,-0.07181006129856865,-0.046267276911125685,-0.06440402710128366,-0.090306652324938,0.079258068966547,-0.029519179343669003,0.02776957295479784,-0.026482191536848058,-0.13736166251336818,-0.014024800216047167,-0.12244639860097674,0.032661630614223405,-0.004264349054594631,0.008227685676563106,-0.004315576201219154,0.008070880664574955,0.02822591721740878,-0.03776674975409413,0.03570247404065762,-0.05506152820070887,0.07122595973865628,0.08196272657028938,2.8401782105281564e-05,0.027610302776900113,-0.06700820594046238,0.01025139831761801,-0.19375981404175835,-0.0405504254231714,0.024264878045165528,-0.10389064647882126,0.08995532829435987,-0.24623128935144295,-0.21620272168215682,0.4597894960082687,-0.21792956563787647,-0.1925995532051067,0.06771600526843224,0.5722153910718957,0.4603937016021128,-0.1825945750555761,-0.10212184431130797,0.0824312795873632,0.0910206015258191,0.023324535082842095,0.06982153186550019,0.014272567663065429,-0.0012142222994010023,-0.06887708617255062,0.03220999693414947,0.024867196845161452,-0.141652879566254,0.3534127604286528,-0.3981285559727131,-0.324382858355497,0.30525658213325746,-0.037478560272915455,0.07289125094969082,0.10502090083526514,0.1940318549323345,-0.007674005348530605,-0.18958581476913577,0.23566669095827247,0.0461710843971922,-0.002898868446480211,0.3612721873883196,0.43997948857409097,0.2764770349724509,-0.4049507616406506,-0.24849468962691762,-0.1267187505311476,0.5106875360719851,-0.2859648675944713,-0.4322394328834679,0.21693932089158272,0.03149187040937487,0.05797256308875171,0.1657282087395386,-0.09813703600200892,-0.09735917044053233,0.08048824909915749,-0.04247283213476636,0.2216782021217699,-0.06430376811438733,-0.2232400051243856,0.03619151605291068,0.32282687163677337,-0.044825723877987916,-0.0745100185796092,0.41565054474612684
59.516151428222656,1.1688995361328125,0.322764684901396,0.4466080731432925,0.715121632928192,1.5638596436069725,-1.2172881057885312,-0.7957743004958464,0.3874370057249606,0.9982751542802638,-0.36888477646851725,-0.07659746418248768,-0.30309555496670954,-0.32507182755220687,-0.12492915460601156,-0.12458245073991878,0.019483054312876173,0.0629103630940155,0.014012266900860503,-0.03952621229299891,-0.034623142088299266,-0.04624767476954564,-0.06726116872198092,0.05145864038032409,-0.026128290750068464,0.02837921599962479,-0.05180768217974623,0.09431933426512759,-0.03026516035475782,0.014785689793245719,-0.11562483667782156,-0.022374101664476433,0.04605837192076653,-0.19155884771739423,-0.111736266047154,0.13246073010749815,0.10387336265509525,-0.1874241197620416,-0.13299736553222297,-0.26798077665636394,-0.06890081780399347,-0.03201337078921118,-0.07975093759555968,0.06213653521638836,-0.02833554641807847,0.2542064707258408,0.2696564620115254,0.037151992633500594,-0.06629953871124972,0.08603535221521069,-0.027761239268661454,-0.4268526622763302,0.002241868590806369,0.05728028892630271,-0.02215196014473464,0.021026738020948902,0.045537666475980364,-0.04741402727545299,0.06319095147354648,-0.05442985432721017,-0.024227446267150857,-0.03879572576051554,-0.3342364726118105,0.6935764500327375,-0.15068021404157259,-0.9235177284756145,0.3323435558731413,0.3028628409996328,-0.3688669804242473,0.06569898884964351,0.3621909442965237,0.2871150897919589,-0.2756712196319462,0.18865596916593608,0.32248867891296884,-0.22295807821496294,-0.11294576894990799,-0.23564205626279588,-0.4231039014787148,-0.26778707180607997,-0.04058699380068622,-0.2474058491777323,-0.03125119248262847,-0.14471013998794183,-0.04040889440113457,-0.009655506608577665,0.011426940046031281,0.019479368331530515,-0.12186892759132673,-0.008820287438889404,0.04830712836541074,-0.041819330785605874,0.03494359263108067,0.24630395842703579,-0.10255037740380107,0.013794075310839843,0.2657737657342205,0.1907048363009356,0.0947495244879632,-0.4879013901554352,0.3854566161795138,0.2987100736292633
64.38285064697266,1.0990982055664062,-0.40011049015786293,-0.3241343979331121,-0.652843137232144,-0.16990118435074086,0.7326275110395821,-0.3108940596231655,-0.5237007279757573,0.3617785254605485,0.2071668719636834,-0.28617513595056593,-0.03506903604307227,0.04595663060474355,-0.017918246318251427,-0.11334431487234331,-0.03517413208953719,0.04553960390934051,0.08599087634293395,-0.02991580427485587,0.014170746954442875,-0.04899901834504122,-0.02931031993713342,0.10644022896685387,0.012318490264205109,-0.022959416468997754,0.02794431896362914,-0.02420548795224088,-0.0039046064676982193,-0.10935675255740464,-0.0035296211838715674,-0.01483004317221473,-0.13685271987540817,0.10601441617135107,0.16344238978399903,-0.20622564200477828,0.01008907042177927,0.03500293379520166,0.04996104867770254,0.22680143000941025,-0.05271896123418715,0.268802235817089,0.18396022829330033,0.3513568974157446,-0.17085751818685452,0.1287662131235044,0.044756455011138535,0.3872722621113731,-0.01119664600011712,0.07998052493661185,0.3516686609810887,-0.04368165177639218,0.19155239770422092,0.22113837469804098,0.2370205905332355,0.0241654502673483,0.05028314410855023,0.042459639675461104,-0.012930543569945677,0.004453869484775655,-0.015066196798945709,0.018325425598027096,-0.024474502113500076,0.02789926590196928,-0.263048636098209,0.18007946576246223,0.21046253405017312,0.06788020563040742,-0.29658723309480856,-0.08860771821460706,0.21325213946782023,-0.08105436327699904,-0.14837124720144423,0.09136102908757424,0.1638362757214824,0.2334779748463347,-0.14337249722091197,-0.11950485409605913,-0.4390641687878501,-0.14903030364646255,0.5177856882593908,0.5060337996554711,-0.2769744075857132,0.21322835930202855,-0.10807578732520631,0.011315142587032099,-0.02834562820907552,0.16277472874982096,0.2861287737273952,-0.10863089002994868,-0.08188006221270228,0.04947017317517637,-0.20385611477444998,-0.007304103639383105,-0.0697425901982954,0.3155048404567998,0.2588653370862293,-0.3944574618929439,-0.09556644714403038,0.019480834171705097,0.9027759633004571,0.47705098956025427
65.48194885253906,1.1287002563476562,0.9062646524911478,-0.9018579575635599,0.14770869773722595,1.1437045398357535,0.0598399826571772,0.25613566776919494,-0.023222680951198754,-0.7764851748987909,0.36177545557508006,-0.209105897110534,0.1721431752670296,-0.13727734039835982,-0.0678151774732903,0.10895350653811788,-0.09612431784555814,0.09142312877197169,0.04463559325004476,0.08163552902642744,-0.11777090230992981,-0.0031094143966844236,0.008309130688292629,-0.05548608294099714,0.03143099350251735,-0.13340136626396754,0.0030809707836381367,0.041997177979523834,0.01099015165732509,0.08387811396535916,-0.061271150176545774,0.05959245201148224,0.151115496329704,0.07462532390045457,0.10728386266126223,0.1337329952718026,0.06629359911370768,0.22997713005406248,-0.110908076966605,0.1992047038013524,-0.08787325580108718,0.006119759605592318,-0.25990549103278554,-0.04668853539092229,0.010766536049648875,-0.0948253051487182,-0.19824232781285359,-0.1690021107310558,0.22205070220653128,-0.1323321689585839,-0.1860990547643424,-0.22781767993508775,0.041529825579169975,0.05887267069151004,-0.1053806969412188,-0.014277843212252367,-0.053282270029045675,-0.034033460110178236,0.04006777601852304,-0.017256347828531547,0.17849043994274177,-0.12873610523206144,-0.34891213603621996,0.36870374384239685,-0.48866135526377696,-0.01465850217339,0.10906272447347555,-0.1716874760293926,-0.08864978209265341,0.12265736333002364,-0.03989948167474694,-0.13280823661417646,-0.00542001252396464,0.1399163773033135,0.051099779320003355,0.0118557019617038,0.0038335543402283484,-0.01665873224028086,0.25015285788674413,-0.08688742755296726,-0.20207977232845944,0.22120617798310827,0.08911468184883774,-0.24168873962003495,-0.08724582182878537,0.2878956509571388,-0.023804948938849282,0.1421967908144849,-0.08927896366124405,0.2182739847356046,-0.020296259608622566,0.06170016123647517,0.2121274699841797,0.06055668750910237,-0.2547572790312793,0.10749742366452705,-0.01666478439891402,-0.2348632419914182,-0.09265621856089773,-0.5566925552054844,-0.28427154515452174,-0.029930074621639324
66.61064910888672,1.139801025390625,0.07105868619402955,-0.5354461903037271,-0.9866874277847879,0.6053656322610917,1.2284974185652842,0.5342267472346256,-1.104624738798476,0.42133924625011887,0.3498793631520307,-0.5530472629553909,-0.15596734863300837,0.08825352937313911,-0.014916310600255944,-0.007461469756233196,-0.001424947899585634,-0.11786223663278489,-0.012809136311706774,-0.07648580435192259,0.0066240970757640225,0.11719449703540427,0.1398027623240953,0.044119865869948045,0.08329009600555534,-0.049653089219248076,-0.03792734399124931,0.11301029132346743,-0.07015881438293585,-0.1793968868579215,-0.02414388954816787,0.07629285516792643,0.1422042869952666,0.013918935827196628,-0.03152447189763076,0.10724478100218236,-0.2001855698471802,0.07767486375750927,-0.0989337922438902,0.14700287144675403,0.05722279577460866,-0.5580988869747449,-0.053868236425440405,0.07451790114554095,-0.1360911939804739,0.1404434892158783,-0.27402328841386603,-0.00742251485715336,0.14351352464589395,-0.06467582357074558,0.2213407854549935,-0.07838170385435927,0.07617881139240547,-0.050486776914370146,0.01521787842992667,-0.05193097690583849,-0.10616986102784395,0.02408699303342512,0.0548086940400232,-0.03287498043691121,-0.01742743649143763,0.0363587203020638,0.04062680292962848,-0.15035535321287424,-0.045233920079109764,-0.07910359109161914,0.2610944984728174,0.44324789898120637,0.1432571300285872,-0.13420750413034555,-0.024480846396822794,-0.2514177263516532,0.006532255588010072,-0.02222283216104781,0.14121713382300635,0.18810962817127277,-0.3963515451159349,0.35485589618326185,0.2912625341042406,0.37504267492655946,0.3398922347657154,-0.3972059650214669,0.36344849850557315,0.23780997248065044,0.2170274805618332,-0.03608041711408132,-0.11050581776983195,0.37479367545290243,0.15839281647338693,0.1532566964257959,-0.006127515822796317,-0.102265612573091,-0.028121205827145286,0.04852103196655211,0.18281588392210874,-0.060147963094600035,0.09665068479899269,0.2460198088627448,-0.053911984623977796,0.4252883551458523,0.6979738704966401,0.5278087815059125
67.75045013427734,1.1688003540039062,0.5607355215767471,0.048448047103038294,-0.9240605451181597,-0.07570354690271963,0.8456514306060949,0.28342529232623326,0.642385827743972,0.025250607232860683,0.20083233651929316,-0.29598090726831716,-0.09369679378232064,-0.054165094779401984,0.333404848983365,0.013072193981638374,0.0959877133386715,0.21552515904696842,0.26952735180443016,0.1033660401682712,-0.11512322936922297,0.002290939656739565,0.0036808939724388007,0.005778342542877551,-0.1309374233701207,-0.07036683451890077,-0.012644300158426703,0.014567342242074994,-0.011576749066511405,-0.08317737859417268,-0.00030226601483455094,0.3477071090335904,-0.12225691208726838,0.07338821579558431,-0.00795233960009989,-0.11872187856466382,0.07462230905073884,0.07046452919011338,0.07336945012450902,-0.1466870247931516,-0.20876430339542634,0.057652660315137556,0.022411357165013808,0.3722662152292712,-0.18533653794998178,-0.4814924365100168,-0.2522742857432238,0.21693141417117076,-0.23423579927693874,-0.5987940590111656,-0.6038963276286927,-0.31996997464713306,0.049794911487621135,0.17734277201679738,0.14192399219463725,-0.006486108739570181,0.010082608848990177,-0.04233857691294238,0.05613110623459795,-0.01972508091433911,-0.06303710995693824,0.20709673195648123,0.017131639031954332,-0.35038519637310145,-0.0030275295405366356,-0.11007092359146864,0.37653322144401924,0.19294922113578025,-0.18149275550945765,0.22887617251012785,-0.3379998220220151,0.07337389192271403,0.13594385635150577,0.24069958041943007,0.10638781740699071,0.15924557373798534,0.3930883456515856,-0.26337339300684826,-0.5508483427422511,-0.35862609474639584,0.40520495734830175,0.07530619040812256,-0.0671852291662303,0.11131582043131771,0.18682138762684333,-0.19585554017041926,-0.13702621065522308,0.20988782065010878,0.062333854097646815,-0.049086039027327055,-0.11430587835055936,-0.022411486944082282,-0.008450455399032481,-0.0857914058039807,0.03016977606869152,0.1673542927767421,0.1858738030282439,-0.057489355950781834,0.5505259969343682,0.24735184872706728,-0.40538295960467957,0.2032725715715432
68.91925048828125,1.3490982055664062,0.22070649687418795,0.21484011020384883,-1.6526303146689625,-0.013757015204911877,1.4794798374923437,-0.14385755497277258,0.55295982087962,-0.09371841038830314,-0.4111356338977006,0.04366115513275941,-0.07374238947297353,0.003638054185337476,0.0061441329622152485,-0.004444710314902275,-0.04240968078755447,-0.13988085764762903,-0.04984811659555984,0.005058022143545553,-0.024060206544395155,0.08466196311425803,-0.05985308011121815,-0.030447039772155498,0.050376783935994277,0.02346579806653916,-0.009827712587218249,0.027869687763459904,0.08003180187014088,0.0037912580600818037,0.006537647345100617,-0.06558563176888581,0.0024864203748601885,-0.02046169502954591,-0.05949372331441952,-0.05736049981980515,-0.042494325161938545,-0.17678115303098993,0.025357872541191522,0.4517519535194086,0.21734387854443596,0.011416244301813105,-0.046302831220286104,0.07769229066175062,0.04563863332008611,-0.13429398368284556,0.31618130693100804,-0.17171179023928423,0.17787600057296837,0.07100145545777808,-0.12349848055576342,0.1320685452900813,-0.041136197057801485,-0.00836679347796205,-0.6012720221039098,-0.06348482532502882,0.01801597171661912,-0.08557755817878492,-0.0023923468490852917,0.0376047296386237,-0.08476568098596891,0.021984678600499092,0.10781176737866163,-0.5486477868864054,0.6871785834756281,0.44485841481637695,0.07703666258077702,0.19022913861840204,0.0929459150086063,0.3509312064839975,0.20436409265472127,-0.017531031567407006,0.021116102632965317,-0.04460135278541749,0.10900337332098739,-0.3406575152889077,0.8171955886773308,0.5944151244935492,0.10328895068198479,-0.09320824077396361,-0.3623065478672294,-0.013948845481883188,0.6619547707952167,0.416188405096006,-0.04247162083937712,-0.36230722606867943,0.16031277741743527,-0.04848459704381448,-0.4346537936310069,-0.42499002984906875,-0.9661447040895099,-0.3215787591502584,0.09490870477316116,0.5864828410752086,0.29797514297220457,0.8773498126599153,0.8713633931378997,-0.7046786621342411,0.4164006949182303,2.0377805580190276,0.7744309522285586,0.0054492827911572506
72.5571517944336,1.1189956665039062,0.16325177456302686,-0.6014710501227002,0.6113954539233649,0.48077291941197636,0.4179975266649146,1.8773050333638541,-1.402698837703038,-0.3920060484486838,-0.28322813246424317,-0.3012428663453911,-0.18668104954397508,0.19155561855958983,-0.19373504829818314,-0.02099467476458814,-0.05475254784735904,0.043778928897882596,0.23336118109706044,-0.003601330911175725,-0.11695126539758466,-0.11387350106406419,-0.06767063306209142,0.046082205191742553,-0.07475191077906156,-0.04356032443756266,0.14469178356070236,0.15530891426019683,-0.014380276276218951,0.029819978660580733,0.010414163030888688,0.04477221805590302,-0.03646131916415645,0.04207768064155335,0.04863551767104405,-0.02799157856276561,0.025511389831005496,0.06483953235339092,0.025376581838871433,-0.11122615887219811,0.015465686871029736,0.2015222618005953,-0.027322119305785653,0.167307705825935,-0.004691720584922961,0.12572173395764188,0.3368463782465839,-0.060717069058017326,-0.40398472667916924,-0.219166083452984,-0.19129875486412923,-0.24878853105222004,0.2872965976923044,0.14569830552464583,-0.1475840805777512,-0.08127709578254884,-0.05933840742454497,0.033130547100452,0.14493561275141112,-0.01066290683054831,0.006010913293734512,-0.038699206090115436,-0.12197724647188615,-0.07209977472636689,-0.11410880406060331,-0.008658302011050337,0.5934674531864075,0.3070195196008122,-0.11692430771499968,0.11845676639179825,0.062116676000818064,-0.11432771556222696,-0.09004054430623884,-0.19319109217847347,-0.02564747431079302,0.174901049661832,0.08908900247714498,0.031846116891903975,-0.12470954628069833,0.6258984884299241,-0.0370427340017533,-0.1701580402174973,-0.19218585329285276,-0.6186324936779856,-0.5472281665743782,-0.3133006319436869,-0.010892406432240695,-0.12297141082424086,0.04697329720873822,-0.0900977134272864,0.09445088063676248,-0.027765257174207403,-0.02650915241491867,0.043695216571132664,0.20117298903478775,-0.09884359368529154,0.0007660955868986144,-0.4811970088398044,-0.27157624657097673,0.4945123289941584,-0.3836368696829083,-0.6005280876987117
73.6761474609375,1.129302978515625,-0.7682828680255698,-0.5040200859703268,1.2381155675123805,-0.9520605733553749,-1.1080047495849767,-0.38207615137755496,-0.05002172420430182,-0.10949356586578701,0.060155709797509525,-0.05196107516239956,-0.09560086323840258,-0.13573160723385408,-0.00013798484860630031,-0.003079299230270942,-0.08405983328595278,-0.03323805683292794,0.059501940722535146,0.15005568073364,-0.05342671578747877,0.010388749296223201,0.02027710776450986,-0.002098160433657917,0.021795323767961526,0.07423740047776704,0.0011643866618508145,0.06534278468256852,0.054336292910851854,0.08675106496580065,0.1182102208860031,-0.12119909626573805,0.026576473159651108,-0.007456431616736786,-0.032940592486271486,-0.014266714508061908,0.0021335280350782545,0.0676167957911224,0.012426107489646962,0.07608771194782056,0.37851911933839705,-0.10736110649701147,-0.10853989678450637,0.03314175342558753,-0.570400315745372,-0.38743970759468366,0.0033770406862919794,0.17819920213922327,-0.03530180704009559,-0.007142037468420917,0.2512787726251443,-0.3059596104033777,0.22428928666643666,0.2532864399459718,0.023416377076173545,0.2666518467672723,-0.038620364621151586,0.039463689816792505,-0.023057312720154034,-0.06989105552207202,0.04779168750432666,-0.10850172962746246,0.4179803179818959,-0.18585164934283405,-0.16495362690825727,0.5322383475753123,-0.32740875692305366,-0.02596413924227295,-0.14891971428028944,-0.21526834903236888,0.0852322350204991,-0.026822388362441996,-0.12678156099992444,-0.31492499115212386,0.08835198614461938,-0.11476272535738498,0.21859657583145048,0.06189734576946787,0.4928760196592051,-0.3034273248387573,-0.04086085355578511,0.20168550867856092,0.2874931200640914,0.04519806609354513,-0.14946802759864042,0.5031171433857625,-0.07160302794120199,0.3115723138863901,0.471482117219331,-0.08311204324218967,0.011054332104128416,0.051918534560328806,0.0012254450152311518,0.12605851305655294,-0.13475222975597503,0.11396806226058283,-0.0035901202251502045,0.4460193364224027,0.8073104240388792,-0.3119750700415494,-0.01037177094233721,1.037936267500616
74.80545043945312,1.1291961669921875,0.7530817125707918,0.768216461841521,-0.13239076405604047,0.3395792677431064,0.4681512779686803,0.22031557868508803,0.360784777374351,-0.11108814548868622,-0.01923141679385013,-0.07836467049175924,-0.027032500626416055,-0.04540003369820927,-0.03562326427769406,-0.002203213691606804,0.025100484405188098,0.128646655413403,-0.01632200824001514,0.022667818275917916,0.020785637678828458,-0.04202638269675567,0.0017790435775950283,0.10002306557965354,0.007362567326797423,-0.08763950656434802,0.10135721640497423,0.0959070645712603,-0.022132783258492182,0.009244963134868835,0.06930431167506114,-0.006481540193605334,0.02826605534345432,0.06748261712891342,-0.0031723357157043205,0.03741774420915368,-0.11866853135495205,0.10505100824503855,0.07654897057859515,-0.11139303369053824,-0.16770674639108799,-0.4445254677626065,0.09114272322330928,0.12303483958158098,0.08072251889161011,0.2713044904160906,-0.12374188782909845,0.11796911601478069,-0.23539046442093778,-0.036876162775338825,-0.3294652289841995,0.5294246091143057,0.02949840763198693,0.17007786584054344,0.1412672852086323,0.04136361867967255,0.07639196740952882,0.06405266779867456,-0.0869369774778073,-0.011849168587016751,0.041249234558822116,-0.05072077017622421,0.0850559225431743,-0.013437566043695143,-0.2869157702940833,-0.23137981522639764,-0.04952450922646013,-0.38823683261043607,-0.11903337759512919,-0.004343517393283661,0.1181467343218401,-0.1819486543370541,0.30968196641082385,0.3656863017579826,-0.15674949442717498,-0.1970874260835554,0.006790772064148867,0.08539338513145812,0.055932919914344514,-0.2924419108557158,0.5436091258214325,-0.16401584790498466,0.09987944309190368,0.31282204623280513,-0.013443572769736897,-0.010018859787285783,-0.14821490004043517,-0.08136460139883818,0.0040098999154250595,-0.09409284408125994,-0.13054410647022693,-0.026921857198480566,0.002115848510439387,-0.03133211212288571,-0.23556272979318157,0.07258232197098707,-0.342693779623046,-0.07040076057976309,0.28377964557817287,-0.11324467720124337,-1.221164191240039,0.821016211745474
75.93464660644531,1.1191024780273438,0.6447155532989017,0.2138543546311259,0.08625874351936952,-0.3646972276559231,-1.0013206120381468,0.05200470560515208,-0.7521740640822833,-0.154320045091409,0.16864529881332024,-0.029228517913589717,0.025842077437328536,-0.061957303171275534,0.04127199426356648,0.042286062214188076,0.040298613556139506,0.04713468303426736,-0.08205363258840409,0.03248345006266232,0.01980125045006898,-0.0424949099767765,-0.004079119979854027,0.032975432012587416,-0.09913025580069448,0.0009128507547259321,-0.1572223126198746,0.16367714380647433,0.07345085376400896,-0.042108547582281934,-0.0053243768771043575,0.05526669079515277,0.013162841544607033,0.07210714967778249,0.019918326296317235,-0.03540997144609035,-0.0015269527718964893,-0.0006608172649390819,-0.10278987203728282,0.02943244118409185,-0.31003124403423493,-0.2870639655259384,-0.20121936001369697,-0.09092244604705259,-0.07216880523620425,-0.2517394274885493,-0.29803549262138035,-0.014573033588506118,-0.11431472010976831,-0.46022291162295703,-0.2160009774391488,-0.4468147503649069,-0.5088181273183622,-0.24297975089405882,0.13174277972668497,-0.12196474594659738,0.17336743575762684,0.08125683745617053,0.02020097036884495,0.014145303087640629,-0.01475995308272049,-0.05109623306075316,-0.012843680215780567,-0.10803987199348065,0.04698169307131102,-0.09451984420424578,0.10458483334101187,0.5477752913779588,-0.007885537172315844,0.2760953783908086,-0.18635929300483736,0.13158529156276816,0.13045716251159092,-0.2212239724670268,0.16746760966413482,-0.1152419791088744,-0.351602355825131,0.20887150309084096,0.21087002420923107,0.7550070736553953,-0.35582638561500124,-0.1741515965496361,0.21875694655965855,-0.46967415963113,-0.23817178421454632,0.5946981087627107,0.06531936957297552,-0.0019409898163993689,0.05924050236389837,-0.20387400896440402,-0.06370085538079642,-0.04381677400266295,0.0009346111950322327,-0.12539313186851803,0.062316866698607545,-0.0783443009092226,-0.21280245964344052,-0.568746417684932,0.42156951229653333,-0.44145240660679785,-0.6928021848436198,-0.6754933728356605
77.05374908447266,2.1787033081054688,-0.20351019565111395,-0.7258445554512499,-0.9602736758702796,0.42112781073752265,-0.890503696242399,-0.7620089157626474,0.6467908274055518,0.36397861725950104,0.44962371109903226,0.24548026069389195,-0.019849723885129174,-0.0012736716226373719,0.0512669445819319,-0.023739681109458264,0.003520700035178302,-0.035566962548198376,-0.010018157434105062,-0.006362167078504352,0.012455157026519937,0.024458395123031038,-0.09962302994911681,-0.07216959428511364,0.01746663173682739,0.024091962143260398,-0.04218379174184446,0.003121016661209952,0.013985076874571099,0.028975870186352597,0.00892340152710146,0.06012831874021612,-0.04772186966315128,0.024793604451337478,-0.06308523810398507,0.12206950256654057,0.05471565856791574,0.13803001837057965,0.24821535646879106,0.0100899792041116,-0.2623150482628508,0.17181413319688277,0.19808940666853492,0.12488422048420778,-0.08852638204775203,-0.10483882451295887,-0.047910618462242045,-0.044516755549737184,0.1757694623044463,-0.02826910548983446,0.2119781326471324,-0.011363363760976453,-0.2335241640980275,0.25553610558360595,0.34643225329615723,-0.2724844566484112,0.05162048551722394,-0.04434711517671507,-0.09039448177077772,-0.11397622793969397,0.04470474598109664,-0.02368290158468773,0.0022264226008103932,0.30767734255135337,0.21393762932100677,0.2925521258899317,-0.16715228345903899,-0.0899391775576383,0.11989798289161459,0.07538143054714302,-0.2512813027044964,-0.10722582846721547,-0.22158385364113406,0.13813084707566492,-0.05837351078706203,0.1347010802931644,0.011276101345589708,-0.016701216741187068,0.07743497785786219,-0.2786472416932323,0.48230696547074403,-0.19752027892926538,-0.16876544348820857,-0.12886182471569455,-0.00013791040117303727,0.21588162902218042,-0.20491574648144514,0.24505340087719632,0.003410707227798848,-0.09316541699694784,0.022693043556089764,-0.047004955962934816,0.07409143932480444,0.11233297818623529,-0.010781175143650954,0.014716570120143338,-0.29717436845596684,0.15829565442965285,0.013146562991062719,-0.07054647159902427,0.31312595243632385,-0.13437665261926462
81.51074981689453,1.1290969848632812,-0.6934221814963334,0.8838266489536288,-0.2552818696358046,-0.7227907171892989,-1.8683809242274176,0.6497216468914448,1.3918608794557814,0.7985123661048766,-0.2389169677362114,0.07348925381467848,-0.024309242452172475,-0.05881629339613917,-0.0003385887590214849,-0.0902745150760258,0.011835610677993977,-0.013567957806364717,-0.12268015321580228,0.06291138343616363,-0.024557979943630886,-0.028034163500923026,-0.029176091041384744,-0.07111051579263157,0.033938561880799134,0.005842781905115273,0.023744452102743778,0.030130388576862552,-0.06433089797688711,-0.11655988368597221,0.05915792552535203,0.03154654823630178,-0.06567003366553478,0.06650175980604314,0.1007108235517855,-0.03198293630196393,0.006099368931625144,-0.0011301223663472615,0.05520554929203246,-0.05487203422322188,0.04388037522537079,0.051653733381183384,-0.13676723814912578,0.42811863417762824,0.37014823442696687,-0.2951118623013226,-0.37429481408986964,-0.16758453502877071,-0.3618516724449278,0.18058080012830705,-0.2412293136173632,-0.34100266736383866,0.16420687496880682,0.1107514004291105,-0.07052172074950411,-0.17474548218348912,-0.3133284068580094,-0.023725246884825996,-0.0007240005807026967,0.11206164243616062,-0.04981247474022762,-0.020142493482207702,-0.07412699159752663,0.4873673454924312,0.006103443867595787,-0.9414797250218799,0.31293141087881543,0.04509478400945482,0.060350972156044444,-0.09481973575976796,0.03741458216311307,-0.07077834876991043,-0.3954345281394345,-0.1256517148675307,0.11887851761444487,-0.17830189669758872,0.34599809159406103,0.6978283826304879,-0.5936069914613494,-0.13536512209688728,0.6692572805666127,0.20244953483598,-0.4257670836930882,-0.1456351300617732,0.6939680998688048,0.2331011066362949,-0.12088456163716114,0.7005922471273203,0.22614858874245897,-0.4445608724108038,-0.024244011336894185,-0.11201061193935175,-0.05326193238461236,-0.30421146391870757,-0.013714778054538926,0.1621640714061076,-0.21859757925561993,0.5577296134191774,-0.0036940329266385167,-0.1999067513477315,-0.3987812637092993,0.6658098947141702
82.63984680175781,1.1287002563476562,0.6535267466866266,0.4688599910587953,-0.043047122628641354,0.5065160961317782,-0.29130014746781463,-0.31393609117537224,-0.4190966569876825,0.1655806311851451,-0.1306484591295526,-0.20404556664898416,0.005215862799612753,-0.015202325081465549,0.1579396897896934,0.06195815427630249,-0.056972731498737626,-0.0007897513283009097,-0.030983723164405636,-0.07535172844139619,0.06031702421948812,-0.018501669102563678,-0.03453723748960857,-0.018300356150834737,-0.00540949278142893,0.08995953935898195,0.04925379404480479,0.0015804159332658881,0.05934029643050222,-0.0009869689192170252,0.028895973839374103,-0.08394702845832959,-0.0453624358811365,-0.03687075546600527,-0.03285371651348318,-0.00045964656623249467,-0.11451028717428159,-0.13259043507157636,-0.12246257710119608,-0.13776634417724415,0.09988122180414843,0.26051910562197766,-0.1972902394233415,0.3429121387977367,0.0005937286962454311,0.2468729079579674,0.043996874179120155,0.23701189482023333,0.03283823757238047,-0.21885046515240095,-0.2518370217312613,-0.11932533337297602,-0.05450738396962218,0.17155164050811583,-0.010177054732505105,-0.01719265338030154,-0.062322313379675594,-0.052235339141323105,-0.10240400241695208,-0.11693237558227466,-0.03805029874030189,0.02142372611537785,-0.08579664463831209,0.4184884684806109,0.21839277854274622,-1.1598222923661459,0.6206734960058998,0.23300196453474437,-0.1269265788352032,-0.4294683999696521,0.4596954580011746,-0.018663322481356742,-0.20044537970405268,0.24442353482902401,0.17834214838683646,0.30410763771460636,-0.1560439098785933,-0.4561433689735925,-0.07299854435896397,0.0854399542189126,0.2678157896393214,-0.10359492209533935,-0.3809728219689241,0.22254725893586053,-0.1952117001130335,-0.23422978958482785,0.1916394999966918,-0.18192542287630306,0.060514536007091065,0.19245565260557868,0.15752090090540788,-0.13003412418111165,-0.2300295830673808,-0.08832902896425272,0.15341700429216926,0.08957905892549661,-0.1312010648552495,0.07261808201952223,0.10378218240803226,-0.21350543511313783,-1.0169751638066007,0.1184004220916145
83.76854705810547,1.1498031616210938,-0.032140376710429186,0.3700457780617081,-0.13860544862241547,-0.5068643353229978,0.796315711395873,0.22826771170336116,-1.5674301489574385,-0.36871183548450814,0.588975455488788,0.9046183693147046,0.4472960418933997,0.5906674691408319,0.03976450751723097,-0.19998996513084105,0.014431988477861313,0.036911938401966424,0.015284931605197288,-0.08497377999331056,-0.06593619787062016,-0.004887526552871478,0.013839386313788412,0.012707881726739634,-0.07728446699842775,0.026251132850418978,-0.04964538203327506,0.05860698711475418,-0.01928513766708634,0.06533153685583772,-0.012773980843442083,0.1078728798789897,0.03572683709887884,-0.07861172123702294,-0.05324456390247228,0.0864377388815123,0.011443805365699234,-0.01102880845592073,-0.14618030354888328,-0.09673656174550152,0.1948954889975756,-0.1658889065134631,-0.17978863167425307,-0.29333297745043574,-0.3622539925234869,0.33847938383756476,0.40221689660790305,0.04410356249466858,-0.0417995374652439,-0.2039637097671864,0.1572404346084905,-0.23209514142937754,0.0976913629331292,0.15186804169013,0.03088107278272349,-0.2595600698200576,0.38951275423385107,0.11299755018985398,-0.0587139718790185,0.01270745597275153,0.044483666336843725,-0.007870848970585306,-0.02271119551617339,-0.11798305045686121,0.5173925077806502,0.0388938923531455,-0.42695931719715996,-0.14519007822699698,-0.6361917377449894,0.4707546466872142,-0.0995511040030002,-0.11924453219905755,0.6551810592052845,-0.15036687370075846,-0.3580856530673047,0.16469452728961348,0.11873797347828297,0.6849474796713289,0.18552444847030178,-0.7590120016417656,0.2003180340413217,0.3072170186925648,-0.4758048652452623,-0.24289669094191416,0.1395983143350024,0.42018113265968327,-0.05912785524428532,-0.6901112816450083,-0.4051891507582341,0.42197553745120303,-0.11167435182843291,-0.012596739466758503,-0.08209441934220656,-0.04401443872516213,0.03886603419160972,0.061782269681174354,-0.21391013364796335,0.15074337987848524,0.36033544765875797,-0.5568840678217604,-0.29411531470143437,-0.2189070689165475
84.91835021972656,1.1591033935546875,-0.2828693776649788,-0.8063830766924851,-0.5961590559030796,0.47203736068735247,0.1203948593203224,0.19234124422034724,-0.38727592921616866,0.1600507004387247,0.011458311236492547,0.2584990997081999,0.12457797546340334,-0.14386097608683326,0.006234491202110963,-0.07974024115185496,0.04324957368874124,0.20629317411204195,0.0040267268019113095,0.007855576730804094,-0.0591335781809588,0.02810020889044059,-0.02554706871955495,-0.0904340774483196,-0.08657896032741304,-0.05354990126015516,-0.05407915157594671,0.07128335584944151,0.019945560301669586,-0.059358066698066626,-0.028593142069743074,-0.03126974482134065,-0.04148842080039764,-0.011621583009145842,0.007008650379633028,0.04440157259526617,0.006227490156925243,-0.04196927749189807,0.12062305256145253,-0.03356550835438614,0.08357793794874768,0.15579424491548993,-0.29439794801303076,-0.5215517799789849,-0.09676564615465479,-0.021529402522582928,-0.030119196346775956,0.17925989235567685,0.2907755237324082,0.4067274533158477,0.07777965615574368,-0.49648827629374637,-0.14914164143859326,0.09318785339905394,-0.07270320359672267,-0.0699021359000011,-0.0637636448819101,0.031074323908958694,-0.025831652142422407,0.023341383705447527,0.04346162772294602,0.03601176070567974,-0.08718065383009965,-0.5847378227639305,0.3537945810770646,0.3186207527601572,0.3915224570630621,0.25319003817150837,0.004985910540259909,-0.11907891806768099,-0.11846304004980887,-0.37549016250148404,0.002774579868518943,0.43502966423812756,-0.8469189595891361,0.3180457474662314,0.04644714112991079,-1.2278913614977935,-0.21901254137572262,0.2704267522411496,-0.9704321285979058,-0.5362584527684032,0.3466233420099912,-0.4884660109222067,0.3289826217578182,1.0270822168660196,0.2866850158538727,0.12878503841946567,0.28555888582801037,0.21778896905558265,0.39433533956461203,0.2433350510553608,-0.11051945014091503,0.13522075460750402,0.5293312379065258,-0.8230082985952065,-0.25034873730181084,0.3805587135672579,0.16921218125778553,0.5053648154176266,-0.28215651705429645,0.5296094042621706
86.07745361328125,1.3787994384765625,0.1375078260337539,2.0410397831249583,0.33275206567910454,-0.9813369448110285,0.6360732047855577,0.8167622081612733,0.27840274526743586,-0.3392402249195526,-0.07449777005939529,-0.1594554823200065,-0.0206498858294556,0.17006975197133642,-0.015261282551333372,-0.07371780264230107,-0.07844967152718307,0.08998041019226297,-0.02064074056830889,-0.03293587946805236,0.04587766214453231,0.03473578411551257,0.001773200831957894,-0.07906643319890942,-0.10555780051834487,0.024057670384409324,0.11627066633471835,-0.00045166276617868693,0.0062357993465954695,-0.05966980235644642,-0.046845067801663004,0.010633589643722342,0.03263741126183424,0.1066128300433351,0.06299368216321449,-0.008340453004489441,0.04807789640491087,0.03341046892442193,-0.05898077464757188,0.025292491514837537,-0.08499698679963946,-0.026064849757126515,0.20807131069545873,0.13160419394279907,0.08170577126653772,-0.10047699190156384,-0.08253342604538227,0.23027816548693564,-0.1717836080229722,-0.17100475264744164,-0.30969106962771975,0.14803704136463153,0.1569585286304333,-0.09156448869514193,-0.03823325096623804,-0.0983432257442915,0.007466271067411218,-0.025672389691633865,-0.012000755333343825,0.030745207968262512,-0.09856368880536898,-0.05276393985814568,-0.2035772375062867,-0.33017725561292677,1.1321435622644398,0.07486669244167152,-0.21632011393374145,0.27590650895650765,-0.07098886242335138,-0.2750099397027934,0.20543609565618864,0.3857659407877609,-0.9953564630240289,-0.6090929114574762,-0.1892839147098463,-0.4325162717766841,0.09977490690682572,0.22611254109003986,0.03998965835949143,0.36565801165812517,0.407951575155333,-0.04747170943565018,-0.6328864486835332,-0.031638043629456505,0.2782430927115702,-0.25859899839445555,-0.7062774580837193,-0.24441686513450667,0.35978770806800103,-0.07342249659054198,-0.19683493960622156,0.18979595905855096,-0.46293097010473716,-0.49769104310333057,-1.1603024351629923,-1.0151835796166861,1.5308959197449628,1.7357416489887862,0.15517137627095023,-1.4896706281894423,-0.11167353885474354,-2.0367288357070326
89.69474792480469,1.139404296875,0.5019468576812399,0.6632329013150304,0.4445003130873018,-0.3899337544363186,-0.4639918236209198,-0.049804809614034995,0.0472368363595614,0.006797726813430521,0.5614333230043344,0.9041774393891444,-0.563316227549256,-0.06689325478258881,-0.1549217746146513,0.006362397702879654,-0.09124576890842892,0.029030206926267347,-0.02337460972936249,-0.0465026515128105,0.07326946445476724,0.08180278784008702,0.13954765565230468,0.1277425276308649,0.012242031969968505,-0.04497133158419687,-0.028359714607568174,0.006581083000750665,0.04151663283414215,0.08056606649657645,-0.03884974420118213,-0.017117295892675907,-0.03258325712221759,0.021524220098610977,-0.04393472032174872,-0.025921431689489044,-0.06838849391419943,0.02222639019049797,-0.005628021035008826,-0.009057526819743042,0.13947073814466937,0.25069347071990067,0.6005478748960695,0.13512044959883113,-0.6760467178325933,-0.2615910838991852,0.3190615450352704,0.17428840296914888,0.04525696018019494,-0.3319355673441387,0.14195827364047536,0.08030933966927993,0.3207868458222187,0.0017448021428209184,0.07092734528341516,0.010161811097656534,-0.05216817900723038,0.0406772122000901,0.0030576959066950767,0.0885665637421955,-0.06676457968148264,-0.04587489785892656,0.2775314783197476,-0.24215904150829962,0.25413243080114273,-0.37094210492344193,-0.36896595153340134,0.08461440388445751,0.1840395689045191,0.06363433517634033,-0.15681557560018122,-0.039899502433417625,-0.11520039862412407,-0.20101979230706965,-0.04411697238487505,0.23189439322937722,0.20549386683846277,-0.9457633437261801,-0.26639315152249987,0.22396011616683198,0.2750454114712391,0.04992507721973105,0.05231293017136937,0.19505819286268206,-0.15200059554532083,0.40366006543405725,0.3966245886728817,-0.08717241848697599,0.034094426071719613,-0.03244825226148789,0.0620464896161006,0.024786806786966306,0.0025487482066436106,0.0366813343322233,-0.08810289716955158,-0.3771478067873586,-0.5455562080717598,-0.48661665801051796,0.15633055857849346,0.5351068587983948,-1.3462055363864165,0.7084120990180053
90.83415222167969,1.109100341796875,0.4207842389070756,-0.3709240445060431,-0.21628376731709867,0.18761538462005845,0.4934881046113693,-0.14886265000128274,-0.4464805092203568,-0.37804171232973005,0.1305129631312258,-0.012476116095476619,0.0484467425194908,0.04342157313846764,0.014223687559715422,0.008178462273746682,-0.017274488175808178,0.10443945717310123,-0.044671539275960966,0.07916396999958322,0.0067177328099125725,0.041997167977366925,0.07998969706864238,0.07488410634791129,-0.05661491597074643,0.030113681626744375,0.09780419785509167,0.08588945880082342,0.03112175971979771,-0.08231319912793891,-0.04442718488212271,0.10897908931032976,0.10791492540646423,0.005887127562159505,-0.02440088508770885,0.014073272892773367,0.10319575502142982,-0.03487942988698429,0.058781359368603,-0.020672309242695003,-0.23266101947378498,-0.28492379766455844,0.42852693004149345,-0.23602516623229608,-0.8171909938339671,0.1951820301409905,-0.0570445220909615,0.02006610489174679,-0.1920294420090744,-0.39400157339446573,-0.2905309370405146,-0.03908725104893046,-0.20269624525210417,-0.04792595959589966,-0.4998023712100052,-0.02013907890746383,0.021550429884796322,-0.006431377488893374,-0.038875009530316806,0.020187559787245325,0.016784799855306978,0.05389632974779951,-0.24310350954100485,-0.17919869616668677,1.0310895107074582,0.03813140460965903,-0.044476839013739514,0.17861493235510886,0.261560094003099,-0.06040075865105436,0.07873382398302606,0.06845270678758117,0.10283374762491165,-0.1895459547880876,0.39491090874751456,0.3853557421047502,-0.747687017973519,0.1938306959380924,-0.20623125827653832,-0.2612326519482833,0.5129128869857459,-0.05630729391292442,-0.21769636755015143,-0.31489346999364287,-0.21500335794403103,-0.12710396730835496,0.2760225568039257,0.13528778696814586,0.2528047797494262,0.29710710679061025,-0.07187777253090252,0.018817776135109463,0.0010177714723690633,-0.3811712463942308,-0.009270123571026375,0.3055346897795685,-0.0260701887504615,-0.5004392002162439,-0.584897629654359,-0.5636492192520015,-0.4720700321850681,-0.5091863280808092
91.94325256347656,1.118896484375,-0.557763819012681,-0.9854612554280997,-0.28352795643121564,-0.9916800128580013,-0.7749929622895451,0.2737473799769103,0.5768205642692674,-0.706229385769007,-0.38236604508376204,0.22026389008950062,-0.03107534144986497,-0.07173276595206206,0.014894730368233744,0.0006423769670748508,0.021515960662317132,-0.1105451891499702,0.027826298358153333,-0.041649182661533383,-0.12727016784414263,0.043201689277636686,0.014665747691596733,-0.0482165190087281,-0.05309980056745904,-0.0791475675642985,0.0975576998928,0.07083779237813286,-0.11586916103210768,-0.16140723705002374,-0.013094957657989128,0.048684016165115473,-0.05831606703186826,0.05703045804293438,-0.03580000770678212,0.0885003741786531,0.08951286885102565,-0.07037615127872761,-0.17255449674262618,0.37886079969988645,-0.13365450044588514,0.0897259150963866,-0.032016675134840106,0.08598757749152104,0.14595499841812093,0.11862010993273699,0.147284764179154,-0.5807413437125529,-0.0068817296496438835,-0.1751815874669712,0.29347310110020713,0.5095130543552979,-0.10825729869071363,0.13994350401928934,0.22498502029478756,0.08429942132187186,0.04264543876531996,0.05095160896690647,-0.08321315252080436,-0.031101321799503298,0.009114551270898285,-0.0022818560782146592,-0.06112919811183331,0.06012083872604265,0.6372502597219388,0.3464645815428655,-0.06491715580975296,-0.33224457338101776,-0.0006290505707222671,0.1314099028154761,0.09278635702890886,0.19187598312238466,-0.1553755671232367,0.02729310417712221,-0.01906659105790416,-0.8144954609952176,0.41493977022460216,-0.2556867165953402,-0.17816927486549974,0.5538979269924986,-0.12339000482799427,0.11449893928079924,0.2194704040221115,-0.2519306034024243,0.18269222219226605,-0.23416081136023215,0.14422282013855314,-0.1159299943068876,-0.24825981090297455,0.38590866786487754,0.04419610822140099,-0.040531198450498636,0.05052005663244209,-0.029374378193943604,0.018455890257086962,0.2479334695561699,0.15281319515773834,0.29935037743784054,0.2848769606618906,0.338875138272899,-0.12539240806935636,-1.2591466765128907
93.06214904785156,1.1696014404296875,-1.2943041824240766,0.3209301338282281,0.6298831853898349,-0.7348822595549899,-0.02628006223854129,-0.19898427352236014,-0.5379446114666371,0.28560247816265383,0.8543245434480442,0.17591921130991903,0.03976907930318613,0.0198614997263068,-0.028841760486712335,-0.011139617114395468,-0.04110220076552555,0.05775145483482512,0.0470449637328235,-0.14435050323175946,-0.04536203977109283,0.0031390864716338493,-0.5414474418860847,-0.023589121111387976,0.09816074107438212,-0.012211528463203114,-0.04784431800882935,0.0029314990854013884,-0.15782890515907078,0.1434932349001136,0.09282979789053007,0.03238845508676143,0.049503664457044565,0.04826035306104051,0.02006792721284202,0.036726240035304794,-0.029943985619511115,0.05513582594808631,0.03684800680602408,0.06424962859101095,0.35521029375323354,0.11413792091666355,0.05758847378534016,0.5496777434571953,-0.4658420215501617,0.07680228240410311,-0.13911018466667036,-0.0143118838142237,0.013040457302906466,-0.19594251054942974,-0.2660412463675522,-0.5877752372865358,-0.09559832039124139,0.1322797177865757,0.15434634577882733,0.038363797878012015,0.056728966822915415,0.05179600001093165,0.03856760575783934,-0.2547996158867425,-0.05542955505702982,0.3908155922047797,-0.08883351020244665,-0.19909682635760897,0.1665456733901108,-0.05826037942214353,-0.3153760175005227,-0.05926157048395455,-0.08045341187543571,0.20334135371934278,-0.27047064547278415,-0.08721764382604585,-0.12309345386129368,-0.08919028653252135,0.11537214900887763,0.09753530065504389,0.1394550891889874,0.3132532059449811,-0.0852014477862501,-0.10888352199406376,0.03631476369697774,-0.11791182071143066,0.18809577287335374,0.11976519196353441,0.5185754127754327,0.14865445694411444,-0.16357146839829356,0.003559087662480403,-0.2903470634193466,-0.12860912064726449,0.24454880186835057,0.06900531917059007,-0.06203907654417156,0.012026018850193852,0.19858987777289183,-0.7021198610785725,-0.3145624175449423,-0.07268264372740109,-0.3569746253957605,-0.10511483674607866,0.6516685445634581,1.3404660520829808
94.23175048828125,1.2490997314453125,1.3801517743867553,-0.32169219515150643,0.7330139175748097,-0.11985010329763715,0.13485603072608002,0.8215225058857544,-0.39538447488428885,0.45131126119224807,-0.07270798874300119,-0.5071516027904704,-0.4476089497280896,-0.04722333966122155,0.03364396029638089,-0.11650314534382533,-0.11680113349451657,0.06201057131516044,-0.012922167511380459,-0.06936060542225359,-0.02311618343279906,0.004250854670092727,-0.021011367447655867,0.03786956886376381,-0.09354221056072758,0.004808053431910063,-0.051346897383851176,-0.0363189104536986,0.05950138596967144,-0.011534345998777182,-0.019623902662171643,-0.003335183954051569,0.07024888148620351,0.11463676717736299,-0.018904130637577624,-0.0629843188627753,0.025375205066367326,-0.009679039022963933,-0.11522694588403787,-0.01669582921455659,0.06989996654310775,-0.11484339467129613,-0.11204453565141291,-0.15641236335658965,0.35622120994572715,0.07913223285014659,-0.21191572525477034,-0.2814560535500287,-0.2789584128998085,0.2696298268175381,0.27759108692286333,0.12608798158097817,0.3177852345705825,-0.2437746841240176,-0.07154335110041911,0.054079434597981514,-0.1395320659643331,0.04131707637981759,-0.07659038722974199,-0.04969694897929267,-0.06998147537090238,0.04520500897097908,-0.11111040428628569,-0.2722484552629685,0.7063628611232601,0.052915901310172056,0.10883078465183879,0.1220443420342958,-0.10221941877671381,-0.08917994613195669,0.12384761259728055,-0.16090062101082248,0.025186606084945384,-0.19011434255537218,-0.4461422786108954,-0.006514015734685851,0.1454934232720055,-0.31530988316373454,0.36273215015581883,0.3859121026161708,0.166411278007258,0.1968034755947903,-0.39615563272911125,0.11487800014063604,0.33222897671220397,0.1615960238082183,-0.6966775781258113,0.04782989615610079,0.22949448369308323,0.11630697530706142,-0.24367835568874757,-0.601524728227431,-0.7179693317734998,0.6585025870368544,0.2526998431001234,0.19126497860358216,-0.05986863957411995,-0.10392793047141771,0.4128146589274113,-0.23531505269256298,-0.3217060725248963,-0.1635831289550489
99.06835174560547,1.1391983032226562,-0.859044113200117,-0.7568628191819203,0.7254232025287003,0.0818240237891246,-1.558252703245872,0.7690577318817532,0.7437284637067617,-1.4363309090030447,-0.571736467250744,0.8831354734038259,-0.22110380953164818,-0.03689875596635371,-0.21636594306341445,-0.1571458579283918,0.07215106069325652,-0.0741909224215096,0.03201312530841965,8.64895152869066e-05,-0.009690045372427953,0.09539124243596156,-0.01343742597267388,0.015111552359299552,0.011468236780741933,-0.01850358092412801,0.08423630571662633,-0.021801578549326576,-0.025834884704446226,-0.0007117647051471933,0.03639261218865035,-0.03301929699220648,-0.03355857087584567,0.021072166954033966,0.024383699772644544,-0.022156403756745296,0.17052426882106625,0.1660319361962736,-0.054124177924299466,0.13643472543362375,0.19630260111892528,-0.20613974012158023,-0.0974716030774718,-0.3436525446618694,0.24884163594523084,0.6620590882565986,0.3793360639664837,0.10980059562031326,0.215174991583649,-0.17848785730967667,-0.06409753749065482,-0.02966192463322523,0.05431065896702811,0.15810764759738247,0.2547725734957163,0.01832274967968535,-0.08657752890218867,0.03172958917162681,-0.09331119965793538,0.02869210092303926,-0.0476421767859157,-0.038450119466561426,0.02778388205302589,-0.05701158307251964,0.630262567222854,-0.8698194969003513,-0.5692712568005556,0.3725370157453873,0.04717884242619816,-0.07748773802339012,0.0929875808043849,-0.13756725355548544,-0.02079998225689344,0.10807693846457915,0.1608708909675382,-0.271831749222434,-0.23306213317734886,0.6986914939291498,-0.18693239668680897,-0.2714522877067722,-0.08562802134136605,-0.563067863101014,-0.1770746831842334,0.19520401641682247,-0.14850770883662762,0.32137222637005064,-0.04948636547746488,-0.37577862641494164,-0.13551479183925966,-0.04336018954318751,0.07354750962518361,-0.1284521086086268,-0.047256885058925696,-0.039300862977734385,0.3482498001265755,0.04047575463053883,0.11997799331686804,0.6164022500625103,-0.5087748117142825,-0.5629486172237284,0.5278232021864045,1.587527649587159
100.20755004882812,1.1691970825195312,1.7243187969773524,1.1515814580962185,1.2742891588275975,0.4520990586912342,0.4713370196655492,0.052887176124765276,-0.9028203617627936,0.018819740965100543,0.6867983856317316,0.1022321276526697,-0.06887806464344881,-0.20792968784574214,0.13191323702385907,0.005075179562100927,-0.07925173523932026,-0.02327343696941185,-0.06092393723311307,-0.0018394563229372984,0.11641294002988904,0.006449216366724925,0.03297692529828333,0.015278288249188482,0.053213484129509096,-0.04152883792305678,-0.1264836421476755,0.02434618666303517,-0.049085825166469185,0.06979753358773705,-0.03518961937777108,0.014638509673925429,0.020258347198642133,-0.002976458978622368,-0.03453751164701885,-0.07563633299624697,0.0035552582804973445,-0.02449715549753103,0.010787842626800105,-0.05966682479113863,0.05604459045658013,-0.0735468241442231,-0.10794703327123928,0.12560407038562318,0.2710892873881439,0.13400535760660265,0.17233306888711986,0.6016309829533297,-0.11879990313812458,0.06196643647816575,-0.16445403985958398,0.5366110020771575,0.18308671222900735,0.028785930635578813,0.045599965234240876,0.14188101214774457,-0.04855517528356613,0.10834116157939361,-0.0536380994108978,-0.03173534985498044,0.024514876850453504,-0.017553814399072876,0.30205300792883616,0.07332625965460911,-0.07006586740314291,0.1257288338633566,-0.15963842915918264,-0.21303878474686733,-0.08462321924146882,-0.16205449001820033,0.2448807348704182,0.02489489962701255,0.09430030693456577,0.22318405168521935,-0.34190948343829886,-0.14399144402577232,0.12243293740917235,0.4521864939147212,1.083478813509538,-0.4408076053978957,-0.28342877985726883,0.09416206764283583,0.18402562423545238,0.19926511123347965,-0.6144633647218294,-0.12338502964589125,0.20021645859423054,0.19314174281015356,-0.4956227650578887,0.18530110195032107,-0.05112733647058656,0.043159978988820305,0.037562050157767354,0.13703840924022162,0.1172672702024352,-0.051143880133908845,0.07410315623887696,0.0483367554189334,-0.1908760435062351,0.13633841835437366,0.22436185035852987,-0.5892759585373893
101.37674713134766,1.1592025756835938,-0.36365023589438605,-0.3657780876398764,-0.9778228757446235,-1.0381376517209027,-0.5851556288918754,0.9942290578753563,-0.3643824738536762,0.17011651869680536,0.1016102680211808,-1.2128735007705096,-0.6315449542769598,-0.34848563749789535,-0.2525830429251864,-0.13593956806757318,0.001669975217114734,0.026088446347277555,-0.057031893240953604,0.06264336494432252,0.009150048435225416,0.05632784116714081,0.0016436791022023563,0.02564940579115009,-0.10773477955110553,0.06138294899090072,-0.004205374484998405,-0.10253105329017986,0.020821856030598124,0.03836977260667143,-0.021143144320611578,-0.005031280853889318,0.013330000594362564,-0.026480462205202303,0.017199315865408536,-0.011716993160726212,0.21727803573830562,0.22110008162656933,0.1829211509757518,0.28056645252567364,-0.08607041272256764,0.07889318985125209,0.0019023931089570414,0.09348936853949015,0.18558564178313872,0.7984377637065794,-0.26810230914441757,0.09448729424101898,0.11646262582798458,-0.2768477760171628,-0.6223716389099951,-0.6723894299565161,0.17484490736730346,0.023219231994188544,-0.3161097058710284,0.09474091875273088,-0.03388903988220319,-0.04166429685286907,-0.07895431644066683,0.05183839883842467,-0.03697835800128684,0.09816444091143117,-0.12604393904167308,-0.08567611158257724,0.22655503972671692,-0.2913779245830444,0.4512956232754115,0.27658341784053564,0.15116099562699736,0.0677547958333175,0.45452507397720876,-0.060810775169688226,0.059923741949126544,0.14377210171195676,0.010740799855806685,-0.0461942022752026,0.1427178841436545,0.14872275033296117,0.10596227391638408,-0.17258362249372464,0.3654813052775184,-0.20537320811550386,0.2103010703872537,0.6775348586600182,-0.7222661890864316,-0.5302883314626353,-0.10436650134316851,0.06414791269888126,-0.03886959041560549,0.30223805250339675,0.08267782586111135,-0.21834839961065242,0.08067690132297015,0.03591674640644885,0.02075871559443305,0.15167973926869713,0.34888234188828887,0.03654394300975998,-0.44124136309383877,0.36985582414265705,-0.3975406546247302,-1.105171981657656
102.53594970703125,1.4488983154296875,-1.0995534174147819,-1.296643257963518,0.7476991858201177,1.4729332686977439,-1.746780999705035,0.17182278109866833,1.020957161600041,-0.25853395186880923,0.05904735056066286,0.023273489749652536,0.009988697944762773,0.031326935975976834,-0.013110785704643609,-0.012771771329058204,0.0022878426843920825,0.09697338363060867,-0.011697789907425649,-0.04344661957168942,0.05485372216527329,-0.015928446822395803,0.06239532888784706,0.011283837943190355,0.08335865095076074,0.08127441210489882,-0.19677520310447344,0.09297327096942129,-0.13840708291313217,-0.023265626316762062,-0.020116684771696994,-0.01871677552644039,-0.12080934227219872,-0.00916850929354712,-0.04627387033296004,-0.03916696973189765,0.07634661872326085,-0.06230929580882657,-0.1358815309510485,-0.015077353027670938,0.07780171278004142,-0.026461464987136696,-0.20435890095944959,0.06757271700199086,0.022253228327849567,0.0961674777505966,0.0851219151903137,-0.1968141624514385,-0.09969434452865067,-0.33520974678301646,-0.2973175982227465,-0.006559559641898252,-0.09127996928492048,0.0652966013564095,-0.05218140845258306,-0.20312042263778798,0.1823600081673987,0.034108356165101356,-0.01363620907929722,0.011327398497632498,-0.06445095353889337,0.07578333466114703,-0.00411112016241769,-0.22911398647125092,0.3569735366490161,-0.10892878147144516,0.04385629342833762,0.1679030140256101,-0.07121862685314319,0.02324107839981618,-0.2000367209613382,-0.11768359590437917,0.13285160927137474,-0.03325552066379772,0.0009158734825209905,-0.21631967378593067,0.05092996444321109,-0.17277244919139684,0.2205647346331124,0.28275726985454375,0.7941799059323902,0.016386876737634837,-0.2541379502825981,-0.6607322430126636,0.1636652459888904,0.33554649919014606,0.11968772582055787,-0.6065217910945965,-0.7737168670858191,-0.10354559061747272,0.7736355917190251,-0.9893089788144329,-0.5063224375209076,0.46394912100956903,0.05506620645548775,-0.05956468706932655,-0.540125710580927,-0.35963097196220095,0.5566124942542378,0.5660859956917191,0.09082142828518548,0.08909681093622968
107.58235168457031,1.149200439453125,-0.3916393482737689,0.4965816013649682,0.3082439300493258,-0.3798799018868876,1.0781486864230425,0.6615190744495595,-1.3217178291256402,0.5347497863564221,0.40808902423295657,-0.12075458885554731,-0.03300643473485371,-0.02103446105601463,0.06245211842200929,0.02762830396504641,0.014373260638235845,0.04192966827312596,-0.0699074296544924,-0.018685219086352692,0.07271456784173318,0.042121368023072585,-0.1517716727583845,0.013599893869117415,-0.05102410793768922,0.08967277024814616,-0.008278264969439364,0.00204912639833492,0.06018612955571737,-0.10217318853601992,0.038690686554959275,0.08187420732676742,-0.022268464825913704,-0.01866253720357878,0.010663958533528854,0.03529838733904667,-0.06367833443227044,0.027718109495758234,-0.11908119114209219,-0.1898428792538101,-0.011496486326104671,0.15164832424089555,0.06601029738387044,-0.24517847418091124,-0.44830621676428145,0.23126707189198026,-0.28043235302049363,0.06698140670100072,-0.21533587289893696,-0.1605294482437731,-0.013475283037774823,0.7768069873864417,-0.09637285672567956,-0.3477170063380737,0.005740185409161671,0.016266357811019788,-0.015597645371046017,0.01619227197306109,-0.06436332191201308,-0.011388048269229858,-0.009463865128378076,0.07312830821755435,-0.013845180775806959,-0.4472651183971721,0.21967624190394175,0.4560075273719687,-0.01591817015329543,-0.09510208485961427,0.10989874964197083,0.05204630256642449,0.15905472675500504,0.23533131244991484,-0.09197457990080855,0.09861532181426891,0.06760755828788532,-0.2712400585140397,-0.22501792882050545,0.05171482352119944,0.131192705783573,0.06603385200652186,-0.6259181469912014,0.06654237240747486,-0.20249901553283745,-0.2676417243164611,-0.021934235671106896,0.18823288336513236,0.08531715650271966,0.3003455935902097,-0.5214940617466368,-0.3319721716893389,0.38185902883684575,-0.20734641377629123,0.11546726027613016,0.17256052772227815,0.053634996029556486,-0.2344644462732424,-0.21594150775974943,0.13410461581285288,0.024474433621758825,-0.013521111572375994,0.35211670788187155,0.21659442134107076
108.73155212402344,1.1892013549804688,0.29995205615495046,-0.19138543119440948,0.026187536651359714,-0.5625772535970202,1.093820422814989,0.7908677226928731,-1.5105382623365262,-0.35365184249123205,0.1263882395949679,0.03506864922961004,0.22830186397585767,-0.07827791025182586,-0.05867757868680264,-0.0697864409009042,0.17467657980142626,0.05515775432293465,-0.06442721361816693,-0.02328139632353976,0.040551026079255474,-0.0401025370872434,-0.013212937245486748,0.08853877354841762,0.02433463934088922,-0.007504649172832952,-0.0005717585312032675,0.12247102848944111,0.1144546343628446,-0.0772262743799738,-0.01325609010750618,-0.022417067774053587,-0.10519856459203973,-0.09358065878881558,0.11540341966437276,0.07105458582913107,-0.15925997363577166,-0.13382252725854185,0.0020188222448593784,-0.0011968162683509281,-0.03396156557721459,-0.0013058788689986776,0.29065140080553015,0.34552930857449843,-0.1011528443615755,-0.5983959647771714,-0.02107330938401414,0.028663453976316335,-0.24015299260519643,-0.37370142320115396,0.45029299330985173,-0.22479142782359066,0.4177738227262839,0.09383010275246711,-0.11296912318903916,-0.1636476941936291,0.09040060739764907,0.051703463008968845,-0.09416446462999693,0.023698649643716437,0.03889228252317283,-0.04269362594009763,-0.06682085905401741,0.1365965836462602,-0.17312520327085057,-0.5378041301930817,0.17346256300139068,0.03315807176327666,-0.030914719822279144,-0.2613306112178964,-0.21535748166954927,-0.07663845796077406,-0.10930463700930024,-0.3469260620710918,0.1440590629766011,0.32952005501056125,-0.2757778162843805,0.2711282243325882,0.06400178303099238,0.38247750066627395,0.6839233553031777,0.008489917524703003,-0.15941567652741112,-0.5532945473395937,-0.10914112611216957,0.09514929706832208,-0.04681319896303212,0.09267178495165168,-0.09307338749365934,0.35420030530358376,0.07726421867923153,0.06718482813692203,0.08177310515885765,-0.023920289810518115,-0.18267109292535733,0.17146124158475864,-0.2865618034424599,-0.3791704908256696,0.042947010964109994,0.5145583412605153,0.28799316661224206,0.8541219999575742
