start,duration,0,1,2,3,4,5,6,7,8,9,10,11,12,13,14,15,16,17,18,19,20,21,22,23,24,25,26,27,28,29,30,31,32,33,34,35,36,37,38,39,40,41,42,43,44,45,46,47,48,49,50,51,52,53,54,55,56,57,58,59,60,61,62,63,64,65,66,67,68,69,70,71,72,73,74,75,76,77,78,79,80,81,82,83,84,85,86,87,88,89,90,91,92,93,94,95,96,97,98,99
219.34840393066406,1.178802490234375,-0.10651697896280195,-0.038177352659469914,0.09212998110743129,-0.35710756758635087,-0.32216626752973676,-0.18484180530861322,-0.07611317904157516,0.24795490514075333,-0.49535537944754315,0.0728790359579973,-0.053091562505055694,0.06342054099975618,0.020401931192601364,0.0011563862630491581,0.0137518826799536,-0.1113800358528245,-0.08806694188958408,-0.4035003414459099,0.2522351150486073,-0.09708788202534169,-0.0006698914167743261,-0.04404254781601795,0.07215647828812376,0.0029607450203866913,0.0067263244077476305,-0.053574215776373765,0.04068620421725479,0.06338578660783271,-0.012007481216212135,0.0038426981494219356,-0.030818841979578942,0.053121752305594676,0.04853507908040563,0.013938645217774695,0.025119467633575848,-0.1318580362126085,-0.3567107784920749,-0.2744781732541058,-0.16280946095968468,-0.2715626362303177,0.4324158426705387,0.5086794313902774,0.18886376940219723,0.37621085921028596,0.09453750652402698,0.09477246409991871,0.14055393729496055,0.16445754896151737,0.09383309708070803,0.10746142990019922,0.17855881964171713,0.05991080393070046,0.14981749029394215,0.18806714756845058,-0.1656195096734871,-0.0012828528030986164,0.005947567927313782,-0.010057945383910978,0.030901823706085296,-0.042426814051388484,0.02124403809366877,-0.03696071310382915,0.016311122228869757,-0.055529965973680304,0.010529489900403623,-0.07559643406546604,0.06158444517443912,0.07668519423896346,0.18342729080254044,0.04596706684231282,0.030328686579124353,-0.061767173874732406,0.028102806379852695,0.005607275569350038,-0.22097930659173357,0.2165972719820088,0.010708285062148153,-0.12369582028086762,0.025080011062814295,0.06789285551762816,0.1467852155181896,0.21290058269545117,0.16165607216249195,-0.24652119351825674,-0.07792364360806404,-0.02818812715427517,0.11817470634981016,-0.11381641821019205,0.22744822041448248,0.19337597056053396,0.22356968808795097,-0.022838471235025415,0.03157006548128885,0.18216888765271838,0.46930367762141123,0.13295062572568336,-0.18334443040831352,0.5335418985696665,-0.10131039296842884,-0.0460752853008809
220.52720642089844,1.168487548828125,0.09833227378955234,0.08666193913561268,-0.29055996024542047,0.30539316631763147,0.7904761868754407,-0.4391171053044832,0.013321402677733934,-0.0823649851366022,0.025172803152771032,0.14391727504853233,0.07096828211304226,0.010279258751487134,-0.06877654454896909,0.12124305249136283,0.5223339877695578,0.15699697774316898,-0.23936595081641432,-0.016072438081545917,0.04414587849497311,0.0001865074065590251,0.09064948225284208,-0.06840383814029438,-0.029378321162486773,0.05776422257392114,-0.09673538693992731,-0.027803818718011034,0.04499071934922134,0.07247239745880339,-0.01894906380444485,-0.08632543767759142,-0.19924843190149888,-0.1302235826844003,0.0037975545652175202,0.03852525458084936,-0.033840123366007245,-0.08780136335138644,-0.07688520066231946,0.07547220068911636,-0.015906479192883002,-0.11791295703271211,0.07703607521778863,-0.7490818510262447,0.08471824347043763,-0.09027590721184404,-0.14518538696443598,0.24669196128592807,0.3085912091663063,-0.22559754536962864,-0.21559564991826236,0.28754583761924213,-0.13844395728281486,-0.23663445934614938,-0.1119945056512649,0.13734281374975174,0.14184048640946353,-0.0398518433034236,0.05364220994008941,0.03671240378824042,0.0305721371286151,0.07985468500210537,0.011239009187820809,-0.15889738719622343,0.022151564348171546,-0.03735378222670018,-0.1053682770489833,0.11459091032003856,0.09353331641858245,-0.08748538518138052,0.06946350064263997,-0.016769765104172593,-0.17535300580463506,-0.16332457053156887,0.045288773627532905,-0.13321321544239106,-0.0933952674476464,-0.2039973611975181,-0.04638633900770267,-0.13560620217387842,-0.0692139735457336,0.026652682229305898,0.09962570897949813,0.0809626477377998,-0.017056031973070124,-0.17744351162056407,-0.13127971799499794,0.185756648035536,-0.05178036649574332,-0.2886363253822985,0.29629405194220426,0.14565664624631963,-0.11423523130663324,-0.26436462174249026,-0.23218808576873926,0.04873754287969959,-0.19646899484320085,-0.21931574351351274,-0.06903173863679009,-0.0014633941899481195,0.13063753403202266,-0.9543056850265005
221.69569396972656,1.1787109375,-0.8482109235538733,-0.18941836953704144,0.15056500444641238,0.5333411683954411,0.01768193073811164,0.20477990364583062,0.07846692485291971,-0.03280126571295272,-0.04660197002692829,-0.10308787166884978,-0.000675670267841176,0.07763886568596468,-0.010433852496599479,-0.025593177468831458,-0.06626434372394611,0.06492023514697631,0.03696335778763015,0.032492641619810234,-0.008953628203134681,-0.05999621091712255,-0.005520830985247647,-0.1492628421029219,0.11122971036769161,-0.015628006295471075,-0.07015058038618055,0.015870435140249432,-0.005013939879459825,0.015724426874186515,-0.05400348963524113,0.07169318170422194,-0.01923633686369612,-0.06500117940815867,0.09551925591692474,-0.10708355759172057,0.10281379714640061,0.05614235714556583,0.0867002455849821,0.01760164859948611,-0.10037771072494614,0.2553781217607088,0.09380263693921226,0.29676138120525,0.25095784408918154,0.074076954536492,0.030678613845214975,0.3555763436230941,-0.05045530775034968,0.2698664529511468,0.40536802479384665,-0.16346752277269905,-0.11132191810541267,0.22591420093625625,0.1892032358457701,-0.16318103304207393,-0.09157999699502425,0.0011919661797111375,0.04453216597430586,-0.222855372455731,-0.12509122235872933,0.07290911808824656,-0.013799799468587216,0.180696195588266,-0.036548412968218966,-0.031030050222616345,0.012136908637037968,0.050206299170234434,0.03295977153346911,0.048933775662725124,0.03324739657452113,-0.026195883692284566,-0.05581264376660225,-0.1037492165344993,-0.04487167738657372,0.008863951592153179,0.07631788344403662,-0.20164337762998957,0.0253763416355003,-0.04581994785678968,-0.021215167252380276,0.2707395407849836,0.061043866714451084,0.5246542287923804,-0.0607768730409991,0.16341520376336183,0.17408008069426,0.225084898726562,0.05242036658918309,-0.12120884979735216,0.05938899781990839,0.06337760603152004,-0.3090955582330193,-0.010196477768468899,0.179003650399495,0.03484984120094139,-0.10079798285523218,0.14956210055563746,-0.08758954027918026,0.2628853237275431,0.2691448778302381,-0.7069479641723005
222.87440490722656,1.218597412109375,-0.7178008406325121,0.26620804418376287,0.21754127542111243,-0.3008646188212355,-0.19504163429682175,0.8803851495436227,0.9994933756021849,-0.121232384904344,-0.04518147054999784,0.01682690685962551,-0.03748855077573914,0.11999682324098802,-0.01101194032000864,-0.007030553954617933,0.00035543581087869544,-0.025055962301115644,-0.05328506145280739,0.045514176354044505,0.04451908790986638,-0.003081835037666234,0.09577392524709635,0.0206647460298166,0.007866364951185232,-0.0008611529780957411,-0.05518318941242593,-0.009114993237649228,0.10091346623640392,0.09728657993444378,0.04797605592446416,-0.0007656329369821762,0.1352077307854117,0.11946327560080829,0.16703318043767176,0.19534127792924172,-0.38096091584992775,-0.052010184391211765,0.10510336563644129,0.2802104441291608,-0.04101113353515338,0.2516624117114518,-0.020321465471590125,0.15912339983326085,0.09435789884800365,-0.055654086902002575,0.19391477251688677,0.1918623995014231,0.2710599650037936,0.07121569052156793,-0.02665240433267281,-0.3064427147435894,0.012675845602947518,0.19684045258952293,0.04892584505114874,-0.0743412424819002,0.03791866026776844,-0.002282305537500348,-0.13133398342258187,-0.002822101640669065,0.016217201280462695,0.06534206030336615,0.18093552331211166,0.14492631735957415,0.1449791119059582,0.1307284580738651,0.0199543180578243,0.12103645323155057,0.16114657887045497,-0.005033723655998027,-0.06298913737439871,-0.0655824585977268,0.07387783280870061,0.25499968272217477,0.004333029467057541,0.03994985080030258,-0.041967097628598585,-0.1454697449956971,-0.10889610165841372,0.25520899438027944,0.05707129642698674,0.13596343237412575,0.24706389188434869,-0.25001045757124335,0.194303768569281,-0.6088745059269961,0.2055785765461442,0.07805559918300538,-0.037014256888017655,-0.09387418095083634,-0.037049162791742266,0.03046616032940948,-0.06764894000490082,0.040062971234816454,0.18608151560021366,0.12306218190531294,-0.08485186686711679,-0.14090403738846718,0.029635132708721756,-0.11983562072574216,-0.01152064821992271,0.2433358383436215
227.67889404296875,1.14849853515625,0.030491317984991856,0.4908364029530726,0.9140535073045689,-0.4120109536770225,0.031176426574287465,-0.399706730221982,0.16834203235208223,0.25150665091454116,0.2148892552588666,0.10238052078332326,-0.01689414082656986,-0.003078142352071632,-0.10899261668776877,0.020035368390839494,-0.05179624268136075,-0.03258360103908083,-0.021898732093838948,-0.014442552085992606,-0.05677488017626328,-0.035797728056835565,0.05679663993905356,0.03892488473609424,0.043791181452998235,0.05446178529866184,-0.02706124845222891,0.010247036177698829,-0.042385665122582496,0.06448576627387814,0.16575683905192276,-0.01822395133943477,0.012368303222301433,0.0028363987359715046,0.008278322253146765,-0.08250634887558096,-0.13220798571759185,-0.06464701077622453,0.21570456709305108,0.27104604485267675,-0.502163109935191,-0.293691955457811,0.5315286807921974,0.431761597722268,-0.22293795930203825,0.04508736217885078,0.030834058402147882,-0.17582854650978663,-0.25627931316583485,0.02840139243644285,0.35637824149875086,-0.03132698798725922,0.2530013895075544,-0.12028840874751873,0.05514183152315871,0.029290993441145136,0.305049029447583,0.20556913918575664,0.00873425154162392,-0.018152575688350117,-0.040074559744890076,0.01512988276332884,-0.00897177756264482,0.025218429254866743,0.1087219494753029,-0.08908998311066134,0.03192737907040925,0.23836765627912557,-0.008213782678332405,0.08227644146190337,-0.048734789665687325,0.0012215277172846276,0.004614208464598665,-0.03225558400563246,-0.08099265488058562,-0.10851531997509142,0.4304802738829741,-0.028186081125404272,-0.1881756884584612,0.322894720056059,0.07853440935144017,-0.2820864725385985,0.10183353759891556,0.3303873163091852,-0.05791949315756967,0.07764743440294021,-0.01019118021409857,-0.34477101683756733,-0.2042795907488149,-0.20932569217914226,0.2191213743527647,0.015418191525945618,-0.026777171214197763,-0.010790371134508083,0.05004393821304384,-0.23428587169196582,-0.3669927042811298,0.03827111666967434,0.0045174022519833545,-0.003891011061489853,-0.09367446951804016,-0.28608484545850577
228.827392578125,1.128814697265625,-0.27824247740590574,0.23078413992463434,0.393328136056712,-0.042597985363201536,0.006539823411988388,0.3067584726263183,-0.11516250428018468,0.11851101422298671,0.025388075666171836,-0.07554435977999233,0.10978532035011812,-0.1873957857856442,-0.2307056483694419,0.08464751668027587,-0.03228205426667078,0.0073303380983356925,0.10195918573674495,-0.05049299353865241,-0.03852388765121135,0.023424589335908397,-0.10509694973339023,0.020906958748575295,0.21254746705926028,0.1724251718763446,0.05298157434425714,-0.07107371588788702,0.020840886096947592,0.029711531370640303,0.03961002179158443,-0.1228461414089703,-0.1667687881095956,-0.01918582981352093,0.06775284811801566,-0.05294852352502476,0.17098404148866095,-0.0051891513604817585,0.0033722149767893284,-0.3826518534798099,-0.28748012997478145,-0.31463374057111104,-0.001532942481219349,-0.06703714643816804,-0.22332838259672555,0.42907666955092355,0.044815580594211826,-0.12589831553678812,-0.524902870630925,0.04451661444414903,0.18357895804479982,0.21768633672526883,0.3225771364614764,0.37975222706759804,0.08010059602955519,-0.2579216320736141,-0.02274437772939426,0.03355121221309433,-0.008446919087938036,-0.00669258122643317,0.027084136039885118,0.03185144324265339,-0.0901967504275973,0.04975658055761367,0.026375841032246078,-0.213060357869642,0.08718538553212879,-0.09015398274951686,-0.08914500423175678,0.05504817278777835,0.006658972872769024,0.08717095377454145,0.12960066598680367,0.03939855622423664,0.08129553707378825,0.1344457246491106,0.06269913706537887,0.01956157625364493,0.06941490968997019,-0.14406136602815753,0.2540374448456169,-0.04561096413201845,-0.17791663242282826,0.03517556433839159,0.007464378019786395,0.028826665314886812,0.14330722210514538,-0.08567161288163691,0.017230891497050038,-0.09168758107009015,-0.09560610086778662,-0.007296272393038924,0.032071237190281925,-0.02608074480765421,0.14838196659259775,0.3184704184679445,0.045785703961872065,0.4261875267601281,0.6724049785004231,0.007349368601726136,-0.02705389570647495,-0.24818273904099425
229.95620727539062,1.1486968994140625,-0.34480092324411593,-0.06231584279778557,-0.6533274492130727,-0.09101256848048747,0.07848347273840484,0.08217396487577987,0.4722158453228109,-0.07065862097492899,0.03715778162189525,-0.018122900149268272,-0.06178466242325918,0.26361778034146555,-0.056062141449873294,-0.038722235077143154,0.08763791704893893,-0.043294028863676,-0.030469035522773656,-0.0615101357263646,0.1645133632928158,-0.059204705539880755,-0.001817206190499201,0.01839856008075325,0.0022117298135066943,-0.15271755008261917,0.14877762247084916,0.5144474876364238,0.043227383198821544,-0.006471997771099969,-0.14337807145519837,-0.06337251547692502,0.181530871493492,-0.08270498146185465,0.15146825148941417,0.10142040089527117,-0.13668103968375195,-0.20928809334233472,0.25371342902971433,0.3387219446745797,0.04211486671602502,0.3767027008316459,0.7563154429467379,-0.1812474184341533,-0.31094998631648296,0.15056673234781692,-0.5134911907957821,-0.022061458412229437,-0.41817610926569637,-0.111813194765958,0.3744870281362774,-0.2714582437435088,0.11928566081278669,0.014940650086055496,0.03163431685189291,-0.0893114833687824,-0.05197547951876538,-0.06075750917096719,0.023032782961957522,-0.013636568916642,0.025235069769048563,0.006981908227590108,0.05747558873779808,0.10843416723671286,0.05305064586138496,-0.08549957919832124,-0.057271640014835645,0.16048572599123168,0.06576886553073678,0.018608569063420007,-0.017204966345282395,-0.039277209219376046,-0.03309773186841625,-0.30843812407429455,-0.15646140908103276,-0.038964781590394904,-0.18969735401554177,0.3571425472661497,-0.038763700589069874,0.09238187572296065,0.00895966926541071,-0.14819804293580216,-0.09951891171108013,0.2660059146138356,-0.02205143555271989,0.03926198056092937,-0.000249230210510331,-0.22934717305348423,0.04498323223407749,-0.08832930406356054,-0.10603856648383539,-0.087113449463529,0.05193527847223632,-0.22809094473186609,0.013135697149847402,-0.057005783636969995,0.03904726939350573,0.4903450467099629,-0.14605994291307878,0.09531477676817582,-1.6277502777884094,-0.5902009740605794
231.1049041748047,2.706298828125,-0.3526286378184924,0.6783748377852422,-0.24958869476753123,0.4723964188253125,0.4537535554251308,-0.6969402510318041,0.10743696976557701,-0.02618848943032895,-0.019085468995720268,-0.006622731320141404,0.02025226384993923,-0.038585381858815784,0.05294429270701559,-0.060035102059870456,0.0709415892289815,0.04050365107197483,-0.03276221854681601,0.02130342294271757,-0.03809420281052846,0.08906906568673903,-0.1168707019340048,-0.07860234367621523,0.05184461970185128,0.10910916662941253,0.04325970163089119,-0.01607772847945331,0.007089555197617198,0.257284844149743,-0.2612532232886415,-0.3060873658158503,0.07288229247926192,-0.047695897490861214,-0.03827623069436016,0.00878963336890343,-0.16114156894692544,0.16189622757733324,0.13396979810448315,-0.008528706338516172,-0.5957903832029654,-0.0532644362954173,0.1616494389686553,-0.3478489128056831,-0.0770257111660997,0.37308257426917896,0.23751835228149,0.5044614355642264,0.037804615839047026,-0.0723119168238479,0.0025280536809935,0.13871792362568136,-0.08476820806168449,0.021611458911125304,0.1830853681101146,0.008366683246634098,-0.025934519078210375,0.05447131755407639,0.14488616493291287,-0.03491819867688127,0.07839927653715753,-0.03260676989839586,0.013982650724236833,-0.004049637977926234,0.01012915315585414,0.09758741601600979,-0.2890523664783377,0.05357426376229404,0.11964790699382494,-0.03415066754080505,0.04361540186942104,-0.008180355552894428,0.06751686733670702,-0.10491163147767114,0.05477052617646122,0.03509865291931207,0.38891610543455235,-0.16245149150628413,-0.2159237598128348,-0.10595087849592458,-0.09299224152928301,0.20325296043121285,0.17830020730984708,0.15020120422269337,0.07018698763586813,-0.20682618669404024,-0.034605423799496715,-0.22503755684777807,0.07610486331852488,0.15200631483189964,0.0033973706252058283,0.05919717226812384,-0.052808409450794756,0.004149286550061995,0.04869901650906217,0.193687487440937,0.06501083973500045,-0.19896754743401826,-0.26716274394069944,0.03802560355006579,0.05487405159699983,-0.028982526719492058
236.16839599609375,1.169097900390625,-0.27832583122866644,0.17934003435950963,0.9367777155288913,-0.2196565945887506,-0.8026603095436122,0.15790226561244983,-0.23390443736229974,0.051221236308886996,0.037756848645558824,-0.0038772564353332954,-0.06986416194605125,-0.05526565112561112,0.06103946351457984,0.007350622007115837,-0.029362803865059846,-0.015427014776739944,-0.002249707765735045,-0.08339739130048661,-0.04458708132682187,-0.1161621996022079,-0.019618334822780605,-0.003940531869451947,-0.006836187566033687,0.11018940679883199,-0.025397859640443915,0.14002227870531464,0.0907324169755522,0.02062175345709031,0.12738288079860027,-0.009983079459469106,0.11098718129798409,0.02701991322114079,-0.1445686884334696,0.16981229826071254,0.05796990040423421,0.14743567596398266,-0.025922067291891768,0.3394007410520405,0.18104821227341658,-0.18356825398916815,-0.08399449661375014,0.09560392232068861,-0.07334312563393239,0.20685797642043363,-0.06575289048326166,-0.03994154570558395,0.06384623486976287,0.08999124216673285,-0.08609703872573649,-0.11793133575314506,-0.11603494765830276,-0.019526267062608023,-0.01807803802653181,0.08168772701724562,0.0623855373806186,-0.00986381796895193,0.03885864384460138,0.0379497184063691,-0.06275635545664429,-0.09676144684663485,-0.11313328653386844,-0.03855651992561082,-0.06740212588274383,0.02285862087542375,0.04683719121800334,0.012389867485792521,-0.03102834567079243,0.023393543032401935,-0.08993651940611981,0.02644446650771755,0.08788722506882274,-0.011652311166134431,-0.08472753487389574,-0.16927853893779826,0.09518213798374485,-0.04080494256847117,0.07719278455660103,-0.09065069143928647,-0.15609025209420502,0.0706855797905879,0.14994895667487979,-0.03281531742065296,-0.18690700478072592,0.10738237634965886,-0.02454832194018111,-0.10145844528571192,0.085170451312409,0.11722795253860313,-0.028814487068670014,-0.12205807756435978,-0.0832138656741659,0.09053800281716257,0.051249846789451985,-0.13101451631085687,-0.0958791274965731,-0.1086352351397068,-0.11754718134600275,-0.469586775750477,0.15258722749856765,0.008754204188600956
237.33749389648438,1.168701171875,0.4491730474903874,0.055044081042363455,-0.049518142385426636,-0.33094139905532116,1.7085913222606097,-1.555744936579291,0.7449200203040968,-0.13563129222004805,-0.1400770637533392,0.010642969784274477,0.03678430089094027,0.06921445673824388,-0.017865354039545478,0.10920915387173108,0.029204046671347697,0.03108556936163912,-0.06034722287733149,0.1812335680676531,0.0154248056561888,-0.031418080047222234,-0.046684621768565346,-0.17737984760754738,-0.039789446837322814,-0.3405628441344011,0.19556195654140215,0.0721133597979971,-0.1395214498049969,-0.06207549315679606,0.2852460288041978,-0.05081600195318528,-0.04337220708683676,0.11080979486818876,-0.22459531265654764,-0.2798608716042904,0.010429621117110016,0.5079827045469945,0.24554779031292498,0.026413395007536533,-0.1032138681233099,-0.30683765101752675,0.37069822904770267,-0.21717446458121242,-0.5396960420572094,-0.39542872588810385,-1.0300762303991244,-0.08208126499999682,-0.47010036861252563,-0.08966320364628035,0.21309495599800954,-0.02031827797882818,-0.34204637485457356,-0.17456913736267665,-0.1637874423312486,-0.10316598217603502,0.058415812548794896,-0.1314216026938094,-0.015389066876374036,-0.004516158701636722,0.1799280713566535,0.014345638021780573,0.03687694781272191,-0.02896144883820946,0.09697779785724292,0.04490576869729478,-0.05859236691587381,-0.039467955598815545,-0.04059938501727857,0.07501154084562121,-0.04293042163382235,-0.021796196431711837,0.11335229237921693,0.03781785271349983,-0.02489580300737064,0.0927453165536558,0.021175992425886823,-0.23118192305250557,-0.03586833432799801,0.1000345749636156,-0.20867195635439909,0.07460196491801632,0.3720151625584822,-0.007511224598383125,0.024107781533126052,-0.2024339096496765,-0.3120286022813241,-0.06440484434959763,-0.5076072820685376,-0.277597490913221,-0.07616194310101626,-0.1343158442976054,-0.03622537183443109,0.027692112005088768,-0.04312034683874323,-0.07284997534869207,0.25217532467522286,0.6044358147923123,0.06458292844141536,-0.007314102660616176,0.145742743304999,-0.05047002739117527
238.50619506835938,1.258697509765625,-0.06215911931190925,-0.4190902392859098,0.22697822860964728,-1.5604083317282134,0.4817933386342581,0.1994547365217853,-0.06841074839596567,-0.06811441642503263,0.0019520887303852174,0.0628717069464704,-0.03683987965227331,-0.002501827470743248,0.06520614091435276,-0.006391017413565802,-0.06413998752362574,0.029478592158661054,-0.0684302476438251,0.04444850149545759,0.04786456450515844,0.06839655947838891,0.061200234226454264,-0.017385690442592295,0.02084660343635801,-0.0401275944541743,-0.08373960320262284,0.14071535340939298,-0.10308960255101343,-0.16813306429421043,0.18635089085286347,-0.11397908411378792,-0.16537772650192417,-0.12471271428295452,-0.16794289174331542,-0.01733711705009974,0.06776200875818084,0.07432952474824014,-0.25121730902675476,0.43170476432637767,-0.15517468050751598,0.0017843389418190705,0.15528106494262614,0.3539178956667216,0.12545386942914166,0.5332277674519296,-0.2076030607568847,-0.34491336996978506,-0.04441539331895639,-0.2285965418888282,-0.05953604515993156,-0.3253711431491613,-0.34960679345077084,0.1027007413146349,-0.04066945443002114,-0.05668546152645811,-0.08943757133090409,-0.02104006667138131,0.008956757583386708,0.03021037321148686,0.07175446156079894,-0.12065835187162267,-0.06832908318179727,0.02597114289859287,-0.04706125248294142,0.06375753181918405,-0.20182170081095024,-0.0764739008554722,0.021989064522167978,-0.15813109945399714,-0.0817137416342613,0.040147428379817496,0.007724072097244383,-0.06650601338860623,0.11751883567800162,0.16613798268400187,0.046460826870187016,0.050001688564887126,-0.06939043487977775,-0.141681743027327,-0.26002294713722424,0.23861020627348972,0.021583206809039523,-0.059131400807106105,-0.15909920147550666,0.2159760916242915,0.3156542225348527,0.021541457672689453,0.058201955697177316,-0.003646599683762422,0.005977114985565413,-0.003942583346991636,-0.021847725914598385,0.006574900700965517,0.027224949926495386,0.07526244969237368,-0.11099576932799893,-0.07396411677236275,0.06380627901442794,-0.08376644797568408,-0.1445276480153821,0.6888228519683681
239.764892578125,1.2384033203125,0.8242142066380467,0.821438173028773,-0.10588742127505137,0.12853012422992108,0.22173133940777526,0.21487466191184626,0.0841428542832846,-0.04271202456051526,-0.1515618953865161,0.32603388805103733,0.07501832485909406,0.07828485281350056,0.0583125207646145,0.016383077659851683,0.009583815252801943,0.055378846611251864,0.015363093060914199,-0.06204325352207661,-0.06548095682336576,-0.08347036498651658,-0.012801206390486448,0.1667801573066651,0.045508838453732776,-0.007184732464369502,-0.03818072281201308,-0.01586682610817522,-0.13674290445509377,0.18040615601628368,0.07537692078088916,-0.03893900710792203,-0.15102537061597274,-0.05419399186426209,-0.06805084066745763,-0.13791522524904568,-0.04608004480320013,0.04655177106774642,-0.06596512697472699,-0.29526007003986404,-0.2140315804248609,-0.2380960807561192,0.11229794804657917,0.5301726204998531,0.296632871223306,0.3331244870658507,0.15718466933627168,-0.05380759530451254,-0.20270984457897334,0.045542265387689185,0.2601142494282021,-0.04957135063241072,-0.07783694297193512,-0.1017043031921035,-0.05242729618396515,0.1883063028011676,0.009125861003123972,-0.12448121177885685,-0.27638362800375516,0.0038231588210196304,0.026638181853741075,0.20123711188573262,0.038934351166633505,-0.13842759441329486,0.0119274315635644,0.06917284871974648,0.1444229760028257,0.02328852068785811,0.0016631885798110886,0.2421403054296613,-0.10270537866581665,-0.04203430668077096,0.14664508363805784,0.03382195971468862,-0.010802830037140958,0.06965127418995758,0.05749851315833482,-0.5003344590525163,-0.07176383218290067,-0.4042319302781213,0.12840661024216857,0.062230310150096585,0.6138081451464369,0.3145397638344771,0.21409341424007386,-0.06699823368096208,0.4653933993617046,0.33406714932244824,-0.06949244409074291,0.04635533869041342,-0.017009967730876194,-0.0959004174708094,-0.7818233557805883,0.7319727949562062,0.0795004679424098,0.17904096895224922,-0.19111954218000124,-0.12109969859270214,-0.011694690827066673,0.23295468802227745,0.698336070282876,-0.24112399962844638
244.69900512695312,1.178802490234375,0.14996273598105792,-0.27329789858834735,-0.28821129193957945,0.02030820739675836,-0.7993446670283171,-0.36793124237170594,0.2980094675956076,0.0408331658537976,-0.0011134783009222988,0.08333586926156905,-0.010457169367800466,0.041949784791831354,0.08512182454926544,-0.08534699143892485,-0.13949715711839988,0.051248398731437425,0.24503916459184427,0.1065127287555857,-0.1794736687845269,0.09843167858672107,-0.12933541943157933,-0.1480894898076434,-0.09301773792638317,0.1835514002566026,0.25739576662562574,0.19962862609902376,-0.10923927781997243,-0.13765757659402808,0.029538469814499327,-0.23381338650224398,-0.01297876165703489,-0.08663871299680066,-0.05738693691278915,-0.03502935192977538,-0.03769555867268756,-0.015933697057243786,0.028106759230530007,-0.13073596687785496,0.1547000199226169,0.1316776351701625,0.4344449688218572,-0.08799824833984102,0.3017859339388601,-0.16312056245085074,-0.2689348768991634,0.05778060452202778,0.05184774589022374,0.123386599618112,-0.14793445263956762,-0.19978892713419438,0.20845087160675144,0.11166280254229849,0.4612228302381376,-0.005084108592340483,-0.09575838659417939,0.05774762256514401,0.07323408364083779,-0.04983892670402926,0.06526593703447062,-0.02196989493723963,0.12121916960804383,0.04091331570734092,0.0205627616224199,0.08002035282055495,0.018170469961045682,-0.018607504436571116,0.05643625802415962,0.047983722178385646,0.06289245705058609,0.02067652343935983,0.03801171285779739,0.06896764934585525,0.3042300143905994,0.07052801504989827,0.12546284120149898,0.2069602047307863,-0.06597777684492126,0.05610380844512776,0.10814407254464556,0.04707549733111371,0.20065462621137886,0.2595425779583549,-0.4414868531520101,0.035656400219827245,-0.2576567452904741,-0.18531172413201846,0.42010707663478963,0.059348857569645995,-0.11642253084950435,0.004381320893121656,-0.006999630110954189,0.16450316922395491,0.015008299329698698,-0.18968158561099968,-0.029050993031614833,0.03908065096715781,-0.03729472886147134,0.3294463225383227,0.3035900122227445,-0.9920364441358294
245.8778076171875,1.1680908203125,-1.4420043791966897,-0.5429912132048044,-0.07122288415217326,-0.014232492507351174,-0.16040498541885662,0.043545904080438846,0.49037743346457463,0.30727917193179977,-0.013577821124956008,0.04202051380057302,0.0458505137756412,-0.0051257850253896104,0.0061379505498394505,-0.0031464608096271832,-0.011937888343970011,0.010555877297857098,-0.02316654437926803,0.029520181624150984,0.07350643259580963,-0.09584641759565754,0.05707412050776475,-0.040624766705923604,0.028108119522762584,0.07654257833416642,0.02415375907440316,0.01547354676287914,0.07327182883189731,0.019362299014210438,0.20226801327241467,-0.11885130077163444,0.08533646111708275,-0.08687552135011602,0.029609745672136662,-0.051962222316048974,-0.15577033180339564,0.05442847071863667,0.08155291736428746,-0.2099478609042708,-0.11203527197175894,0.38953719081891713,0.14190485773896874,-0.28548390920090605,-0.3687837668279218,-0.19083395097674638,0.3077975733087627,0.2324758181727563,0.21198473136718515,-0.21019954514602424,0.19294750037573816,-0.19400171804732003,-0.503980178743004,0.06968473405423423,-0.04414844616988134,-0.09571841403616066,-0.009343646308875676,-0.10502877244299624,0.09901904669687975,-0.012754481193758,0.010489026876142234,-0.023714195478503862,-0.07360555809176557,0.14472719743945994,0.024654819491337982,-0.0560095853513835,-0.09744892223770793,0.02219638495211758,-0.005680922377504775,-0.08096303478448084,-0.012205062483623973,-0.030282228654472623,-0.035858898906564685,0.252926387178369,-0.10311817371912023,-0.3146926886670092,-0.18486636285963576,0.07098361379323447,-0.10531070566676674,-0.152887435782055,-0.36823033046884734,0.328798995875673,-0.11165442382624671,0.3061463927938106,0.05257810190622092,0.3566430034590201,-0.018912815684330314,-0.024402144936027083,0.00029287121876834035,-0.061524651907673485,-0.09384400867286373,-0.07325478988284082,0.021280878424329158,0.05376440017601299,-0.21922800929239328,0.2738607524984007,0.05748910372464171,-0.006989122961177435,0.12202768203102746,0.16731984764024496,-0.04216272121791842,0.33175435957977195
247.0458984375,1.50860595703125,0.20060249157755145,-0.07579995666089114,0.07030681514728875,-0.5834901920995998,0.000604051652748403,-0.4774386957003137,-0.19516238698634303,-0.1179567904833891,-0.0047974819165004035,0.10886759823624546,-0.006452337393792534,-0.006303400558422658,0.007910528213662225,0.123817830607175,0.016437691223979742,-0.08638530979095906,-0.037144643171661246,0.029168350998371242,0.018393042491621547,0.19879625187307054,0.2433642939635885,0.02548884269079033,-0.10628123042860016,-0.08308519569031965,-0.2049183587395883,-0.18134297656396864,0.021440551427703663,0.06588689829745253,0.17211709542207415,-0.15432924908031517,-0.05290134417565845,0.11057710996739076,0.2822516428521743,-0.25770075551498606,0.0576429146144055,0.15443667923911458,0.06107544788167091,-0.10754648357992513,0.061019936349276736,0.09100504350922367,-0.328431187392033,0.04866282524180765,0.27184388941095217,0.47852108153148387,0.24713684192171936,-0.036881781397198055,0.28483605160597,0.3831922429781909,-0.014026157233294274,-0.13260703960910514,0.24659238554842466,0.19826563831112404,0.05112385546889356,0.04274043798000242,-0.07847546753713133,-0.01979243555654701,-0.10287846169908732,-0.05386489216749095,0.01070110067591625,0.13403229155268964,-0.03836868503874133,-0.18332322698337503,0.06169657904285344,0.00618817972143824,0.33097452502769154,0.03438128407696568,-0.05276392970533607,-0.03478424070421883,-0.015336836892360891,-0.15181413263220012,-0.2575192153638487,-0.1528259852534288,-0.1657872849743834,0.12993904317814253,0.05773838393545376,0.32964033722870306,0.13098092967913227,-0.04107482847673362,-0.1716590548589773,-0.1449848649006747,0.034871362063096385,-0.29305682345499134,0.41910250147609246,0.164496700449087,-0.6792213884149255,0.35735639897279997,0.12059646516105797,-0.0025397876890099064,0.15104891250660574,0.07861812421337123,-0.08050391797236124,-0.10040896722861117,0.15786732594992448,0.08265644619329865,0.010458953214232403,-0.5270044786350869,0.5764198615351052,0.24030116474494082,0.3082690014235328,-0.633457140540501
252.40020751953125,1.168487548828125,0.1952460267345577,-0.7180465649381307,-0.29700618149612146,-0.15036185356125006,0.8076624770513812,-0.127920917774734,-0.1109798033653105,-0.097019738338169,-0.26884592661524187,0.010029712451482964,0.006157114717986505,0.01479349467520816,0.0006863079981638386,-0.0008742028905380423,0.018778108336232245,0.03829067129620589,-0.017492802266124784,-0.07245409843782655,-0.017860209994465,-0.10165512382064873,-0.03565114318867586,0.05733464771351279,0.0012036347687956373,-0.03787017971539815,-0.0052642761423536445,-0.2692057479987263,-0.11058009507882523,0.006341112937810988,-0.027320749002188893,-0.1311150222802,0.010485023408586246,-0.07735892682755405,-0.10938833938524943,0.015471536767342807,0.09495862522041534,-0.08909937946308172,0.018974346084423232,-0.11409134217430869,0.10325770241634559,0.319284771019451,0.4139431333430632,0.20824684657586753,-0.41855447617307473,-0.28442816794619724,0.39445376916014324,0.15887879251379566,0.17217257040840267,-0.07453520906441748,0.24222467490520216,0.18767968530880053,-0.2845998790786416,0.03626394387712589,0.11669132208362121,-0.08886786245151225,-0.12551014075433203,0.1752637577185141,-0.11388165374731862,0.018463141231630106,0.013644688528335211,0.022540547972262258,0.005344095326470197,0.034547978448689766,-0.017933647838606993,-0.05903723437247955,-0.009971093305040883,0.036861606830051706,0.08950255417690063,0.14171674967659534,-0.06147240816884249,-0.06851286694055768,0.0021010676455898297,0.060717632532150574,-0.10866987407401447,0.017658614172722818,-0.14555485019862813,-0.033627815303276284,-0.15992268896397097,0.06255491252356576,-0.09022740549335131,0.04212369432590499,0.4228937360500834,0.0569513592350709,-0.05078734897093196,0.09573691187422138,0.057180584049026255,0.28105234303798365,0.06938606690719737,-0.2570393193632098,-0.13902169007618762,0.3204396542628522,-0.025470736888134046,-0.12937519288302832,0.014236999001821442,0.17349545305103364,0.02280123866038456,0.2797585090946848,0.07522283096130429,-0.05331235546440237,-0.4466308635437607,-0.4399013208069663
253.56869506835938,1.158905029296875,-0.4531515888236156,0.09546338288564202,0.11835364004803045,-0.26768375120873333,0.6547880924785019,-0.6133148414847498,-0.18753928650817542,-0.04113284871267962,0.06817577416961486,0.0918461487592243,0.013241065062049143,0.06308952911070473,-0.012187280594503865,0.01817396089161748,9.565905042067339e-06,0.008697112589584052,-0.006328092872613479,0.08769677358089027,-0.06453962786372557,0.0034775812676290123,-0.07420639154232132,0.03986997005281495,0.05372067591957961,-0.09069083125785948,0.052429366773339724,-0.02174678450037306,-0.006999770943939778,-0.1068919189777206,0.04471559254809222,-0.06419914259011843,0.06275814594659951,0.14057275469895175,-0.0017142047659332374,0.14451085113819978,-0.09456544548563169,-0.05883276718030198,0.17837531977549517,0.6498741680124367,-0.07742716741143535,-0.08446484724572317,0.07429354590757715,0.20439777793726127,0.5360425259918254,0.20934593449040145,-0.23598213668095902,-0.06169939710361349,-0.01574695192803724,-0.3787278925627341,0.15215447247032182,-0.3097500623726154,-0.14524862293736765,-0.24899523596009987,0.04471052176152962,-0.04490888268022401,-0.23969497718766997,0.10911000928676458,0.07161711841708525,0.1516667932074692,0.101410678971896,-0.046562934390383,0.034784792308212666,0.09378228574338614,-0.023132765290347006,0.05764581625538269,0.050969813949959725,-0.05151080209146246,-0.09590986677315191,0.07623131138478743,-0.08194939395938496,0.06798026368594796,0.0029642793797596506,-0.2420718876472953,0.0961488511172178,-0.11156275620510644,-0.26006167502496863,-0.11325789184262922,-0.3073266121086735,-0.15712237593705047,0.11125638664606262,-0.15648287632754634,-0.15943236319096565,0.15634370675319242,0.05364291036943457,0.1277777443423091,0.35296192094426937,0.24170756078918776,-0.03066540601699659,-0.11395548328966361,-0.14386566989407037,-0.1719603738272652,-0.08701260253009341,0.05406765037613238,-0.09095396162961099,-0.060512848858844934,0.22275778342460012,0.47211982640077566,-0.009189860105452037,0.07289689259827031,-0.11891765712578979,0.14828903296427484
254.72760009765625,1.26849365234375,0.118855399753556,0.21130864025609133,0.2451085049513539,0.7976677858731812,-0.4506664157131785,0.14958398760660416,0.16540709119732694,0.1442890703222907,0.054988610085967254,0.030926074780223904,0.0004809173208728283,-0.03301836320375642,0.15831755256428645,-0.09889023656262444,-0.0021816252408171245,0.0016607464652336583,0.0728570770439209,0.021105713013930716,0.3437901432564845,0.10692231999079296,0.6899859635345658,0.006374712816228199,0.11476168012574853,0.15973818742582538,0.06667643851522408,-0.0835163407048113,0.041574952055194826,-0.13555326642337373,0.31739498646410447,0.2119195011505967,0.01852091835206812,-0.09390894548693804,-0.254240425499786,-0.20672544201509316,-0.08725580558298589,-0.06294687897836541,0.0985263098052787,-0.10088576937485359,0.00392825042871579,0.035639198482251055,0.2267623111927875,-0.1435522101340404,-0.2584899474883709,-0.21739122827013918,-0.6481187258783175,0.008068370971484932,0.5852108026256091,-0.11394841376930696,-0.2862872990613641,0.11164035104049676,-0.0046609624929504455,-0.09435460658544517,0.11776225358905226,0.11891089569624959,-0.22632169295922003,0.02240950404944375,-0.13272164551129784,0.008250981675421529,-0.006676520646050005,-0.04125891160764852,-0.15765012018746702,0.07884583034583392,-0.013534250014125808,0.11453273280908267,0.1525523757519753,0.023015534877773768,0.05403485725267626,-0.041433361571885895,0.06833857561212907,0.1613649131998845,-0.24732884596660737,-0.18160907849128355,0.024568887280514266,-0.1455247637401988,0.3414356739587794,0.01204318209740416,-0.321854566855892,-0.08730662172877593,-0.06133920794709895,-0.015409391361651925,-0.057385939327521424,-0.06992472705817808,0.031452288135700016,0.12112966495366778,0.19629541975113013,-0.03433825638565805,0.1059543866378127,0.08234048058987727,0.04264508104429618,0.1086759171838597,0.0038687899725133065,-0.041290977865316866,0.11409167456719736,-0.11041731389115463,-0.034395221674676436,-0.09166019751253272,-0.1804571839488801,0.17588205142995492,-0.13094076648678313,0.2471315591690561
259.5716857910156,1.1688232421875,0.3655388421932133,-0.16178939724956576,0.030254152286028638,-0.03650575910162901,0.6254324323473692,1.086768106971616,-0.1834198807003713,-0.06710044615506619,0.041466739921147425,0.015046523292590024,-0.0007725299062499866,0.09564555791017747,-0.07365521497511149,-0.08839928255215647,-0.02064957031408247,-0.037903646625210154,-0.007367673408006295,-0.02824278090825369,-0.15601376315652618,-0.28363569436224334,-0.15358790099010636,0.0940822998788995,-0.07509544291548048,-0.006440712455493963,0.1418874645721093,-0.0020392283490451857,0.13617426809718108,-0.07313900263973507,0.02643588010011838,0.0043504050190917645,-0.0230731652186283,-0.005786520180622905,0.021868062453119123,-0.03421087807377059,0.12098495272953971,-0.014331374582823495,0.005191902964647027,0.04819669316300501,0.22005895697472388,0.14886476218954361,-0.4875260277892763,-0.6511486458491628,0.302600424629696,-0.6581222640681634,0.007706600766774138,0.020084593567858383,0.3618240178659993,0.20835697582809598,0.40993948688006465,-0.6135573363328921,-0.2410003468731339,0.04008075128442347,-0.049985779446641454,0.0556357515280306,0.0423064025199521,0.013155339696710861,-0.0721607206878807,-0.1071240377751413,-0.0517642631110595,-0.04100557819622681,0.11590897311979814,-0.04247449639455313,-0.1076716166413015,0.0645810844085331,0.020964695052884372,0.1363946554592255,0.016977209557757517,-0.019339717544545873,-0.0930483240214437,0.07536338821064928,-0.04764427204872858,-0.05240250228459022,0.13145018572139924,-0.23285499272039786,-0.19882509699071851,0.3602262222378271,-0.03267066323899538,-0.2782105627455983,-0.08070230354422389,-0.054362082635225226,0.021110058304059574,-0.03431515290466873,0.08077127884232778,0.1613514593489275,-0.002167442974407284,-0.30355728507631224,-0.06684858237816152,-0.09942942344534075,0.10237111609338483,0.03890998015556506,-0.0018212155428591163,-0.029326210860384404,-0.0008956067570888284,-0.0296571471430971,0.08548826089952216,0.06264292875521002,-0.08157500517320472,-0.09327280766642972,0.17699346126558466,0.614435882596305
260.7405090332031,1.1785888671875,0.3224555419737709,0.034402011480463277,-0.6452826989520036,-0.3266809154812975,-0.00254817650764326,-0.2537910097429511,-0.4946470750894734,0.26676742332081077,0.2300222336159774,0.17403303896495634,-0.00898535732262497,-0.06537338222693881,0.01110039531189111,-0.015701946857434933,-0.019684493419215163,-0.007547262831790889,0.010927443098198122,-0.001300864037663494,-0.07530251991111733,-0.060320015191426636,-0.11496025594306077,-0.03601718135100727,0.010422866406043625,0.07798596765031568,-0.0416243646754167,-0.019627656444940578,0.010708675228755606,-0.07033754261094181,-0.055884523757642364,-0.11906100626610688,0.09766072043051202,0.1624618529442118,-0.08644371609186155,0.03578780434620986,0.13317481294134756,0.03251841639845162,0.22108516680789497,0.15796591415792202,-0.09985262025499048,0.0023083755442523963,0.5821406111204063,-0.134792738131438,0.21108761278156266,-0.00018075741194373274,-0.210071347361446,-0.28133876552528664,-0.03403782878878353,-0.43056826874123005,-0.4641482672156096,0.46471571014610846,0.14654599601734108,-0.06533910340195499,0.04020930415801025,-0.09777528790195318,0.03272456492605198,0.02897612443961836,-0.019867833577139102,0.020741461733045006,0.07102533084463501,-0.0732192522487754,0.008716207581927725,-0.00604035197836916,0.014333005427419651,-0.1611681969982885,0.10030326487546186,-0.03845278156341622,-0.04963031577337251,0.07856294529301874,-0.07582692289784813,0.02355723911809834,0.18828613654582171,0.2178124366199711,-0.07221221668704082,0.10469137008848167,0.38260318620473965,-0.04470035186293579,0.05016361795008305,-0.11575599956762986,-0.07080519486856844,0.39975999052843714,0.22190953848042333,-0.2961559900738016,-0.9414959475181269,-0.2380188837454498,-0.10344986703667527,0.03916254505658986,-0.02715591824115217,-0.3257870222359087,-0.07203860790792288,0.005562867378381775,-0.12534316693676154,0.03557236972323177,-0.048950291628725426,0.015157538167300463,0.22813273903118578,0.2622993129025782,-0.03357236586657325,-0.06226896990621866,0.028885543032173583,0.13083685633996828
261.9190979003906,1.1986083984375,0.15282795326533177,-0.22034703278571388,0.023938295889968125,0.3212052687214464,-0.6336597243732779,0.0401736166198514,0.2776136767672545,0.10516622453364495,0.00022937705856785565,-0.07072637614611961,0.017089845359757938,0.015483719146498912,0.05591350685550298,0.03858154844081756,0.0773700743190745,0.10406150875235899,0.055901900354911556,0.0392689023993359,-0.00628735701817114,-0.0714279680527133,-0.23802991831040574,-0.030537114357740383,0.10601761328583378,-0.05012110511023122,-0.00784560191165393,-0.10260432114281909,-0.06034952652986331,0.0031940895839761146,0.06320264316279983,0.02833744721281322,0.08918617544186436,-0.05825995624122486,-0.09096048779873801,-0.06809730445759367,-0.2725166827025681,-0.13820580821680992,-0.04166338264429265,-0.7370318805267774,0.5348907187053189,0.1900087045465314,0.024217583514511226,-0.1936614448467304,0.29679918700546026,0.002353667371795487,-0.16015400956514156,-0.4645012847004161,0.1537475081359842,-0.08714704156497266,-0.007096300037602887,-0.028810378571149528,-0.06847126700962103,0.016952485544272648,-0.21607287287214388,-0.022791601980940216,-0.17830998354577005,-0.103213014286129,0.014120369787971512,0.10340817942493963,0.14895708655788487,0.02441708912318035,-0.11262414646652795,-0.03996739697285395,-0.013498449400227796,0.0156765227334925,0.09551684483284342,0.014325423080539827,-0.022514062426531666,-0.04471720658107909,-0.1751881292080983,-0.07312930510286708,0.05637180804271967,-0.012697474041025239,-0.07495753318345351,0.04756806856864848,0.011917425042155774,-0.29313368598532163,-0.12023577795765161,-0.2544466863837135,-0.14204530304274116,-0.22553102194563257,-0.35415725154405664,-0.12502972061239676,0.06631885864261748,-0.495977017561124,0.3610337415388042,0.3983172274154375,-0.21559434743609174,-0.24562648399221287,-0.041235444190593676,0.005726034029591723,0.04190360011319115,0.06709464298414519,0.10414508226591229,0.07860683276033098,0.13357799832973943,-0.04099121768038283,0.11826958225723957,-0.07449913498057018,-0.32920725687088465,-0.5530611842884665
263.1177062988281,2.696502685546875,-0.12472393219378897,-0.10062729297310506,-0.10978513341807136,0.9504191994325597,-0.9134655132936321,-0.12329245296134575,-0.07585270724249896,0.13579423615245842,0.10860628648650975,-0.15981819818832008,-0.03742558010368114,0.08049691496755874,0.05397647565444723,-0.00873429040704784,-0.05176121090476159,0.029849593730901562,-0.049716110853120526,0.057905728204292094,0.2016783975743528,0.0008828263280302065,0.03694829297740089,0.05467109412348752,-0.08263925145694784,0.014629194233745028,0.007304227110901448,0.018162719601809003,-0.07881674703415367,-0.06777152994239558,0.10969643719732615,0.14218071415675962,0.20890467193006854,0.1199933335117444,-0.004365548179615799,-0.026718832871659687,0.06335934776998421,0.1474522883791517,0.20335504797104423,-0.30957610206390473,0.21134593648232242,0.327966817078758,-0.025106334461550882,-0.3169652391932881,-0.2538093211283927,0.22084580336406495,0.3689265015432203,-0.03352375686830607,-0.5512698282162981,-0.04768598136649893,-0.45966501783466596,-0.05728122685362824,-0.20344306839294563,-0.09507271997286779,0.0845571400821731,-0.04136544730563824,-0.02154209099532034,0.01803461569713447,-0.051879344092107045,0.010074206775019249,-0.014305853078324495,-0.0066195099686564025,-0.008947923303021525,0.06638408966844507,0.09683386101863709,-0.022104035590331653,-0.12983481831216534,-0.029256386245039352,-0.09069793406929968,-0.020389936366992364,0.06928199226215795,0.02800153794127346,0.23415472623631645,0.13846721335512968,0.039101588322223726,-0.0900580335964825,-0.0572577358263669,0.07976487374613449,0.2423634675328808,-0.06960107682536792,-0.18765131952502623,-0.03417419554881514,-0.0713800690422118,-0.10522881332388236,-0.1132713832406838,0.19801083575527353,-0.08647286610893644,-0.2539049603762571,-0.4167203447450401,-0.0519617958905365,0.18524125198683433,0.03982789399223923,0.04790942285440467,-0.15107130518853112,-0.05369022557481358,-0.05144983975243067,-0.23088844255758245,-0.37878924929480506,0.014887598299006544,0.24443531039846692,-0.2924813426725487,-0.0649397617054453
268.23199462890625,1.1787109375,-0.3255963211898941,-0.05495968771565188,-0.16227981640503605,0.3256180187743085,0.413763032578799,-0.17711519666376913,-0.11398699492104286,0.3245354860931201,-0.03533961011945498,-0.009738612087699255,0.04310616924308257,-0.01022319806241026,-0.07270498521117978,-0.2279264787883474,-0.10690931385436166,-0.08137145902444051,0.18120539232106364,0.004844225781493536,0.02511804586633608,0.12392301366999955,-0.046518699110643484,0.054180308952276726,0.258138525773481,-0.021461702133410185,0.031754142733980334,-0.08302482716525436,-0.00220419379983607,0.016594281874444228,0.0494709287087687,-0.10189107044282648,-0.007501504504010333,-0.13665564453919607,0.08497929551883895,0.17925664546725129,-0.017484320561933518,-0.1795388771710825,-0.19689407567522144,0.06311158585312732,-0.07275321185421395,-0.5591341094453621,-0.9083575779580475,0.20027578418410336,1.0407875509941165,0.21277031483678485,0.14462294509419987,-0.06577997905185921,0.03764917677984474,0.12773472634519006,0.4415807609438761,0.35113419690090225,0.2910823950797144,-0.09533289053813374,-0.06724577374550077,0.0396437376294334,-0.06461318484998975,-0.11665763994106329,0.017931654910922547,0.017440913925382863,-4.93689101885499e-05,-0.043635012864564615,-0.06070507101605507,0.04752029089527668,-0.11186511694985977,0.02481330211212159,0.04693503989621189,-0.05666223182055341,-0.08734713373580566,-0.0530500390067539,-0.027120016891670238,0.061237076775027696,-0.04722837625231414,-0.06521057649459282,-0.10936947372664155,-0.03439765549623021,0.03746485318133205,0.2273660299611306,-0.055828710750882776,0.023956995530215443,0.4345950683342032,0.13200902525137034,-0.0695164614768666,-0.1591735885744389,0.019024460717023375,0.21689746329056017,-0.1362091827764138,0.318568779020368,0.3866131870419804,-0.23923516849445536,-0.2603203057814934,0.06575850993336728,0.028365935826746996,-0.0036041046245998743,-0.07590210820417315,-0.02468436713727115,-0.0838046707853798,-0.08030036661659364,-0.062180771137640756,-0.12087115265177432,0.12208117222268337,0.4753713771911653
269.41070556640625,1.16839599609375,0.45255955800253383,0.38560306494946195,0.12202283436579994,0.10534276462433959,0.10818189042472097,0.454392357608968,-0.3272322657136559,0.028613223742456867,0.07173001336664898,0.005995084303519376,-0.046266842237227095,-0.05000150975489491,-0.0053512337631465064,-0.04909858734245285,-0.03482002273198479,0.014702967979071729,0.08516648298042125,0.007312238833411963,0.029451356280522385,-0.01858696381122625,-0.07357611359856958,0.07389984257119533,0.05589885121352267,-0.03992091309340017,0.07858810518639191,-0.0510444434338641,0.019301822061947513,0.13161254048985072,0.1184704296695021,-0.2611259281336089,-0.02753940550220141,0.06663755687147575,-0.06288661436071971,0.3537557245593105,0.17570477888293667,0.03499127991907607,0.14721209659192572,0.7773500747914027,-0.18124606313082636,0.12352182197531644,-0.19226711105820116,-0.00883596535780462,-0.022202422271665884,0.36528833528673443,0.7385697022398704,0.2441436234691258,0.13778524792041694,0.42097875603543117,0.23440946231748333,0.061357842828449624,-0.39670530662346815,0.13652624965995444,0.3475329395155542,-0.4252879249766222,-0.005350580586291924,-0.06855568439717992,0.011278312778287936,0.24574833557534356,0.06566367660277468,-0.08379621096522649,0.07743748664671762,-0.020522542229268942,-0.020321992944038074,-0.015404938781746457,-0.0014376230856240424,-0.024377073415396938,-0.0944971219107107,0.005214073804406035,0.07209253348770621,0.07027978340277748,-0.10826478429481445,0.010653204517071786,0.16699458476996687,0.0010359402460391742,-0.12544777267957302,-0.2889265676494638,0.11254943552223134,-0.010119301919439803,-0.4204650704382497,0.24429255502744598,0.2469889182105715,-0.48521293009568045,-0.16686656635402602,-0.0017561131860034422,0.31893509009993654,-0.19121265910190743,-0.22507108077823465,-0.004434251164137048,0.27555714595619735,0.02497887945063701,-0.05903108556278508,0.06415062069587267,-0.17562681684844023,-0.12231392064037412,0.054054483239465684,0.02252514254478201,-0.4078667977239243,-0.15120059404368016,-0.9074353562981775,0.14707745754828505
270.5791015625,1.208404541015625,0.35241939851922544,0.3739321052865981,-0.6768614717293934,0.4271526701025414,0.7424906549078769,-0.04891374597954616,-0.07379536057825326,-0.1759730476484829,-0.045480482311369204,0.06705466303491582,-0.05728359689250909,-0.07988894629424309,0.06509421161470376,0.06519633539260793,-0.0029453272547951452,-0.008045632530579933,0.018143435561764926,0.05686914429375242,0.08519222810949298,-0.02251494220648456,0.006795823778980414,-0.04381931548830446,-0.19201137085507614,0.14799262329309434,-0.0013300189867822554,0.06155001132773449,0.01863598589806375,0.14663775098885076,0.11049538410050974,-0.047054719966350314,-0.23778279730520732,0.017795514882283838,-0.09228000747176017,-0.00914872578404442,-0.09396701361647466,0.005173807781396848,0.04859288066775519,0.3796987987067991,-0.020891962451491643,-0.11983390148643738,0.48330632331988277,0.11644311066975363,-0.08941695021371297,0.2521100377122265,0.5122479145655817,-0.332216007386811,-0.022792942188502543,-0.11425551277790807,0.452962155973857,0.03655453992475132,-0.04373067970064391,-0.1552438901373627,0.04115369330119891,0.13373240441737358,-0.0776146552759084,0.04997211574438127,0.08130712754347034,-0.055996462493169745,0.010829246930874625,0.16277604610693888,0.02259853822015101,0.10869923728099404,0.12080105764642765,0.10158498746793639,0.0112555939597394,-0.0102181056944937,0.07035447938595352,0.0866547088948793,-0.16292650694151786,-0.047102811552523494,0.14874690051625325,0.05232820266086631,0.01428290074469235,0.07557129320589076,-0.14071691700662534,0.048776592660229365,-0.051651670321817514,-0.322982402453134,0.27465867281054135,0.197034237562029,-0.21253641813806232,0.23837435250699657,0.23403033185552932,0.25286688906774973,0.18374922419306314,-0.26706136310236156,-0.061985566368779825,0.010619081252698618,-0.0398210130757605,-0.09615195867020282,-0.12168533008823841,-0.05552650744032229,-0.019943852444954155,-0.09352519359010478,-0.07843160475954808,0.14161651704104514,0.03292716405251697,0.05022445725030481,-0.26544316755598013,-0.0730308331488661
276.9418029785156,1.178802490234375,-0.4815244988758509,0.14969555382319175,0.29403825608966894,-0.25262530568670455,0.6925795747778858,0.21185209027092217,-0.15741888643466703,-0.191482281151448,0.11282738591118535,-0.06023442766453361,-0.1887161733003334,0.06487189636351517,0.07157589314883155,-0.001988473205654692,0.0969645123941106,0.07017617426012449,0.026891673830907965,-0.025066700942843762,0.009504939048292305,0.010602442752756824,-0.11469002024893005,-0.10060467478953308,0.17860950168972778,0.05340289477467357,0.025915491485562023,-0.019460065413236773,0.05633792156789885,0.044267377010362666,0.36060322448932425,-0.08730324791082224,-0.02388876553933579,0.12277956640739332,0.12181766760165225,0.007086566288163249,0.11280690586659534,0.14758830737703743,-0.0869983112105342,0.08953309022790722,0.20462229578800017,-0.2070172989096223,0.2085926355248237,-0.3362433859485253,0.0875579495891738,0.4579412985172977,0.2703718283164363,0.41838420062115345,-0.02312206619562733,-0.09035159902131888,-0.3383452640065654,-0.5300139877912754,-0.36751036115467595,-0.2689541271105668,-0.06309906375072033,0.22817427320555875,-0.10902492641001427,-0.48275009520850326,0.15568662510111111,0.24116056139825012,0.054053088255651346,-0.06296581210127382,0.04558303882587077,-0.01088008320168984,-0.10551282966103162,0.19597742929724765,-0.030274711599193968,0.023580082041768494,-0.016316085009803704,-0.04262634812314102,-0.043469729780887444,0.07054557220910995,0.09325336449785752,0.056378681111445166,0.12550745749120698,0.14795205768081357,0.0008151249259278886,0.054382794217801685,-0.023512152497265206,0.06703210424141497,0.14338492566942984,0.048414322445298294,0.23298760260697354,0.11939715118651617,0.4683541826300356,-0.3722713280897064,0.3610319406015077,-0.015263215742771112,0.033879531064240985,0.037810989103955306,0.10273339031541023,-0.06987653431390596,0.0043349970476429765,0.07782118008378835,-0.1185495266114315,-0.005262577937650351,0.03580757850358334,0.013704417067403399,0.10071641781337662,0.2594462189327885,-0.06493296618505387,-0.30735379189721873
278.12060546875,1.1785888671875,-0.3014258631452626,0.10144678276620017,-0.4713677479882154,-1.060626094460134,0.6026481079421845,0.10676186162359874,0.26221170503112573,-0.13962033071242777,0.15355385465426002,0.11439511331658146,-0.12020789749937012,0.06794605516906692,-0.08650367103439645,-0.05123966066155969,-0.09817790447224078,-0.09689175345027398,0.01908398129083763,-0.057842936433261244,-0.0006135267920881326,-0.19026798212894802,0.1254763720528076,0.17026692422524947,-0.054463373692322854,0.025251399337479354,0.2991362948760457,-0.006634468620661788,0.11856309692970793,0.049155842438190225,-0.06346914780817714,0.06177741875832833,-0.2037558497916371,-0.03447275725816325,0.05067527657356549,0.03853015514193924,-0.015058609531090696,-0.08196883960926298,0.050126660936090105,-0.34504979533454977,-0.4291137321199612,0.0017483183797969088,0.12661427371909084,-0.26440162312400184,0.662406928379774,0.5033881000808007,-0.2531181477099656,0.2871365564222421,-0.07689158675132192,-0.380812081320142,-0.18738602735312448,-0.02329621609161925,-0.0731280967776153,-0.03623245590964207,0.01385251168961856,-0.12698070908678757,-0.14056749826920423,-0.11132208257012334,0.18860147688053724,0.13895699371460726,-0.010621285526692049,0.05852370137531921,-0.005613312031696135,0.03657880472387388,0.0753603304741422,-0.019863568022966512,0.11174051070244286,0.022420861148085953,-0.10394404213480457,-0.022208732693340106,-0.0017443504061525963,0.03457344955833455,0.04898963300708789,-0.08630002961837335,-0.25133596639134514,-0.066654787423983,-0.026509480822509392,-0.24462325122155176,-0.022571926267520838,0.04173742296318685,0.17581638307149272,-0.18161416857690107,0.2404361648523565,-0.001768029074268082,0.02146319609716652,0.023297179679943242,-0.009598155860145613,-0.034636087848452554,0.32706804203576667,0.09241927705468064,-0.022032495729070237,0.060486510247652725,0.022903728284296248,0.10980471668203426,0.1559173149719979,-0.04724060187489612,-0.08824751112130425,0.15448895872411927,-0.023487808947886227,0.6134043002873133,0.08811014054941471,-0.004508237868565412
279.2991943359375,1.208099365234375,0.011725509938525218,0.10545909773163752,-0.5270676004524211,-0.08296481985045627,-0.8174403402662361,0.8286089437339661,0.11027780216480305,-0.05591257486325205,-0.13616558498231385,-0.1899945232455193,0.01829095399402916,0.025260323662778607,-0.005919447122165517,-0.002532328995830682,0.06676703913362526,0.04705072375566357,0.010351505368309763,0.08224235385478519,-0.007995533493406582,0.1001110367212581,0.07868698987783317,0.13827632882895277,-0.13749603663118412,-0.02370822784374954,0.06346642294805249,-0.013243950156547762,0.04847351047382098,-0.02631627288369715,0.09889002661394905,0.043922570578523605,-0.08373788487204498,-0.05483631568664303,-0.048593217385521734,-0.022333075611496157,0.17898606182534205,-0.1738964515935831,0.05409134834578877,0.10986715498003363,-0.15652825740853585,0.11563983495657812,0.4153383047542314,0.01854218655531378,-0.5865254987106753,-0.10351760152208642,0.16871421670809186,0.5613384895615416,0.5040208252786024,-0.21464142210815856,0.2646671975694336,0.1041471144535085,0.06852194555340671,0.16396483760404912,0.058866774820668696,0.015670875785436706,0.1067704895215479,0.07028934013263416,0.05968826801481583,0.09347203789077319,-0.01638417482778682,0.05207616655676207,0.11013078204521477,-0.0364816923110536,0.05237543810182332,-0.06164458470647706,-0.053827737290014444,-0.0060978278151533095,0.10508822736342871,0.1526174396358977,-0.02363531033469507,-0.07168393881164292,0.08812839169889163,0.20630417585614053,0.0359899518850091,-0.04307047196077947,-0.16471313813142713,0.10082757264010832,0.12810404958349886,-0.17343403746254743,0.006607312968364594,-0.053598624026853905,-0.26486404129092883,0.4799112065170356,0.1564791942891986,-0.5662039086948139,-0.22834201104702462,-0.2228911867858469,0.031705669679815904,-0.09502365166182411,-0.40262891597976214,-0.04163231456711004,-0.03503776200192282,-0.006358190465371559,9.264478657937153e-05,0.055704470705660834,0.07750479394563543,-0.21155068625978113,-0.2968838161768389,0.12466046846064444,-0.07207790489709734,-0.57227106385542
280.5072937011719,2.66729736328125,-0.4060412880066691,-0.27026960233477315,0.15781843612596633,0.2433468883742585,0.02644793488657022,-0.09613134913002509,-0.21590046762996765,-0.2740012301066775,0.31378957053559137,0.03777177559669641,-0.06785497423045464,0.03652013956259615,-0.15154041374674768,0.04247893926457661,0.02518037707915307,-0.13554885947816903,0.2598530310188912,-0.1046827238272568,-0.11588217167318585,-0.02413252932968176,0.018986035485619272,-0.05330454951309614,-0.008287091859146174,-0.08803888663814156,-0.32377413926812765,-0.05537201583930323,0.01539006888682938,0.11443647151553224,0.0017264177642021808,-0.07260485792660848,0.01215479407880992,0.07238973930046123,0.010991727152609515,0.044159390757473535,-0.0012051520448556896,-0.18655105020115473,0.03156874098162893,0.030050687368567537,-0.11441140765530143,-0.08214831178279368,-0.12278924765500644,0.33350552026092867,0.06772584796391443,-0.36360650334485,0.016598634354391323,0.1650776614600975,-0.30406666970534724,-0.24765167093922733,-0.23024452967684578,0.07502489854141231,0.007365183524006848,-0.1676757460876576,-0.07039584061329177,-0.10472568123533019,0.023090678259572516,-0.026070163346672014,-0.018501056216906443,-0.012642979930603988,0.07482893400165065,-0.049079173612172546,-0.13838967913821504,-0.04005754725118808,0.09459349920013559,0.02992917649664137,-0.1627337044137761,-0.15434956937959507,-0.05263485423236021,-0.10089573643978747,-0.06535229426399358,-0.0467260905978175,0.055555175919318786,0.06152690542314049,-0.09103055006004476,0.014075324965328317,-0.08232068099577212,-0.08690588302696724,0.07995276845521253,-0.10002458516372979,-0.10569063156767992,0.22372746349051337,-0.20026819573306426,-0.07328714941990438,0.08855866222359503,-0.41156284358494266,-0.022062047582868893,0.37371113359706204,-0.033465127269419956,0.16546065599519338,0.14650466925946554,-0.00993416688298663,-0.05570694101709196,-0.0189947687679186,0.005572955466159185,0.1636735967238995,0.09771996331112959,0.2434405287485873,-0.08587804754651328,0.12801755762108535,-0.022312602248209676,0.6794534432737088
285.6015930175781,1.17889404296875,0.17534091020700449,0.017599717958579147,0.0843784769109226,0.5244340704139593,0.12250961494025288,-0.4392103166969855,-0.9043334043050828,-0.2583537704908325,0.19603501783360217,0.054057150333592374,0.051338198486507385,-0.027531850196030445,-0.0033971349413182417,-0.12871789252587584,0.003695230846000159,0.020935691714795795,-0.05410246931334882,-0.01139339179306503,-0.0031694584818479175,0.04344160511566096,0.16199951684247418,0.29244898321882246,0.06476833565977225,-0.020763945729921705,-0.06908375479822225,-0.027645997485836363,0.05286682058829566,0.004346928505226066,-0.07201487548255553,0.043214675927037094,0.023184471614468245,0.021535510785824722,0.4201808981576901,0.08358974522018363,-0.14114134259054745,0.029459589574157955,0.033458397592523774,-0.5614222295368528,-0.7273160695050972,-0.28321862425448247,-0.01254682687715171,-0.18758906700541045,0.1705990204405422,0.01234289237644428,-0.6460186741113025,0.01796857745610797,0.32573195018872947,-0.1337595624978918,0.5116527367473458,-0.011684737932908862,0.025609865150562218,0.13397582969618546,0.16910754502601216,0.0685723884433589,0.014645650883526854,0.03794546446949719,0.1713571072174059,-0.04883926462723806,-0.1349362627241161,-0.03231761517365126,-0.016569487640564484,0.003052064587149725,-0.027432087463369607,-0.02435316892058552,0.03068795863123283,-0.13799725130580534,-0.08417151162955225,0.10605013388808134,-0.18662054917131993,-0.1942453323883906,0.0020458932143788073,0.04182483927626468,-0.1448370721625091,0.08038010062870216,-0.02415088227192307,-0.05924275819850463,0.08663977445765686,0.1569449485177906,-0.29663501814289295,0.20911357427480706,0.15303610767404385,-0.13137508135007256,0.30747412129037865,-0.08051636039064794,0.12570357390486736,-0.16435522328498353,-0.23870554985700815,-0.05617548072959772,-0.024141046556264804,-0.051585416175775084,0.02247918763047432,0.07757840984015363,-0.04313115038928193,-0.049021342209010874,0.1018077248192128,-0.16191448432670894,-0.31977925645700295,0.011243670248425916,0.05369801191506198,-0.13177194675748638
286.7804870605469,1.218719482421875,-0.00789196385277205,0.44093308850093554,0.1504414100031472,-0.28435726424840996,-0.01915301517637656,0.12332178391770446,-0.11787682371143476,-0.007228328556691603,-0.0685219223997258,-0.2442016452616206,-0.1265832715123066,-0.12024527621796773,-0.038054890350452356,-0.005478689290810926,0.14368467054399672,-0.02012912260622476,-0.35596893640093014,-0.06855110249869623,-0.23964072957213642,-0.006961286652236572,-0.022100979314928958,-0.0538988451362869,0.019061881393644453,-0.06381269271865571,0.21944206481677248,0.15727895930176586,0.07678652324181476,0.09243654255058874,-0.06710624963209252,0.2076236178778337,0.004647757092317728,0.07051009289104763,-0.056254284959189244,-0.05066546101800788,0.010085378639737977,-0.10894670563088282,-0.046280115267945926,0.16743542152196145,-0.0035694863625390025,0.3667678755720386,0.3716617453563368,-0.06593316772177112,0.3025223262971266,0.6545462996646466,-0.3549595563387098,-0.0695767004069924,0.07730453740901938,0.2591572456517727,0.1327337587511908,0.025156416577656493,-0.19705360035810005,0.09477155480992343,0.054645440227017325,0.008398484486032316,0.033428979064968174,0.16506023363280128,0.2826032083107546,0.0588070841482233,0.007741966213578104,0.11010050408999023,0.005517570516235332,-0.049902738462868586,0.0003114473951046151,-0.0062866144434544444,0.26612775792270027,-0.030051913571124134,0.10688467598668389,0.06268226320275781,-0.117404095407635,-0.05788683383100816,0.0068962898435648325,0.038704911021170976,0.15493688336036307,-0.09886579526437393,-0.01745789025718348,-0.07955582541640932,0.1475088377143839,0.040942485485820905,-0.4434523626926562,-0.075982900604624,-0.26459279770025756,-0.14135406719232002,-0.26092989695987046,-0.23578601761418805,0.1273800969439316,0.47364946829625043,0.04733331535131504,-0.02994273324747288,-0.021136978589927507,-0.11029226635621611,-0.013558281209229483,0.06654448090050849,0.13514620428706467,0.17955089914404163,0.0840084676372686,0.29798715474738785,0.1478811592677569,0.11399068779340206,-0.08689325729603559,-0.051090168842577194
287.99920654296875,1.23828125,0.14554446260616305,0.532670486965994,-0.27916486759605996,-0.1268801285903991,-0.31136054076374897,-0.05925065078027482,0.32011262441948446,0.011376930533991272,-0.2884071195290357,0.03790818164180457,-0.029236432508276997,0.042913088415811755,0.22860347926306845,0.053078006694217826,0.004337024590400468,-0.022027800643855122,-0.35529165277397606,0.152321347146438,0.14299456574238711,-0.19097174540534817,-0.03800710994965916,-0.0004114493733848633,-0.2310367381768969,-0.2373148561911776,-0.019859123334102374,-0.3010640324020101,-0.011499371325038907,0.08184774200212556,0.001415657002263408,-0.07372061631874699,0.019066574826212462,-0.04529986351892095,0.006555150210317094,-0.024978347007691342,0.0881410200155181,0.18922135194310002,-0.07707009662628078,-0.001966388683427814,0.27507247666304835,-0.3500671254274976,0.3500448466982755,0.08719008807865036,-0.13258947382336678,-0.32586308654730617,0.3319965416984375,0.3659736498576134,-0.6426112059151493,-0.14586591555743803,0.1800512169994357,0.5362429785593092,0.04606733962897182,0.2789591937275452,-0.2064413003859789,-0.07864486796414133,-0.1279692672507777,0.057461170805732965,0.05102626009043219,0.04984643247748092,0.02307545773195445,-0.0014912720368828458,-0.09812832839035837,0.01419519202380596,0.07767324930629609,-0.0862258090564937,-0.022394078232230507,-0.030703973451871477,0.0540775890796693,0.08876317386436183,-0.04661779595409121,-0.0853783964637143,-0.048082757861421674,-0.008090593598965065,0.054616345130285376,0.011205325293872807,0.056442176683346626,0.32739920469347483,-0.1508656194167911,0.026860538530760224,0.19343025860450921,-0.3134703371392672,-0.1809399403630111,-0.06826343302736115,-0.2181619881349968,-0.029176668661817933,-0.027562723047597992,0.4208635749275068,-0.21532509685046078,0.014182507103543702,0.04384260309361768,0.025963855283628254,-0.08998338666324956,0.12504266613547607,0.3434277398426925,0.06473136281328817,0.004113943218575786,0.08987922408792363,-0.028121166234377454,0.13203310866954673,0.12389808421256308,0.20582950873039615
289.23748779296875,2.6173095703125,0.17101441228071532,0.08527041691289267,-0.1128648785179669,-2.177918211529038,0.8095981643283536,0.2907657569219454,0.08341335624080355,0.1195723193342367,0.012380480020201989,0.05325412343617275,-0.0090918794135523,-0.016409059725614725,0.035230682674942546,0.017145515560604382,0.047361256692112504,-8.68786788473068e-05,-0.024283897869581326,-0.08618660193164773,-0.017930785869430935,-0.07020110562969485,0.09071970098505448,0.04057938685335774,-0.017369642734065906,0.0739022927526445,-0.07614592725063893,-0.023687879848380222,-0.03399390751727008,0.0846121197349028,-0.009718677028708118,-0.1320474825096255,-0.12415032716456259,0.07201604522518269,0.13312249613095659,0.0011413768210409292,0.04811130090240534,-0.1547332007100968,-0.15523558652510944,0.007487001184323338,0.10833036417878555,0.2823461618048473,0.16625540262474836,-0.05631072093826304,0.022725441463196952,0.011706202914722547,-0.1508888958223456,-0.3132821983923406,-0.07763274354194155,0.12419784855171723,0.011043553240339956,-0.029223798053059226,0.11385260687282668,0.1769611445807966,0.16766221734702924,-0.08741352131762692,0.03965100896601944,-0.022228192678207196,0.025074613586130834,-0.015726284599866438,-0.0001797054855497406,0.02328208089244823,0.0022526355876010535,0.06760162240921011,-0.046648271557123325,-0.025039472346284744,0.002179032750374666,-0.05750749643106928,0.0746305658140535,-0.00021696176868091221,-0.12261519507668661,-0.01704063764416414,0.21597549707577315,0.16390316463821192,0.02007783601670663,0.09790108949430332,0.2464959237877222,-0.14216767875375358,0.246217551973347,0.10919750557039064,-0.1085356588890206,-0.24377693739316147,0.20128380628877007,0.28313277672928894,-0.21179530218171808,-0.034594755689280984,-0.16362151807050646,0.1144025059317359,0.21373324430927365,-0.4124200236655636,-0.13421439707415322,0.043233578690557294,0.08769140640772771,-0.003104409903279537,-0.10658650880946943,-0.1553597575727611,-0.11863017492160444,-0.104606294214756,-0.2177736300988678,-0.35722551407305264,-0.3484911871184329,0.44552090592150256
294.2419128417969,1.20849609375,0.20183599545274078,-0.00818470720301015,-0.9353223754611129,-0.9005303486583905,-0.6220671036708212,0.2642392073270215,-0.03791161906915509,0.430305217312431,0.031239883692929234,-0.04882104063442393,0.055134630591345504,0.0796370897620799,0.1076845754909579,-0.028675423225724035,-0.030889873870618353,-0.0271557895767822,-0.06583560213178086,-0.0920519876961271,0.06293550334225839,0.07441756912567762,0.27925015935745284,0.11212340768144902,0.038163350485474715,0.056920221643830045,-0.26147644427667266,0.11044047889785727,-0.06823780606041253,-0.3830369717249857,0.38454310190336816,0.08573342904076728,0.10733989127775098,-0.042988534607218104,-0.027911266191188548,-0.07499462808595538,-0.2591853761947248,0.11278817374236638,0.2880185718662127,-0.2550824725217132,0.28278195423537805,-0.5562203275802531,-0.40636493900331766,-0.10078973015897054,-0.11833369827050536,-0.7920861002152036,-0.07815602219050526,-0.3532421369719721,-0.009999485824187568,0.3877816913866491,0.19651301024879117,-0.11901950963467971,-0.14453671709401006,-0.13065227357914885,-0.13576995392181834,0.13171378873349243,-0.030792189751462987,-0.3554340454959916,-0.18836916541268134,0.07349041481299391,-0.031630737215256034,-0.012024681376906633,-0.06883008405510574,0.03264165184014612,0.016402878065841404,0.1699210067393696,0.01602971322323906,-0.02204506478605471,-0.01046536551215968,-0.037151661499952277,-0.041720294050644674,0.13178209242318423,-0.06210593405267285,0.05510326149508084,0.20791277943483993,0.14519762939301728,-0.16230741425878742,-0.14078970071950644,0.23420601626963944,-0.007540805938365175,0.50402038311957,0.10987141952448701,-0.06534716165008622,-0.3089894169075247,-0.1450291509264317,-0.5889128285363365,-0.3743564606798479,-0.12580580601417207,-0.09795211778702095,0.09832087009735682,-0.23836556577606738,-0.1250978530927596,0.16063242317730556,0.08649454028656678,-0.09161814206929199,0.2217089781407727,0.133845698490614,-0.21808521860589855,0.07174931606742799,-0.18309120975342483,0.25476836866695624,-0.27773874049567904
295.4504089355469,1.198883056640625,-0.30227231823103895,0.2864158060882187,-0.2756499682578137,0.5988779143549827,0.550558844358822,0.41356088013362147,-0.1245723031598526,0.004198830112870542,-0.08052682992441912,-0.03416523385393217,0.05357746508997993,0.06229105925947441,-0.03444044625512551,0.13257790280013187,0.054207433793838425,-0.12923413332773667,-0.013872298097966175,-0.143321016466945,-0.05214528884239275,-0.05855065201365481,-0.08882560944298987,0.05082869376288336,-0.04532668671981964,-0.0042529035142779646,0.13337729129461104,-0.1268748299797231,-0.13378940118099336,0.04819678925777146,0.011948146877620967,-0.12648743634996953,0.1164940890008127,0.015897619696424767,0.06446458552859617,0.052781600177517145,-0.061797936415390296,0.0062362678023689545,0.11947877862325247,-0.21697745157982448,0.48403964948627615,-0.14662470340467998,0.5703269973959213,0.04297395750946107,0.19454627410186592,-0.06100862887999785,0.2252909529538419,0.6163150712853548,0.037559534830077734,0.07398516576356064,-0.30744303334385736,-0.27948242718792976,-0.049892892845405906,0.11360048895718633,-0.06367290226239697,-0.005763979412206407,0.271568779945329,-0.0035428053607678475,-0.07703663379567832,-0.025323874269866972,-0.06427855472568413,0.033395859473825396,0.023194065872053436,0.11481922627572068,0.04830915208984942,0.00539587556881644,-0.07600235372321426,-0.12238248517904121,0.030257986912458783,0.02595291950216739,-0.029467481821951087,-0.044704314300922615,-0.12991120933993566,-0.09914302590542855,0.12630679911198278,0.26024924079311285,-0.022660111095046797,-0.21713674003058928,0.16089837008466343,-0.0012983347829980257,0.08074663149586242,-0.0001965106680567345,0.025698264358873377,0.17114084921198353,-0.04939403677608757,0.014545894248197022,0.046244926821038104,0.05450172507538106,0.05017303080570007,-0.058783986830866886,0.028143317396720914,0.03059905730685314,0.030723798991987683,0.005651702938427573,0.1373342405934276,0.116680109592042,-0.266599212889105,-0.017108897403652974,-0.31557627451306186,0.23148356533166942,0.14104719269190866,-0.4157276316221313
296.6492919921875,1.218414306640625,-0.3127654644140926,0.31302330777867843,0.8719224740690741,-0.832602474015379,0.4911395585967872,-0.134380306412394,-0.01073147197121118,-0.11080259446796244,-0.1659663634023061,-0.015184252931523125,0.0375736331212298,0.022926407601364926,-0.05806324091220756,-0.09650123041488652,0.1964070268451757,-0.02220960945050942,-0.09513618465773158,-0.19505050930700826,-0.047051084204366066,0.04381968280452425,-0.043567533998242765,-0.013750531115651606,0.1014428426633666,0.02073381166346741,0.053830720316365405,0.19046300042046205,0.09064502473096565,-0.0878458521270328,-0.016303816284926647,-0.058485995434150326,-0.18245786045344156,0.015615942950616638,-0.15875426789240918,0.05148513117449624,-0.0719555414676013,0.1338010332528906,0.07211362751368144,0.045585115233768396,-0.18346764867874446,0.1280392160870702,-0.15273846091572704,-0.135137354953645,0.4154041949609172,-0.14694892659184944,-0.36257347565869863,0.38241951648282124,-0.017004884561154926,0.41538377829169704,0.31078973978009394,-0.00823209570431553,0.16615334116869523,0.09835580697430783,0.027617555384321237,0.04304684150520892,-0.10429431430922108,-0.026016123114793455,-0.032398730640617004,0.07805249578069105,0.022257367738507956,0.03165922901286704,0.01480861221648587,-0.033847754971367494,-0.06886941695355342,-0.09028911912010529,-0.020005743723448752,0.000327754169167692,-0.04470330611118214,-0.06969531773223743,0.18710516838179425,0.015428475345951223,0.0006363469308153305,0.023556089896898356,0.04765991561730065,0.22827388575276597,-0.25729403257541283,-0.19230628307579106,0.3056114133367459,-0.14871225446232628,0.05393619546206528,0.0942004769423292,0.21263014880719822,-0.14376587775149838,-0.241635268244414,0.09626482368472258,-0.012119418185066644,0.022083064240813254,-0.07131628377753521,0.03053066193551047,0.0017672559959686779,0.03132610974327454,-0.018137523510438375,0.01606056498408882,0.11513564206975951,-0.013966026586495227,-0.012915048687300076,-0.22122146257863562,-0.01799386820964033,-0.24815382758941898,-0.17742215657073446,0.41860455264163576
297.8677062988281,1.1986083984375,0.5567379030551669,0.025750564624638615,-0.5358096643265203,-0.35570832952211573,-0.0742577791724745,0.12538698833007553,0.3200493906293808,-0.11993933925970374,-0.07153320555224771,0.010157529730502903,0.10032273840856687,0.10693299355769448,-0.01902414516550305,0.04327719008970135,-0.06123481048190784,0.12380299108009343,-0.08729312161649665,0.031047640298719086,0.1943937429198817,0.02220344591781573,0.05414335153916309,-0.06704435117748835,-0.026417650768582945,0.07994109907577486,-0.023373302716063738,-0.021834621936566233,-0.023878988254047648,-0.13289244271099945,-0.21898820928301482,-0.04843409063709769,0.03621951138994193,-0.2089922038810505,0.0023341314333126806,-0.021898933444883226,0.18705870367943297,-0.0961126884953814,0.019535698084949787,-0.20721675796563765,-0.18102217766991974,-0.0911276512202788,0.00901694793205407,0.30067251761820196,0.3393636865913859,-0.02054461755516243,0.18629672324195098,0.261321278742909,-0.1354815835464976,-0.05292503649888805,0.1878400884371111,0.22381480697060357,0.2509739328201414,0.1299097911975414,0.13710758191780018,0.12112100260868398,-0.04031773739517497,-0.03644172411902222,0.020165348816121455,0.013147345970017496,-0.023735602242708514,-0.016667429131465836,-0.03727465200398067,0.0010442732780994268,-0.04512364389471506,-0.13880061414283612,-0.10685429383264956,0.07487914714542611,-0.15634142626197062,-0.14810534674541845,-0.06145797380691362,0.010809924286591192,0.10842594880460295,0.15705286475526492,-0.11587118307580119,-0.002933489484888528,-0.07299158257764903,0.019074194906603274,0.05582338296917088,0.029808113944071707,0.2918401399874742,-0.10298104885763287,-0.19703214324399274,-0.02575695903598753,0.17831085407038702,-0.04105503575585208,0.4357205481235571,-0.1428425301618231,0.18388824819923383,-0.08206798182761234,0.12090489819860989,-0.09503634944055288,0.03359891118208011,0.030800119047883184,0.1238455670615615,-0.15850441440006813,0.08974605299208367,-0.11146855878205383,-0.30458843393898355,-0.03793355050585019,-0.008328494101229166,-0.47534184058430456
302.7217102050781,1.1890869140625,-0.01648098575032128,-0.3963393372098309,-0.32490744095804946,-0.18125475567464908,1.3898187263950095,-0.004159183390676113,0.12196426888985483,-0.034718827752885484,-0.00506981439477442,0.05976101217254702,0.03535558749420885,0.08755689983451592,0.17607998060643165,0.003573831001026834,-0.0023869669489394877,0.00934033316213369,-0.0019117015052436902,0.012510409779336503,0.16368433343507555,0.17619894009135034,0.11590759275666336,0.053092994221564306,0.13959820625589758,0.0703620905612936,0.09621567941629898,0.1534169003564499,0.2192445268939223,0.13733611994955963,-0.029824969139559072,0.16723712329690796,-0.04921707881721876,0.15025445656825911,-0.02161066227992492,0.012538168505727056,-0.12154020006363629,-0.03647984130061442,0.02428555441350661,0.07354070774076514,-0.26238624042890035,-0.10511166627042098,-0.029349720995827222,0.3095698595328931,-0.219213993990756,0.31699900937249637,0.006889498824917378,-0.19655530292169912,-0.04669876094596426,-0.25591314017186106,-0.12710718235000376,0.16890299912713486,-0.24749941999995656,-0.14477877492368207,0.07598588441069903,-0.0814212284521107,-0.12885814818593688,-0.0429028917211927,0.0552314850333621,0.33175635342379767,0.005709132072598332,-0.11450235498825448,0.16681202499549969,-0.10504494137756859,-0.12000896204570946,-0.0490702119299536,0.0466046212241882,0.08307896277781844,0.17999802163387474,-0.0859587295104382,0.012193478238699377,0.006660286062855984,-0.06625653934612616,-0.1554813720584516,-0.10408379474226653,0.17422203289645347,0.06822324170970696,0.09936998609095785,0.10307018241786463,-0.04268459305761686,0.2806871090263301,0.2201464642210231,-0.5037504027342877,0.0651107913001382,0.5393365875773621,0.2677363077065577,-0.058536898646657676,-0.0536099045836102,0.20843493724265,0.14365073573862228,0.10605658359125274,0.22980582687720802,-0.0004785782692337233,-0.032916002755857536,0.06783004826743173,0.29891165605740455,0.04455782683620137,-0.1553063754899217,-0.30150463135802014,-0.11794425460664722,-0.13288205486635096,0.15401709046673753
303.9107971191406,1.1885986328125,0.1487231741759221,0.3257517060244004,0.58620942621258,0.3531699837834587,-0.23566607747986812,-0.21600127096588168,-2.2741199167626496,0.6158994418651118,0.15445141584293204,-0.028622217826555746,-0.012976910384447446,-0.0788313537019582,-0.003712451817421462,-0.007639998260726527,-0.05369156729758223,-0.18156822265449216,-0.035495500311586124,-0.05491191551729224,0.04533229839423081,-0.15516397838949283,-0.058646883521304934,0.24730245023667333,-0.04087904761575679,-0.07263713074911267,-0.05948457228562078,-0.045094737778102426,-0.06550781037692298,0.010186094042275787,0.27047930620245375,-0.24932788776847772,-0.2540640104643347,0.14954137976685267,-0.19073541793214316,0.08705138668093833,-0.4925547726621905,-0.38902860054747557,-0.16637383568623285,-0.0195881479900672,-0.22225659555555902,0.16688854083003116,-0.3457987128643182,0.09102449849358794,0.0600863157746624,0.10629544347565767,0.12607390649949793,-0.08091808268242288,0.06792398258271236,0.20577418277543064,-0.19894007727592045,-0.038624648060981634,-0.01786652116585005,0.2418146741079431,-0.008149756983627717,0.0001573207877414403,-0.03311076854039389,0.0937690653383077,0.1820772574316077,-0.06585392895070691,-0.2266983963304852,-0.06620990118307668,-0.05703314455972305,0.16137611437581936,-0.015782821342739693,-0.029572086810609053,-0.04188380012399247,0.00916425087074026,-0.04862458358258845,-0.06032176324796186,-0.03732013889810862,0.0829834067834825,0.11669212277882744,-0.07048266605262216,0.11129384054345424,-0.10334389374802719,-0.6779795172224933,-0.20811798233268133,0.19022084978334577,0.34248723725007146,-0.056058651126769346,-0.05820540978810524,0.07718391774626354,0.2013565406897828,-0.133989460928155,0.24258131472345196,0.6653652780002692,-0.0006041021067865523,-0.010698690325630575,-0.10464287873283219,0.06411655715270377,0.045157452963366033,0.03301631390855888,-0.04504248758647142,-0.00029675212970163215,0.15395192035097444,0.17970901313301554,0.37752611303113753,0.0113198826524834,-0.14040702797376906,-0.19523781408102614,-0.13188873385767058
305.0993957519531,1.2283935546875,-0.11239752170027492,0.21998372449833592,-0.05211132874414165,0.23981903252718284,0.4509549145822095,0.03958735257336124,-0.3326097672133017,0.03735950430308728,-0.045705734883274285,-0.007320972160635989,0.015710707197837872,0.001583395835411967,-0.005376468083844146,0.018880623913594075,0.029675668659210102,-0.09063516318118331,-0.02505318735522401,-0.0245286676566932,0.07514585225852649,0.04541012703220769,-0.12068611463977849,0.00844706662883971,-0.030052267917863546,0.0024754710420348157,0.004745335724108443,-0.031065281865167882,-0.0433196152610665,0.165939307814094,0.19371855343088207,0.07992649943798438,2.387126144336258e-05,-0.10649909274049839,0.1578089508255589,-0.18425618004291644,-0.1166039622208504,-0.09661468477246442,0.26885229413616296,0.05356212317950429,0.1436927706145442,-0.32559989922678473,0.042711226969295135,0.17646838120421976,-0.12852081053594488,-0.14473333740329483,-0.05816275342852836,-0.030630465631295203,-0.023061701643812146,-0.08102398552954324,0.5051344073135672,0.10812423116646545,-0.22104446529172816,-0.12446525987270049,0.1096567405110982,-0.008654122736214302,-0.03735933436060297,-0.01907402494617962,-0.0006197057541411817,-0.048007434743925465,0.012027058813525685,0.03501551249518371,-0.04968892666365926,-0.012032445724543598,0.01360693206938102,0.053311855490595104,-0.028540528751869805,-0.17612665114518322,0.06153822124722287,-0.038842664731596886,-0.15724294688330723,0.06440044803022499,-0.02303459077929717,0.14300736887340335,-0.08543284788812824,0.0481170250182205,0.21760020206506678,0.21239519807840884,0.0674122433331764,0.04093700584384932,-0.1765136387515679,-0.6710487511190532,-0.26862357533827413,-0.16791400558469327,0.1628746154600989,-0.14207320488351627,0.10412394964950805,-0.10004103427481273,-0.0859466625681468,-0.22117186066545624,-0.08910658509021113,-0.0920909841880899,-0.12388872375804406,0.045786540692247885,0.0694440219669793,0.07529175788350895,0.2651615193637743,0.621880163444563,-0.03775249961643564,-0.28139074383669876,0.06597807631294653,-0.21658148402617028
311.29229736328125,1.14849853515625,0.023915650720876758,0.9850560303547132,0.5734663791907001,-0.03813254791944248,-0.05764327384419307,0.6012237011764556,0.41513143743697917,-0.1387645055003221,0.005460215522760931,-0.01864959269982437,-0.00036900995805958295,0.00817505550433375,-0.09499500131791931,0.004241836029692739,-0.04802888122532252,-0.044819308961448194,0.041345274639970606,-0.14860053951407434,-0.10266326092658021,-0.11699473609298015,0.015653179631171257,0.23675094782427986,-0.1184732628728558,0.15820809660170193,-0.031954232542793365,0.2398513194163732,-0.003919476317091706,0.014907749075104889,0.05702284255357233,0.22169057481868157,-0.10900642820941916,-0.16890302271939783,-0.09715685886957859,-0.14075216973665947,0.23853678851298113,-0.16162666483989271,-0.09799638136594332,0.01819742306796823,0.18025869919664345,-0.017156382402680092,-0.1401458402692152,0.08299215886184319,-0.13985044474829628,-0.2803589738141123,0.09297155264459267,0.8766146289221977,-0.07689472624189193,-0.4068870790284836,-0.04973430368964599,0.34550310373525245,0.21008056720507567,0.28781422806816087,-0.041363556686616794,0.03247352215186628,-0.0657913940000657,0.0971712357942943,-0.14995897448646994,0.00742002962242333,-0.028871510958460384,0.002751108821549997,0.03907171547861345,0.048582879434121706,0.02579559946668715,0.031278581834506824,-0.0381917347934593,-0.2729167214394445,-0.22449246630470832,-0.05197758241177262,0.07276763602654944,-0.07344956961626325,0.04635084321485476,0.10182597552584699,-0.025619282020999647,-0.04959826885115691,0.10806735568043582,-0.13280202476460634,-0.46329587562426183,0.1998176190707757,0.05137233168908074,-0.44940993760441517,-0.022897186301817696,-0.12007776537049832,-0.24739464765596508,0.18940622548404468,-0.0917846617551382,0.36036329855533855,0.3781665240413167,-0.033844098439910444,-0.0029246851909150847,0.05737965610198782,0.09473004277766715,0.0802864453165732,0.0928176195348765,0.0421448118056758,0.008003417159229453,-0.15698359044832652,-0.1268595103655944,0.35132622144886316,0.6314036969767524,0.05400580134677285
312.4407958984375,1.158905029296875,0.0520968744370266,0.13179353155248383,0.42367178468319056,-0.4670304220122876,0.33492687329064774,0.22327697328438606,0.0437366745303345,-0.08917548119027649,-0.04447876032276674,-0.012742408288536223,-0.1261800816666581,0.08647709471475969,-0.0015750372715534822,0.023558518070025455,0.004501568887662649,0.12264157544621615,-0.01842063344060639,-0.04713546156952578,0.09787137424697756,0.1798396923153913,-0.2340153350728828,-0.06197584675234783,0.06425026865676232,-0.02074587709374906,-0.05516771579707654,-0.17476031146239632,0.05517306046110727,-0.03799964145754352,0.105110196437979,0.055494166473028184,0.11604936595140744,0.23063337504611828,0.12125932095011613,0.19367214930786641,-0.10523165412040407,0.06121724339139193,0.5726753166775724,-0.008331537141207577,-0.06412732770016868,0.171306165395258,-0.343938446004907,-0.48094394197191837,-0.40612544540317813,0.18714725121794706,-0.39209462419881036,0.2580717881498308,0.12141368236519176,0.24557077859227575,-0.11000420395954912,0.40452841425226543,0.11744449245908653,-0.03568285821082581,0.0945607898017145,-0.18904252042317793,0.128268212024857,0.0309854595257922,-0.022359708519602627,0.0026564038590120007,-0.029304541313072502,-0.015777554961462454,0.001380953208373396,0.0794923411702698,-0.04607043397635912,-0.0022036228978866567,0.029492714454760503,0.03696695087606043,-0.025816885077222986,-0.05494205573842688,0.19294577887665557,0.02066487396767688,0.0840104588006071,-0.11709367500467267,0.09798519808335564,0.06486195034843244,0.0713979707389555,0.21148925610412966,0.08304607866481534,-0.0924674806910887,0.09218537928253602,0.179564583900365,-0.16644660023741226,0.3106562686580362,-0.006905953464758644,0.1236542910729793,-0.06039266220014749,0.18824125958314195,0.07900965816916058,-0.3120369750916228,-0.11261607151502454,0.06368612073225033,-0.024264271595949162,0.020190156893645596,0.03809004265209518,-0.10161239195508752,-0.1536021887816848,0.017871037756712605,-0.05118156299848363,0.06064677566790341,-0.24317709702031168,0.2623557182185059
313.5997009277344,1.17840576171875,0.12254809561146349,-0.05792032469269533,-0.04737688840988977,-0.8065647584942087,0.2875216124923158,0.4464939056076592,-0.32921665117737564,-0.2166865979472562,0.17945340955606898,-0.01524480118867444,0.021000177234069245,-0.020618998485415027,-0.0077174616142056535,0.1322172863931481,0.05452419995020849,-0.08714701115072931,0.08143429678363603,-0.2241658474607129,0.04906177035799163,0.10371621917901677,0.011981189959929675,-0.06389796366568429,0.2651740149451701,0.04665796216482209,0.2390671638719416,0.18189816649522886,0.055224420634652605,0.08513789082848716,0.32184549828530956,0.012821202361149794,0.0676740027395293,0.14154744794564525,-0.10925869033892871,-0.15313630965960318,-0.3175344723613411,-0.011922072032357487,-0.3463853063556359,0.20286074879363208,0.11641773005407909,-0.613412188434231,-0.174874327307266,-0.14985151354389997,-0.3137250823705928,-0.13450892736815562,-0.17510116639120785,0.06756315940730558,0.03495244482228902,-0.43224824774287646,-0.26621170754388435,0.1871312772769512,0.36541954556608036,-0.015365309877955672,-0.07297007011369219,-0.0692440828525075,-0.17804963406443525,-0.051498210265070093,0.11156936044373668,0.07604602754876179,0.051415050589821314,0.021588189677479566,0.05151612268629403,0.010216625358415006,0.048450819410607124,-0.15581586900459024,-0.22821659988116227,-0.11573481925223593,-0.32659392481712723,-0.019779329067322382,-0.10417275635289992,-0.17952482600810524,-0.13189726431577592,-0.09161641140182647,0.14108560477041016,0.3290637947786926,-0.25675655251577023,0.04108618278266419,-0.20314040234858155,-0.31341971332487384,0.40931772140506273,-0.007944016532923176,0.07707920618122997,-0.07327550851138952,0.4604034871822319,0.1280048205883372,-0.21275943149985746,0.05360478848302914,0.06839168571992843,-0.12674055373675341,0.0030734932512178677,0.008255430634648593,0.10077171985180244,0.011939513128105369,0.06177682695981147,-0.2758853815453035,-0.12041263226257529,0.12351572766303301,-0.34600786392827604,-0.34471396110594266,-0.9319127741001617,-0.4392675483349977
319.6325988769531,1.168609619140625,0.3129047586894765,-0.5222569740463767,-0.43593329995198915,0.19648703346768598,-0.945601929309462,-0.02148728380615883,1.6086441477223845,-0.43369749465172613,-0.13434060390022545,-0.1291777595311599,0.016643664961112158,-0.0887207887249842,-0.15043162778600574,-0.10894847763580608,0.07962169553341582,0.23590515689200067,0.05400801708207247,-0.025919323467827445,0.07531139094734421,0.08078262537860038,-0.146503829388702,0.15256358352965554,0.004715312909316897,0.06136490703669966,0.02145818087676196,-0.05902970433787134,-0.03399779545573828,0.010964084654779455,-0.0802006740233395,-0.043117039607116076,0.09554404690527336,0.00450387388653537,-0.013759090241718787,0.09239311981264599,0.04531820194733184,-0.4904872103870302,0.3472771376327659,0.8148612567950069,0.2656511499187379,-0.26835647519734807,0.021324874185004228,-0.19656302624725516,0.31686312219003515,0.21401989447375672,-0.32917289845215586,0.1343160975732849,-0.1777619669872524,-0.10564222847931339,0.2705780467170235,0.05459023497604149,-0.01679520276392496,-0.02495677632672804,-0.06526680099858186,-0.11641742848391495,0.043306876781046444,-0.011712769999995277,-0.010058514455431593,-0.10406875755352765,-0.07187562017192632,0.04280813209914386,0.0014028778076234933,-0.0019962507089168824,0.07219138859352195,-0.05342815889602286,-0.04398729116007649,0.006481230412339117,0.008461331142000027,-0.14142491533040819,0.15305077892596447,0.02388839912531174,0.08071203075371146,0.23028790811790006,-0.0826632391971165,-0.14542467012168564,-0.03952448761613625,-0.3712145450349588,0.5490067158416452,0.19976514016559205,-0.05571912592682473,0.039518505133371296,-0.229940822131147,0.17614114365821007,-0.0694484200757696,-0.3635321994256741,-0.1434770132839246,-0.013379287679167656,-0.17056833084184747,-0.03232923060238953,-0.04873235349234621,-0.04907772787396963,-0.07535903343019165,0.051759485832708604,-0.10881793278651145,0.047242484625249326,-0.07913310806081308,-0.1250763482388757,-0.48919922986632486,0.2698987125005386,0.6515290978013396,-0.39218825565778237
320.80120849609375,1.188690185546875,-0.4320849915819871,-0.013842696095148724,0.20936348509752856,-0.8321471266735319,0.1381922053772925,0.04092736627989596,0.07213563746900449,0.03958505162162567,0.0024899552784672582,0.011339076969766939,0.046127154937303315,-0.03768156867449379,0.0345491787000777,-0.02522257058431275,0.03261890388195936,0.052311337946223634,-0.0940416829088542,0.009937340134678544,-0.0459866371188787,-0.07749409465184022,0.1746056160163648,0.14538573089057527,0.08201479847859924,-0.07929469624147771,0.05108575160527072,0.04586614069657431,-0.049864038806615246,0.05039551094505231,-0.05360304920360979,-0.042656345616659055,0.030229789078958583,0.22575540214497378,-0.010330327571138904,0.1540611915057903,0.06754980110282427,-0.08817061234303,0.08220762868053805,-0.07773566387666404,-0.39656667459465733,0.008096179006730583,0.29793219438504437,0.7686434821641437,0.6795824669516993,0.3800120593736059,0.06784575535496035,0.5353938703515644,-0.3515941733933235,0.31121859168901633,-0.20073387130352127,0.1802114268753953,-0.1193964052590311,-0.2967378637528232,0.16661788914235637,-0.07096319533206435,-0.0535628027938168,0.17153231633497004,0.12768088913675174,0.11145167854905848,0.02341818292064286,-0.07227068046782656,-0.051696177527456526,-0.047984366936115186,0.02705622675959917,-0.0015475424892112122,-0.07242523381438658,0.14614321525968124,0.10501274067997894,0.014229022243481838,0.09380235999143455,-0.06310834976460065,-0.05257002561512966,0.04169291971245831,-0.11023841337482673,-0.0017042011041356053,-0.14566572079460566,-0.2790436523023225,0.024363820153761408,0.04802620154397727,-0.14935815647992046,6.732261636289484e-05,-0.13651673805313852,-0.1310895845721274,-0.16911165280967905,0.06279913684832739,0.02402850914957784,-0.22989170058210534,-0.14306095591192786,-0.4819832007521158,0.11081065060762099,-0.03644111504441265,-0.08514301964535567,-0.004822506742672867,-0.041650350399933186,0.04326160215180917,0.17555513990636706,0.10417530820927702,-0.21623426728923353,-0.17254670642207331,0.33635319323803275,-0.27641694401633937
321.9898986816406,1.258514404296875,-0.02690552845093197,0.24631179291786823,0.5154942170484966,-0.306684507559223,0.01689901353911926,-1.0891859738980068,0.13315683078221655,0.058726944726057294,-0.11454474164108625,0.03374482168293363,-0.05738321646809134,-0.0013186404356198209,-0.0226841095774463,-0.009552555539823853,0.0012544056780933038,0.07298091107308019,0.10784709345947786,0.016414007732412167,0.008634969761143436,0.11802832144067474,-0.26588118337094996,0.0006028235565063243,-0.04909646218789525,-0.01597135560347545,0.15101033839365496,0.08679042503011115,0.15259733508969844,0.11744922410932003,-0.015167699216263061,-0.04949212004958296,-0.013825293031247084,0.12074334051297678,-0.1323193961378464,0.17119480716861085,0.20945763200670942,0.07064195050526079,0.3911940926808757,-0.09158010769690544,-0.20027323510799203,-0.12376006711403274,0.02173729273404547,-0.07110890388269973,-0.3214489270112103,0.09979261143385947,0.13303992303117662,0.23873880695016345,0.03850209117893241,-0.1945951628369781,0.009230585810356944,-0.22344386603579125,-0.051245618432445766,-0.07200529689626847,-0.008253230763571245,0.05721812757002365,0.0009248944992758786,-0.013158870516967085,-0.014396901693737633,-0.05931860139126095,-0.009050112707511144,0.024474476014346415,-0.031234837257949795,-0.00019321230989464977,-0.06994163623896961,0.14638885432078141,-0.052953265475895156,0.07196834112498712,0.2957327680539773,-0.007485552293365734,-0.04564256478581195,0.05446417654428554,-0.10280743502650634,0.05121930511619638,0.0483549271872062,0.07179534023713575,0.05469051086559389,-0.1992710322365131,0.020738943481946145,-0.07806472555796588,0.03957119992192027,0.1334100137578483,-0.20763183294711457,0.06807078498318943,-0.2363130631273293,-0.3735378420544126,0.5798412785955317,-0.2995185352917396,-0.004205088327332962,0.3434032854079103,0.17043262158832112,0.05391806591897717,-0.11082056517077896,-0.05489072053840552,-0.16569793083316448,-0.13991762727785115,-0.0240095999568732,-0.10621157580692694,0.026857735533461678,0.09262478701579382,-0.23166513339322184,0.15663610263001765
328.1328125,1.15838623046875,-0.11321870675745657,-0.2272692424037545,0.9793322775890063,-0.8568864167109943,0.7863629752082083,0.27863053692922046,0.06397722731221939,0.05228993221121618,-0.048192467259417886,-0.010669283411053245,0.07850306252662283,-0.08128764873943986,0.0906642515945899,0.056958438837153576,0.025528015851233037,-0.008281126938106639,0.01937205688721521,-0.023612728422217358,-0.08108378959621934,0.10855785570083981,0.3868932501014598,0.060568187294844464,0.1811810092560605,-0.010320856248026465,0.08938384801239153,0.044989732886120785,-0.11199645178416616,-0.07097347465350111,0.05190701609380142,0.024946556615355525,-0.11462021065279139,-0.14071392722990253,-0.12913564508044748,-0.04299860270601484,0.23777737703570287,0.37311668201551174,0.04751377961022737,-0.06898132968891232,0.09737600929030571,-0.03618780162743017,0.045067980691388204,-0.05901121173496176,0.09538195432753982,-0.1406460913376026,-0.03650547708060517,0.11794793307494625,0.38180488417668207,0.046657579584063455,-0.2643436064626853,0.1431541887781585,0.026873633806022146,-0.2461852724509151,-0.24445098184306405,0.07835013421892598,0.02016029010566624,-0.011159269459444515,-0.034696651529775274,0.027604183952701367,-0.08834151660686582,0.08527219505875414,-0.02673559645198581,0.04980212828539752,0.05236554438939321,-0.11830092914621683,-0.07107580379265574,0.007881980182134686,0.08556735914886444,-0.006471727371066683,-0.03903073441456248,0.02719524325130788,0.03552676250446222,-0.004410181669625174,-0.09078375548395448,0.10842713707368624,0.2322687537054141,-0.010671736480883404,0.037772102104365705,-0.02994426192477201,0.39497947251260435,-0.19595289516898132,-0.017559780606225227,-0.16092354299388598,-0.2630173288027637,0.20157762432635856,0.08483895730859863,-0.06823890356518861,0.12006129313196967,0.08324170689319428,-0.08458383681880405,-0.062209710248916125,0.01327113849771322,-0.05805850060883455,0.029827241676206217,0.031010555352973607,-0.29593838465041195,-0.569130494921925,0.24688798417848962,0.19362716385544584,-0.1376382707956323,0.34645785276756147
329.29119873046875,1.17901611328125,0.3732154989280158,-0.5702388929731564,-0.558462785128877,0.6273972690329424,0.5043606893218553,-0.41770688324806937,0.3190151762373965,-0.12958538679998297,0.011183245327253094,0.15875300195881678,0.010805628078788543,0.0029679990576383973,0.17834463091703895,0.020586185571309333,-0.05286850442702199,0.0020898598505218365,0.0945939529349156,-0.02676102076477016,0.030265399279478966,-0.024213752246413173,-0.01441687573856014,0.017698673196108447,-0.09641482650944685,-0.16761979875920088,-0.005852038558787728,0.0057553872705360335,-0.0209979383504872,0.08714125778696252,0.034810457703704084,-0.1260908679330414,0.014717467087374266,-0.015465318964778527,0.14073911558590413,0.021535104126673043,0.06906364876162155,0.2532376578584956,0.4004939952280468,0.08668588609838326,-0.323646747489103,0.05324035175995848,-0.09618764652289163,0.20460906939437234,-0.17912193928515158,0.07891316666019238,0.7213301205068334,-0.06039937204818091,-0.25824772217953385,0.38136201996065183,-0.006671383973085865,0.06794696156227858,-0.0638243141806101,-0.027011043910406096,-0.1033616516485,0.014659232339434536,-0.08853592233609843,-0.0008510098220599652,0.025404405200811667,0.004810251529424986,-0.05109882483745762,-0.028453570845113057,0.02302347190022248,0.005634260396478595,-0.07153744204400857,-0.03826095952771123,-0.008783290836873413,-0.03026746574633471,0.010097054462754204,0.07606888624187322,-0.02240425092430979,-0.04347666436764725,0.04822233175365148,-0.0007816331561702971,0.06555343049086049,0.0506051689392495,-0.18778277424372858,0.16779196964529666,-0.07011687440494634,0.21980673381032712,0.2690268517696367,-0.009180131990390417,0.19748188337533723,-0.047618233513163896,-0.22671654333006097,-0.1728409374188627,0.05006457319795027,0.08185582643220296,0.06950716470801606,0.30978774564506345,0.009860602820317761,0.069108723046155,-0.015285786550977724,-0.08574201240321819,0.022457482109307137,0.13404292082939742,-0.00025584477441942255,-0.21416599582683213,-0.5725607871803795,-0.23539198429988578,0.5233370260922294,-0.06816799481266977
330.47021484375,1.168670654296875,-0.13895694146251045,-0.16325505948551328,1.0139342193002039,-0.0981102778442576,0.33019852376314973,0.08054963092623385,-0.2004065117789958,0.26074244191070556,0.1156046178323863,0.005626883172370027,-0.05048194977188283,-0.0034805125694800845,-0.03302484369096354,-0.012188231082139638,0.020884908492713433,0.0236291047405639,0.06784320549481902,-0.04774317412942704,0.05148486792035644,-0.07098200074962294,-0.012054782775134163,-0.06575219421644422,-0.03211221151952398,0.12624699538105652,0.030382170126968963,0.06855520913761415,-0.17607567410237018,0.040689596844607004,-0.04066487324970288,-0.048110060739915805,0.008944400636673903,0.08692377551495527,0.10561928545199945,0.31135752560258334,0.08385825428544497,0.03052482430987557,0.01410695672356508,0.05977354058804422,-0.39870593753603084,-0.4176405216031092,-0.2302309092549651,0.017365323248764303,-0.25163032031011623,0.2721309483158577,0.32984389069260583,-0.18468681225398087,0.059454568884012855,-0.13873078575928435,0.2698745221035881,0.13710952177005792,0.06406111224357158,0.014440910967961922,0.10854591434437999,-0.14855774745223121,-0.3572294425865407,0.1394982563702297,0.10200260526920253,-0.0008589526893261159,0.06720699506230467,-0.03924907283995268,0.05821151227293512,-0.03472692428532551,-0.08758181174192647,0.008638983924162196,-0.16209358193557954,0.045768480063660036,0.15873310033849442,-0.027716537848528164,0.012597263430664987,-0.08133828451746808,0.09963278575938145,0.004048045647767354,-0.13191115346690602,-0.03930631809564032,-0.01455496789635307,-0.040682283952045956,-0.3603714942306752,-0.16610752634825376,-0.04872439811083185,0.09574339413484105,-0.010085845398288551,-0.31548103312394443,-0.1942659606236198,0.046026268476750676,0.19673025022440116,0.02908517698332326,-0.33905352614183626,-0.1741663152653676,0.1293928940438616,-0.015570037554956844,-0.036741820674458234,0.01320568669229967,0.04134665573253378,0.02147259654917315,-0.11058583222948251,-0.24007424180149953,-0.1623205212214443,-0.13201463856372103,0.004367265521195041,-0.0017854250064469612
336.3630065917969,1.169097900390625,0.16432952842257975,-0.11704003258570624,-0.14482079658622288,-0.7697076661082962,-0.009114644609853631,-0.04582455128131215,0.5025099009391448,0.4035574841909264,0.01704998723552827,-0.07175477422037847,0.07149873470581708,0.011490172862316766,0.0398898396472744,-0.1505270531611629,-0.07131118712315863,0.07625948372366588,-0.13401503899581016,-0.0951124952131174,-0.10962614693045127,0.09088865259259941,0.1056378926037958,0.006108119670007108,0.1555789836746526,0.09669997557684265,0.055168065125907086,-0.13218047771027652,0.21833753813736867,0.045039533025532534,-0.14645365387783602,-0.12546591982588487,-0.06191722205487228,-0.12372371814438465,0.1809717189085344,-0.11570288747149535,0.19053058529162095,0.11955194477123512,0.3566201264208902,0.09678253562947388,-0.02435036636768781,0.008445738579640316,0.14856718977804606,-0.0747151072204362,-0.46418198325187443,-0.0035047907981046104,-0.2490797727847126,-0.08392622581583606,-0.22373059501099601,-0.24141453700775772,0.06836037362034852,0.07378162028374949,0.07328112613820686,0.14621833987125635,0.014764329606086457,-0.13961569638326354,0.10731332363005672,-0.10510413434539652,-0.10485259881192441,-0.030694509774770756,0.08394269259405698,0.12767037430167202,-0.03337631521369054,-0.03457234667669305,-0.09193255688719143,-0.05303000985686636,-0.041747914321308074,0.03776051915754045,-0.12871418406983376,0.020075819254320632,0.01000357205962787,-0.02916168792476463,-0.293558371925959,-0.13864867891820104,0.12906394044482558,-0.04139144278954139,-0.07049603587005991,0.020324446644968765,-0.1820882069340212,-0.07330762438098049,-0.058831530610045375,-0.043604269483397656,0.022915247256211285,-0.06917258402195463,0.1365296461288368,0.5969108940018303,-0.4153848461816663,-0.8014602054369009,-0.1375188689366665,0.053557302039076216,-0.028430244817141563,0.039419615301475336,0.0551583273297689,0.20261539759819097,0.1370742557690849,-0.12769019023829503,-0.1132102394960263,0.02349534739272675,-0.14523585461287697,0.09298525618392094,-0.003367337296097333,-0.11043763815641164
337.5321044921875,1.1885986328125,-0.09847250477735683,-0.4159688644778283,-0.5368882916003818,0.5001755960501517,-1.257586894018328,1.1430803999568642,-0.2954820450179491,-0.11014268654630564,0.07681789200462333,0.05252380895765173,-0.029173817022381587,-0.0697903469124571,0.12044093222612505,-0.14897697901425716,-0.06041900291301737,-0.024098620391690133,0.033095477110061056,0.10244005451410869,0.01669387347411852,-0.053669204592072646,0.06751391027940513,-0.002636583645086096,0.016276936563380768,-0.016757723842413627,-0.03257179297173574,-0.1728163971142107,0.0008064584357059323,0.17148587750029468,-0.03585544392406181,0.003663429006514992,0.15266426376570738,0.42504564728718497,-0.2699616266865245,-0.04027596199966122,-9.886078737550083e-06,0.020152471986430002,-0.21570857160805962,0.06979378424232739,0.2872100842564428,-0.06861471793939683,-0.3442832595753637,-0.0827168815885276,-0.18255321176652728,0.20502913599244815,-0.32074713788189557,0.05571551238688191,0.8285105946015766,-0.19941609756416265,-0.1610813771930096,-0.07534359027064814,-0.08971429202685306,-0.100970025342899,-0.015357071563566428,-0.10720846333598527,-0.01718594830878397,-0.1148957583483274,0.005690221061465198,0.09657559304282014,-0.005043665543688868,0.06874318770120304,-0.006364166057124767,-0.0919289785943365,0.08993168325178888,0.02249962155024607,0.08408475534758998,0.13492452048237064,-0.15091714486195124,-0.1305443918078126,0.042980606878385175,-0.055943754656648595,0.1516993602395438,0.06226427050691607,-0.14345112692514903,0.007467583791102085,-0.008155700608616832,-0.1841652257041212,-0.009774253285835238,0.06322870725105459,0.08340154844197456,0.10173135297099124,-0.04642627744623633,0.02387441550456052,0.15739502214703968,0.15655321590955656,0.025885209910187168,-0.6973284144220516,0.2014594398552843,0.05456499199225552,0.04865895191316495,-0.02106063804799256,0.11121039088686405,0.059356346145545975,-0.0079018651223836,-0.04520630698992134,0.10079141485423482,0.22799737369661074,-0.22983164355457844,0.051837160976271265,0.05553506525645369,0.2276815729201737
338.720703125,1.178497314453125,0.31441886190752394,-0.26427073849969096,-1.0407829205928751,0.8520794299823374,0.2222015254280899,-0.39078093541840736,-0.5919202148660566,0.0847512894938951,-0.1778426832162764,0.14639548513969988,0.6990936452009113,-0.014536404990146435,-0.2831184417836647,-0.22347811190960903,-0.022837195637320243,0.5526363778021735,0.15927155144214095,-0.047254225251982376,-0.4386244425140145,0.08172440524586652,0.3862524674809597,-0.10058892713353403,-0.12941707535521849,0.015132915224926314,-0.10251352088224634,-0.22934427311349598,-0.05614685053009268,-0.036709586699911215,0.05593542972505998,-0.006274570336717361,0.07025171622179734,0.050510297129970204,-0.16706576911504212,-0.09546730903990541,0.1745580154581582,0.246609663680195,0.0025475877880151397,-0.07648779033212039,-0.5660993523752231,-0.09315023210630405,0.32185174440287,0.4127401044894944,0.03310056201708797,-0.40015524940369224,0.07925518064359635,0.09948949837728424,0.22472856001186292,-0.020080349727917363,0.21200497250852213,-0.11292793262472495,0.6697666227685775,-0.20661964641610694,0.00047074816487570163,0.053199753620223,-0.08772010259138924,-0.019662117280107323,0.022501488355286977,0.01634924783802302,0.015133846850485818,-0.025850381823643024,-0.14327861009641432,0.16482459745949096,0.19458071013083708,0.029550018687358074,0.03284171316447469,0.1704058235204097,0.07796446770202704,0.04298746816336363,-0.0359064481354424,0.06652848404529974,-0.010882162246910326,-0.18446705216507184,-0.10353046474754068,-0.045506864697886826,-0.08256160173878188,0.49112235498001067,0.08096365269518135,0.1265389014127426,-0.17400680560547627,-0.2732085252362408,0.13183791575367082,0.1842430499291233,-0.47914846362000285,-0.23014990284703732,-0.25024551125603217,0.10907990834900824,0.0878217794314765,0.12590935489745927,-0.05755144141379938,0.001599478172926166,0.26985532592229994,-0.057273003115724155,-0.26543638381859375,-0.026840142492234997,0.03745181331437818,0.056632961058529836,-0.13926917861842747,0.20070552107706338,0.15784100514722324,0.36592567026216893
344.75360107421875,1.158599853515625,-0.25105349821383777,-0.27408970062948446,-0.40871603985858534,0.6218446909535635,-2.289927398722159,0.015220655500519719,-0.16000243131906547,0.3932006756699716,0.0005189053882716328,-0.07026070741729377,0.0748625508688899,0.025117745555456854,-0.06491877569600181,0.03541693969593297,-0.26232527846726206,-0.0795014126498507,-0.04297477757644917,0.04446327514721225,0.0877362549113649,0.2602921828540754,0.05598738931456132,-0.0077619252208925345,0.13814283495934523,0.04520759259574078,-0.06063333388146724,-0.005578439390625606,0.08416561829883382,0.005767910317076865,-0.11453565604080419,-0.1288602869645236,-0.25144731276821836,0.21907848308937003,-0.12961797427023208,-0.5391241278186364,-0.33237039688057746,-0.04365540759510002,0.03240848999856061,-0.12058918732838496,-0.06399505032658333,0.3231042420335683,0.2984052889768182,-0.42994694101017916,-0.04477847498113088,0.41041112416214837,0.3339670526403069,0.31328308627924606,-0.5704469957590761,0.02829027327492007,0.40296823570717855,0.45874690941567176,0.11384100531816778,0.41616728026675,-0.22393249135433665,0.14375160428845404,-0.07165139264648984,0.04326158093666986,-0.08177050009465373,-0.0033282750102953352,0.007599838001924884,-0.039942498215402356,-0.014879740265733108,0.06729443145551327,0.05386871342671505,-0.004006758570332692,-0.11742044837075681,0.06509474851249959,-0.0978750986373593,0.0023073018037966745,0.1509261995166084,-0.015109368477561311,0.004938552777559491,-0.02831277367069377,0.07269331395002741,-0.16046955319621203,0.1127364360677161,0.05638566512802168,0.34839270362734737,0.2146864671332102,-0.17701917058050864,0.16460254671234117,-0.024300717518058727,-0.5173330085795149,-0.2606049720906049,-0.9861191674047438,-0.17086650465984826,0.03980961905726681,0.2770391572088335,-0.1260281238332832,-0.047065165040161956,0.009065920454102367,-0.03478044165512345,-0.05479492581909202,-0.10050440659752549,0.09012883219443094,0.10532962097221416,0.02782107304003635,0.3880599420033384,-0.10198682163165318,0.1006160617394301,0.008242088703360304
345.9122009277344,1.159088134765625,0.14341238521415617,0.06912851967620273,0.6187391027490272,0.4011544381022368,0.4618033604515619,-0.09706461716766973,-0.42912903044298945,-0.0186964825522089,-0.004401074503587623,0.042356153318522514,-0.0893072301715456,-0.03739617213036861,0.04040928333217993,0.017614708650772408,-0.0006342776104944112,-0.07923050611794485,-0.05711717275732758,-0.08841461646662102,0.09182402402979581,-0.049961670618297725,-0.015219462832344745,0.018527593760828867,-0.018540008403756896,-0.022603399620138676,0.08591979913740301,-0.005909148926661047,0.10255309242705238,-0.06894731818768475,-0.01566045444375002,-0.12598480511935167,0.034782957024376004,0.251927892112073,0.35190269904516697,-0.21545332627297625,-0.21900476403956265,0.13681985588520493,-0.344609291277313,-0.10884588266877143,0.20936451182311966,0.15222283441093087,0.08201236748354991,-0.3025116744917896,-0.8388326581608337,0.04342711845131455,-0.2285081046960288,-0.21950830151209016,0.2694374833566166,-0.10570911170040972,0.03493012330477595,-0.08633863944156663,0.2850260838599231,0.4378876302810759,0.013650260908902187,-0.09725256218950298,0.025702757377179804,-0.10306044455006139,-0.03229668190692609,-0.007177313361714642,-4.766746477677386e-05,-0.06030808095085474,-0.016408769385127045,-0.03226391644554177,-0.14676625429937115,-0.1098022046665127,0.09143049920575011,0.09657883517817152,-0.05789297487742713,-0.13261528350789434,0.10263479483710065,-0.008826134049122997,-0.0113140071618077,0.022996304320002492,0.01871696888738619,-0.07430073974724392,0.031335320155505456,-0.2891368687642625,-0.33540757973342805,-0.16162514673838543,0.009411456246164143,0.14918333271871667,0.06660633501660126,0.11458827159280369,-0.12748859327039896,-0.29849243812600323,0.17732152920729502,-0.021407870044843333,-0.12285390732143853,-0.12295528892243503,-0.26999143333150705,0.020633963153625326,0.09537647101269085,0.08372718251554545,-0.021041305411898532,0.0378797582487263,-0.06847908627839491,0.08474503538196765,-0.08903305907172449,-0.49428882356429427,0.44162450979701423,0.3585425372030475
347.0712890625,1.17791748046875,0.34170313158608756,0.14292747764290947,0.11886840802775617,0.3376491046115925,-0.8429474440599907,0.015585111544215699,0.015140680232244214,-0.041561447296555816,-0.022771507181934984,-0.01890123022280092,-0.0030503840266606188,-0.0022105770940833887,-0.00405755318122119,-0.06502576928207207,-0.02921938180715014,-0.018081863964328197,0.01087615160894508,0.11582152477304035,0.022676882489361744,0.009679460801493693,0.14095489986669127,0.017712281695317536,-0.0063559676144266854,0.0024831869312870883,-0.03965283865839195,-0.06463534454757913,-0.025253134619755462,0.009746739101039893,-0.09003491723494961,-0.23821998688077634,0.1870171784627266,0.2853501072576856,-0.037253153722075036,-0.4641501636928145,-0.265437365970818,-0.15888521869172081,-0.28392697476089973,0.45638151153277945,0.23911851673101364,0.06378404829333949,0.050212886013163455,0.11728315638777642,0.32939775850870334,0.172635118025429,-0.11718572136222116,0.2809406058899067,0.08506999646655089,0.0863671246422336,-0.08941780221152154,0.15660773468301814,-0.07717075777335176,-0.16592093362503454,-0.06725192368174814,0.14151881098873462,0.13790479848766715,-0.10612734212819838,-0.03079324499530924,-0.034157856804988916,-0.007954143070544645,0.005852034222816237,0.020772907424719284,0.0014231074173432284,-0.0320293517913299,-0.019368802341738517,-0.013014701956399623,0.04959619336758411,0.1571427520712036,-0.018376141300448935,-0.011760716856005222,0.11056076384398816,-0.05307966457125247,-0.18393297700553105,0.1466751874770644,0.11325442737794414,0.1502426958089667,0.18196349542365867,-0.3858887179346192,-0.0327439698273715,0.03526091754903314,-0.27422703438206925,-0.005484511615416375,0.3108405096916795,0.6746885478861852,-0.23046109949191187,-0.12457383464793093,0.2550974359172054,-0.3060503731026481,0.1779502808429434,-0.11512007289535317,-0.1857664706382346,-0.16294466691773304,-0.0686624111684394,0.05997880994020327,0.044916176577176496,0.08601815727249607,0.15343837607701633,-0.21181951187894268,-0.10647214495649544,-0.2624260206202362,-0.30041199294358845
353.3240051269531,1.18829345703125,0.6314932239499199,-0.14994768730224112,-0.2471581880806535,0.10450796265106019,0.7454414717072484,-0.8929395103713086,-0.14737953001543058,-0.0915947447897532,0.10987931398982688,0.09412736049258243,-0.06264054462359826,0.030341998573503316,0.12119593683037978,0.00800688008179742,0.03226193781962681,0.020558260757595037,0.010533202946874714,0.04380973423383673,0.029696927303338196,0.14754413910063682,0.03873089328527104,0.149415938383057,0.009176123434585574,0.024576561168106904,0.009789213327130748,-0.11142409387670396,0.07669090377858172,-0.10657378566689796,-0.034640700005895975,-0.1765907402418239,-0.4207252251955154,-0.31224548925859125,0.12736730200940566,0.13935117846396808,0.0727689055030032,0.011653604423285831,0.04021638631934281,-0.029904627201713576,-0.5195047093416445,-0.11761803960388865,0.06483367720311514,-0.15928038694246824,-0.041511835427192965,-0.0067891141806880086,0.36383867570748596,-0.034051804515954576,0.08140186891769985,0.2954925455930753,-0.02040033047744956,0.11120509206427961,0.26909804487236166,-0.2829721403095178,0.05092935303745583,-0.10277161706864094,-0.003826556513898607,-0.012641673098921478,0.01007199473930988,0.09701518012549346,0.13089329756572474,0.036185014397145915,0.008229175806279238,0.02108185951442309,0.0022635238153505387,-0.04146958848872232,0.0398256980601138,-0.1259334114131473,0.007362285820684376,-0.04006209702455514,0.06728373368490323,-0.055928281222980526,0.05956831893489527,0.13315216634038105,0.09478698345567411,-0.04232316825113884,0.1720788820956307,-0.0765819796939506,0.18247577232304207,-0.10652919723510858,-0.0349153624571954,-0.11142650678296645,-0.29319064588547694,0.10145079740660656,-0.11615213383126688,0.03202612837521101,-0.1750781403643715,-0.038256562290980095,0.023956412264286957,0.21360072971930458,-0.1202612015378492,-0.11159210334407764,-0.07019945134905155,-0.01883703069460917,-0.20709832488493954,-0.09283358938257982,0.010814803355174622,0.11080574536305769,-0.0006258843350641875,-0.051021684996241726,-0.08579806304641208,0.2752986682646936
354.5122985839844,1.168304443359375,-0.05597096072433838,0.049717123946948244,0.6571386562904675,-0.8782888058878078,-0.461262608744689,-0.2881834005713526,-0.6975766911593397,-0.11086139417973055,0.004377221200902776,0.033365116816994625,-0.0022354049609502693,-0.061205417958626475,-0.01637979250820806,0.2303659882818039,0.002594672090132799,0.06558328948939078,0.08304273012000604,0.0970554077432,0.2110097908280984,-0.007646789132835122,-0.08540592497551404,0.037665835632942166,-0.04092003193148139,0.01995770495350068,-0.03669141995161216,0.0016450292391554668,0.10533420448417435,0.14046580068027317,0.026545762730851432,0.03559404183249054,0.027187068964082538,-0.02343448769993767,-0.04071416959628978,-0.05430737853978007,-0.16200753313664576,-0.012248438065588046,-0.06413779034035921,-0.33530900818871473,-0.31201754165083984,0.026138129967809072,-0.3662469660906146,-0.1754811819253414,-0.13233037887667112,-0.0739978788111951,-0.1563914643897938,-0.017196972200079458,-0.4358724490032122,-0.15855403379172714,-0.09750383236870006,0.18311032808723315,0.045167119416349155,-0.04080397519154571,0.640364327891475,0.09958854295824374,-0.064194076031118,0.08439593652319051,0.05921235145195324,-0.03488436298099977,-0.02517386491687436,0.014420530435994571,0.013598568285566846,-0.005031482282413103,-0.05383366268517713,-0.027416647983614748,0.10275959867717287,-0.04225558003471454,-0.07290329869826022,-0.1421590343918345,0.05264392442844898,-0.13501410909262423,-0.0603083171258955,0.07120939263874092,0.1603684676908723,0.20762965743893602,-0.16246736212025892,0.14955836722134036,0.026489555523069475,-0.12643837620422385,-0.3523099066766756,-0.19585931880361218,-0.39057898286770515,0.10381051775256307,0.395119906595579,-0.19552570061602872,-0.05883096169688326,0.6544104776658436,0.15142004663952746,0.07449289520107255,0.048972862351710424,-0.037624249009182445,0.11637597768336343,-0.038474599904672745,0.1704014304475463,0.42814962619456454,0.02565658387675409,-0.35947901838502616,0.0945144061080557,-0.08517526153351662,0.09448642679506739,0.15349645459679437
