start,duration,0,1,2,3,4,5,6,7,8,9,10,11,12,13,14,15,16,17,18,19,20,21,22,23,24,25,26,27,28,29,30,31,32,33,34,35,36,37,38,39,40,41,42,43,44,45,46,47,48,49,50,51,52,53,54,55,56,57,58,59,60,61,62,63,64,65,66,67,68,69,70,71,72,73,74,75,76,77,78,79,80,81,82,83,84,85,86,87,88,89,90,91,92,93,94,95,96,97,98,99
9.550649642944336,1.0087003707885742,0.46706158425463945,0.23403868745734094,0.18166268047253492,-0.3241067440164514,0.6173259276532782,0.1571073774269026,0.17132106357419863,0.2536191849178274,0.19960703847224823,0.041544073942429566,-0.10383987164475095,-0.003210471114583245,-0.07294950575674955,-0.12565066899897692,-0.17031800786752224,-0.06483601365422689,0.14208454525741715,0.1320821213796505,0.031899290313302464,-0.06618952043456049,0.04205243540657328,-0.001597003428655007,0.05980656478663233,-0.07504175824769987,-0.09932298173015601,0.060764494477442255,-0.032362831612467835,0.006779791187356443,0.07489285049797077,0.0021654191461047863,-0.052422948830729635,-0.0384285525765897,0.06210394526256403,-0.01884566981424733,-0.10432036972978573,0.008907290453127345,-0.04829173019979548,-0.04448305147187856,-0.07690527356668087,-0.03844035354385415,-0.045932218181368306,0.10132373527966657,-0.04544200981797199,0.3488285890939949,0.2515971582764235,0.11940625437052087,-0.07882261382194802,0.012900435744243169,-0.09406092844955925,-0.07830836700762082,0.03256830191489086,0.09437693840198522,-0.05794785693165284,0.14984057525237693,-0.10750813862704163,0.013791159422444582,0.03126417807654097,-0.022433205542789866,-0.07421978795372502,0.10737424688279618,-0.046946662983751095,-0.06851978382887133,0.027092611750355544,-0.3526162326411412,0.33389020573975464,0.06480261792134843,-0.0687832666929103,0.42224449800713126,-0.4067510642033884,-0.22491033623016501,0.1724002792123338,0.37866961006319516,-0.16029948126405552,0.18623991501875156,-0.16425853222277603,0.0010460143826695675,0.24881649208896833,-0.14460943153034064,0.42953611903821926,-0.5243689529278721,0.34022754433764635,0.1326382674449267,0.08570011114091244,0.14764725297299797,0.18225132348414966,0.12063585640812877,-0.29670717171199135,0.10251128261492731,-0.3025676758288549,-0.3120907788804863,-0.06511938750637689,-0.11103860424055309,0.08465919770771924,0.34474167960332713,-0.4827231505263043,-0.46558151303727735,-0.5424047221601277,0.4845232697385979,0.4637372936090933,1.240249874707821
10.55935001373291,1.0083999633789062,1.0946077639904734,0.5743495825180992,-0.4546641733129539,0.040352217801623846,-1.236709360121207,0.33668437996852024,0.10960799610470288,0.20116023452735204,-0.11509619889795329,0.3123410846874137,-0.42827083935400007,0.14526215074948007,0.08865991956553086,0.26316187256572365,-0.023653317841988257,-0.030399113176077554,0.03990840309209899,-0.06667878642354573,0.1127649716504135,0.1544949250463038,0.014361067311657448,-0.021094520882040738,0.027193623823405358,-0.0307243493348017,-0.035612320267094225,0.0918679404111507,0.09400788116533668,0.05560822654599994,-0.0742279242887951,-0.02856252270562916,-0.08608983722654286,0.02244011804185183,-0.04272086997898455,-0.008125224423607429,-0.02719213747911429,-0.06655888135853122,-0.13835149671582198,0.019864471303743098,0.10483513166785208,0.049590804026645466,-0.06912493258531205,-0.17749332626719955,-0.012343450457200077,0.09043233585450502,-0.16493453381051898,-0.08793271163379532,0.09510838562180503,-0.11295706862952107,-0.03063142345945724,-0.012051352287100192,0.011580889045707747,0.11389284897475453,0.11371478042701162,-0.14764202032565596,0.05926802077251754,-0.04558224210193732,0.01986114182388106,0.04821350667854879,-0.013369757704683183,0.028985094863654373,0.026766825554245945,-0.13942526281695128,0.20918807549460972,-0.017064661207288886,0.19387431592681958,-0.31927372449647906,0.018396302658011038,0.3455105183429499,-0.09640062124331251,0.21162088275838473,-0.16422766621162985,0.34736705735116613,0.02763951797904678,0.04738686422136491,0.004260252308538332,0.278785802977483,-0.25396147679575826,0.32833020065199914,0.155627412309272,-0.03567819691844411,-0.37435953251466886,-0.16058967752533235,-0.02014461986037351,-0.09120891434797732,-0.20048954968001062,0.569622018097992,-0.7474051328123448,-0.14394664874358315,-0.6099990182085326,-0.1117817904025832,0.11374247863832483,0.12225343410942555,-0.3542723882768434,-0.7488738031414964,0.34450145711078295,0.32316073218447416,-0.22405419339328345,-0.5776258841049154,0.6567952618571684,-0.09506894521928397
11.567749977111816,1.0392999649047852,0.1956704762822244,0.2734000071762783,0.707664085682598,0.2490750929452572,-0.01960020781707547,-0.1870158203595405,0.33896023567753863,0.02188911074547208,0.16900805763321694,0.04516298896490473,0.23134877875776258,-0.006659195763682804,0.040866926338584963,0.00983277503927299,0.05092082802788105,0.07238500476581874,-0.09516616539742198,-0.022006163771893978,0.04824004438313601,-0.01927804754101423,-0.08459613085029495,-0.034952075713900896,0.006124686316350296,0.03251297378648374,-0.13777424777841063,-0.04893020035368306,-0.024779304263589846,-0.04668640410848093,0.10486917158604933,-0.005216028220080656,0.01742188410565406,0.1388484444693019,0.1550276486537997,0.03633594334463841,-0.11386530605907533,0.04525073831358465,-0.06301878716179402,0.03123970169508781,0.08403496533238512,0.14009921331618208,-0.10957649946895597,-0.10645417445668238,0.034766418432020156,0.1381611522918547,0.006874910265203184,-0.11228759084664136,0.0316805708851815,0.09234203019295606,0.1527392358185848,0.028851535331816835,-0.06553141534014649,-0.07184670344877031,-0.07617240659805542,0.2080480802208154,0.011538025111368373,0.08360655295392325,-0.07684090033965442,-0.04334137707881627,-0.011377936238379982,-0.03848234609494172,-0.05717503558534446,-0.07270042540155675,0.040685582165698245,0.29307302228959764,-0.2912236570386864,-0.21453595522768784,-0.14473046619636734,0.22250668930502449,0.23727862602509256,-0.2602508013635881,-0.35262711890774834,0.05937491447040929,-0.009666768261212877,-0.563854218134311,-0.0031376881092718897,0.04597316800466844,0.3384849818306351,-0.300680072371144,-0.039100151021860374,-0.10186184518137048,0.1160097011412679,-0.25166113023472775,-0.0459138630690131,-0.16315171315334828,-0.04940274210901843,-0.0696719602846697,0.05397481185798126,0.16193825195952596,-0.1311365532797977,0.10364849086326122,-0.22152831234805073,-0.05805630552026941,0.15628612686592824,0.4298446348914624,0.33998839789263346,-0.09764349719178124,0.13715553896229152,0.00153541740892673,0.5528713003944009,-0.18264791510797862
12.607049942016602,1.0784997940063477,0.2330391567042298,-0.3536578669162631,-0.017402526711747773,0.08858007791605443,-0.17744865932972528,0.08142573822332777,1.009102619874519,-0.20448422998891483,0.029710220711610322,0.006795227774367724,0.12196435240673688,-0.2300131693149437,-0.03375731692879043,0.11623320160570937,0.16574068788224372,0.04855381140815356,0.06704817051399588,0.00025509883113764963,0.046760650457063915,-0.045874665575556875,-0.02530924767717947,-0.20421206737497893,-0.06035255678805574,-0.04786820966570769,0.0036617136639756635,-0.1136542097512532,-0.06266156377814489,-0.0731822968838073,-0.26720298489077565,0.004206137157051357,-0.0689946090031907,-0.16288766210942549,-0.11664730174243573,-0.009338015929166138,0.09919260358546529,-0.1048649150064304,-0.14503108118152824,-0.14367728514736777,0.02053264869905593,-0.11379115092005865,0.12135570271455877,0.10605048999383658,-0.07762942760331001,0.040951451450585236,-0.03099193737811767,0.09472436095887565,-0.010611166286319682,-0.008432653549349522,-0.020023324184338477,-0.12519928394694535,-0.06178590152281696,0.11903575836168076,-0.07367060136428737,0.05982324934470974,0.040625038015812735,0.006946028964944232,-0.04693294172651813,-0.0057536269060156535,0.0605453066006389,0.005462375894389902,0.08829043821720294,-0.18613299966197633,-0.23572303660058844,-0.07018141454328888,-0.1484999741800268,-0.03382548923859337,-0.03988680343760609,-0.3572907411001433,0.044239026740265655,0.18365992428659603,-0.19264119590114942,0.08998594790743335,0.11548168838328514,-0.09904055740502232,0.09745598727100288,0.2840418948020257,-0.2008352014441936,-0.018565445635781518,-0.3210493888723915,0.4996543469505563,0.1107374592006421,0.08764089765131824,-0.19582423400999718,-0.028168713233062366,-0.17590621305946227,-0.13836016411249696,0.03190739966677233,-0.005858714266593342,-0.08754942895260012,0.3622927179532707,0.05112240505605575,0.20450276841353954,-0.14413599098612315,-0.00240752088014326,-0.6704729241589825,0.43716357696213676,0.2167379926787408,-0.23262680387996348,-2.07474425080881,0.27879894173441555
13.68554973602295,1.3388004302978516,0.023470845014779695,1.06835252816022,-0.4714434612916989,-0.773756658554401,0.2620289238288875,-0.4167839507947285,-0.21937613884232418,0.26328880771766383,0.6281771239635283,-0.052636842553860023,0.057327935559794575,0.08485392732079318,-0.005051619976145186,-0.019003502354323697,0.0043213212989486605,-0.1164220692903492,0.0522356025695235,-0.09920658041497615,0.013174634946457126,0.06902855001833608,0.05480721230405633,0.02680369487083443,0.051302712935084066,-0.11051045000149011,0.4325020400311267,0.08252556787834243,-0.004016234996527375,-0.002786979764145355,-0.024148335886904324,-0.006676539120990216,-0.007358530723902919,0.049975371222025396,-0.003353510144542072,-0.03741157825385843,0.04756019855216404,0.19523519924520522,-0.10281453417720139,-0.029677208729577215,0.12281358177881524,-0.004518649922190242,0.03600852948317863,0.025277434117393027,0.049885937737778205,0.07484133080977251,0.021262421698264387,0.08232056868228885,0.06758603641896624,0.015042013189744196,-0.06519914576302366,-0.06669818570269795,-0.11406833662815967,0.036426498471976695,0.06973993960729759,-0.020252404002020608,-0.11198043229350174,-0.0055732132932052505,0.07983790287689295,-0.18637115897559708,-0.40421539908654863,0.20219752396775442,-0.13048859921813008,-0.1901619257478727,-0.1716714521388081,-0.6458587848416157,0.15180919093408465,0.06639442316075754,-0.10231329538367788,-0.06968058215247148,0.0320527757550938,0.19457691590598,0.016659829665643527,-0.24984973071858538,0.5288882769250395,-0.11681304111000822,0.15589714103544933,-0.00582396143711101,-0.3489871515218417,-0.3152535939814873,0.29431032450362193,0.00416136280143492,0.17983262913817072,-0.012463062698767312,-0.058055384508131004,-0.19305959191534972,0.023464852176362287,0.08894886857644911,0.3263022350250642,0.05947194102944676,0.11943321483757505,-0.21223337037602705,0.04600639779506963,-0.04896815240019391,0.2193858096648053,0.09041311059468043,0.3737408086789097,0.11506380720705676,-0.311487127411913,0.6460022397882954,-0.2656993879086345,1.164611552296822
18.19084930419922,1.0181999206542969,0.19915317686927636,0.12456011556289516,1.1325937814825733,-0.6468768936764837,0.42922640604918605,-0.6991447005134346,0.07787991081779559,0.04468606173453207,-0.010330923985338351,-0.10479255238114539,0.046242382290191654,0.10894475043209655,0.04217598005031723,-0.07627569959709397,-0.04489893208884944,0.057950407504394966,-0.08013554378732461,-0.0767005063298332,-0.017005511011930815,0.002553565442667322,0.046187523944309875,0.012169536626046387,-0.09277915439041838,0.005595163427591426,0.0139929069461423,0.004067567980708918,-0.060586818772976864,0.03963029686830849,-0.04850564569945935,-0.07829193544481122,0.057146934475023746,-0.053742328297092606,-0.13895737684849976,-0.004295789675216955,-0.18253524415658795,-0.00579330049298514,-0.05635180604823019,0.08798743104732376,0.06971858923800332,-0.006373903268322725,-0.06975984171357684,-0.15256044705874486,0.27269198743109163,-0.1197062571670813,-0.15904024161021235,-0.09544367878229475,-0.04566714167804314,0.029358526470942135,-0.08454653130549708,-0.08882466671738065,-0.09896049785145358,-0.07265095864614322,-0.049680054467802215,0.05058726930815284,-0.018502941642376293,-0.1802347986203714,0.06403639919599231,-0.017372654394196524,0.059205006845573796,-0.00851132945183181,-0.02714168793293254,-0.0693783174930059,0.0762173121230083,0.0012881710663130985,-0.09031783266242956,0.05222537170135121,-0.19544194617789837,0.17368412346339546,-0.011130496054906916,-0.08688639389323943,0.2792032665306999,-0.15704825204293377,0.114736874071727,-0.10712725690306214,-0.04952892667030181,0.25065057250034395,-0.1697738854875077,-0.2776274593693728,-0.21633500726402702,0.0023196417569522412,0.36480888259603367,0.2575426775773646,-0.43099497779270723,0.03513014370854456,0.16956665794479087,-0.07809014307326083,0.12030213673378898,-0.7552547982328762,-0.6119373026544742,-0.3002681166618964,0.5667092282273457,0.3666056782854511,0.042767799338840284,0.24588545216791619,-0.521993744638728,0.03077246825691085,-1.258163655639348,-0.06284961133036335,0.7083656098762575,0.38297790948332067
19.209049224853516,1.0589008331298828,-0.040791279631349264,0.24351947469922736,1.2693311567493397,-0.5373322239414915,0.1924086476167322,1.120758894058203,0.37650232430121316,-0.11861007908979045,-0.03141852533896364,0.06403693478737643,0.07879311970384265,-0.09740973094041133,-0.006073535750327194,0.017610875979761707,0.04047746340854528,-0.12503542932484676,0.16531437334509572,-0.005672638580439822,0.009048828812643156,0.04634300086490305,0.0769019064854662,0.0018579012654031642,0.06520853057978977,0.025716974094316395,-0.006391954282192247,0.045517136003795595,0.04020648561212523,-0.043293026887776295,-0.06248335481820932,0.01839868082837812,0.01405509341960763,-0.09048668346577564,-0.0286391532647989,-0.05368683058690872,-0.09097600191902046,0.03763628876539879,0.04951235443271596,-0.023501461770346004,0.08237706538048192,0.10485689468901775,0.028034582833266635,0.07879156953979438,-0.16448929328895395,0.1314497812310813,-0.031952920080425364,-0.10349556610594561,-0.24281821960277966,-0.0975247433214512,0.040839454811411185,0.012144844753577222,0.14842671778255806,0.018251240140471185,0.019701551108706333,0.037899415070708875,-0.06767697028129646,0.014534365069527874,-0.06460971626055043,-0.06878516913653446,0.01781649925036678,0.027602583615658784,-0.02996663667221764,-0.008733575234220657,0.04578114760630914,-0.11128167867320424,-0.23906827395142582,0.3013757091243372,0.08388615678634825,-0.42610954240677573,0.16232269099359886,-0.46535062158137047,-0.2734342231587653,0.27629945509061826,-0.13862771319157025,0.13292881244134028,0.1137298661735199,0.3132405946558808,0.2758996252446413,0.02000025149918925,0.08078981843883477,-0.12717152019571565,0.1223925446011085,0.10727238156155888,0.06148739403455616,0.33695613260021606,-0.04584107654814505,0.13147147637063467,0.2814703361362312,-0.030110239874994362,-0.2222548812236759,0.5851542237308806,-0.1541538148037843,-0.3486066943831406,0.4512600954935017,0.8163776998666213,0.07371071337186971,-0.8517008692227623,-0.6015003926556578,-0.8726072137116333,-0.887347988654048,-0.4756158560786851
20.2679500579834,1.0792007446289062,-0.7896093202395549,-1.9633804689315304,-0.8862182607607874,0.16083227516508536,0.3950798483070606,-1.5682269635556936,0.18341161173894574,0.19670187452361573,0.14275854653830067,0.29546867850842823,-1.8286789216095944,-0.3575184788188153,-0.01244157271735949,-0.15053377328347814,-0.0656756440883382,-0.08408228059466133,-0.056680215852974246,0.03617483981159534,-0.0372896020587923,0.008413162845202053,0.05994152026443387,0.04377715007523898,0.049533371514072604,-0.14629350611634634,-0.020127321785571372,-0.1534416571989989,-0.034757618979619403,0.020745769852171997,-0.06499420846359966,0.04727526164583432,0.07874524815787753,-0.021070432248700355,-0.07883686205205993,0.06828260298915843,-0.051438580753252826,0.012675754082546944,0.06475249621711607,0.033433554068543994,-0.16115813553917385,-0.09576597394212687,0.005693163585675953,0.017396267017982484,-0.16471714311803906,-0.0009869528752885176,0.060861681842803515,-0.1639194589643157,0.12027653334273172,-0.08712566001952227,0.17715888737364882,0.08402227952995583,0.05874681033101659,0.13118826745049622,-0.017837142515992402,-0.2079181094102047,0.006533107622219647,-0.0012953887924790392,-0.022546925987289204,0.16848628266718385,-0.0515438074553208,-0.04344773208436897,-0.1415519042501272,-0.11614905282840556,0.04778722226907754,-0.06297158798095531,0.46504087595854077,0.05482349829093406,-0.3951200639738119,-0.7202143810118802,-0.06628472140132795,0.11125032383994549,0.2937287501687559,0.04488973051142421,-0.13817847634180455,-0.029228969308287462,0.05344386999235687,-0.06807817753281621,-0.1856735929680101,0.12179225620888509,0.11968749835412737,0.032074102504779725,-0.10397130829389134,-0.3870188890757146,0.02507934844050949,0.48749158268691145,-0.302656986063398,0.2806088792418243,0.556144554971804,0.21084151710084292,0.10619352365021927,0.03608396511977365,-0.06016977506994799,0.00484912425136616,-0.09662299923362583,-0.29241680843412565,0.49086115620969073,-0.5503469122700392,0.08061527228596597,0.3573259974377351,-0.24109778068052012,0.28238386481327366
25.632549285888672,1.0485000610351562,1.3027040384732649,-1.422500331758088,0.8130093822323685,0.7210792852797652,0.7612826467279988,0.529664131565899,-0.012075676866358732,-0.01044878108829082,-0.02884358304202837,-0.17631234800062057,0.036243599209856765,0.033532586684859596,-0.004492583465935522,0.05011628912991753,0.23865719898627338,0.061730477807511175,0.006092934771199973,0.02407677956717888,-0.033325506350569786,-0.022847770908587934,0.03332792352607949,0.008190405635066712,0.07637253789416674,0.021284502247227062,0.07170386199862994,0.059641391320639545,0.0794884826819474,-0.02027747368038449,-0.08395986074224769,0.0031642244440852566,0.0745226137981611,-0.019923499598679145,0.040952372020910024,0.04303300012953525,0.06987460590090795,-0.17132839614687323,0.02729386051903929,-0.11371149106112523,0.15997510867375547,0.16116130155137146,-0.03740499165535459,-0.2590546664599816,-0.16783122123529065,0.11836402051667916,0.054161837198467046,0.00025835986377535864,-0.05749931684566782,-0.26524829264543376,-0.10409130174633448,0.06305725379130488,0.0011970700405438952,-0.15512712240875384,0.08976073021084369,-0.067886187201875,-0.05212527448446584,0.01425827536887395,0.013482614110750621,-0.01808880008402184,0.07822883644041932,0.10103671092242371,-0.11710974476093813,-0.10846845123529324,0.27579099581380084,0.12834494662268847,0.10185238082929905,-0.04363575039264085,-0.357857467547446,0.38648608146581215,-0.4418201687034229,-0.06174212634459598,0.06003806829574216,0.03729201391411072,0.03260242577701173,-0.226238176145989,0.08317158655005873,0.1411070071130349,-0.51061100096316,0.2650368337940434,-0.28713572276353005,-0.39310243816236456,0.3615902826120293,-0.12000432050926813,0.030488172364677525,0.047183686606118096,-0.1432542179256605,-0.35063833922867366,0.3135433823164672,0.32537239907756765,-0.245065847148767,0.29224294555365926,0.04806855041894039,-0.32354672988911304,0.5280129269129966,-0.21789609591476827,0.1850134443766987,0.7038263669359589,-0.4099245468426843,-1.8433045968497517,-1.0096377227896287,-0.7387472059296237
26.681049346923828,1.0485000610351562,-0.7082191683242463,0.8600639688000077,0.7064869139120814,-0.5438105234446392,-0.4801100057919355,0.41168039183816263,0.03989839932385027,0.11829479532030183,0.16410651368303358,-0.7598377842866723,-0.26645950809947516,0.30087615281496444,-0.003710393299221755,0.14527311018803876,0.21610940870669243,-0.05211489985941222,-0.17611344461443015,0.090362937293506,0.03976159820623865,-0.07681178660260307,-0.004046663967605849,0.14180051025091756,0.029204358152770078,-0.02147375243516955,-0.11165036662252933,0.04325092227580528,-0.04534181508543682,0.054529403628341265,-0.023733794581499094,-0.007016381276592718,0.06866158326125044,-0.006530177650796301,0.04405681046421067,-0.041661461171143055,-0.03905897536587959,0.07704359317223715,0.015080397670530113,0.11412633818588584,-0.07990252586374284,0.15758389838435496,0.044821148139403376,-0.11631893751891087,0.08744756955326068,0.1231221553739409,-0.2690569684990509,0.05381187579456481,0.19153490627013317,0.4596637600546663,0.09388107186952657,0.24333771965311182,0.3746364179447328,-0.323895874176216,-0.1700820106748127,-0.20424201927513058,0.21352708226708852,0.04505045927029505,0.060373616899390234,-0.017554858361388308,0.001101182870553422,0.006960344844804914,0.04161401193853777,-0.07581862248452434,-0.14911677819903443,-0.20336054064317924,0.10934585747756205,-0.11197388635912206,-0.08625146257322386,-0.15155868132866626,-0.01845364050883104,-0.26753896347869416,0.22942697556726113,0.16081241765524862,-0.1427493341485377,-0.13627580227338756,-0.14167393786419297,-0.2102714484662701,-0.09811032228277497,-0.3134283850060232,0.3456940557068912,0.2601523019610921,-0.04844720772038685,-0.17445766742744517,0.028130894401288613,0.018609749407706863,0.02298941760350972,0.32960226482145,-0.17840350141622305,-0.6164308368774354,-0.08259772967938321,0.4401533773888759,-0.225516197763504,0.01384165029945405,0.23837769766496136,0.061857340066776775,-0.02162386108706746,0.295784420043583,0.18366694907483566,0.8367256635503345,-0.694807971722906,0.7647961828288212
27.729549407958984,1.0587997436523438,0.9019553101843127,0.04348479209595578,-0.011624066612410477,0.23173155369279116,0.9001999863095899,0.843124063520581,-0.10278374903071939,0.11367595697178205,-0.0908074712247566,0.30514889298297965,0.1571598682860142,0.05456493431578182,0.053351888555941133,-0.0973972386680245,-0.1113512920149683,0.03457029912041397,0.060573074424709966,0.007631908366707238,0.04267260471845309,0.0007590858277938661,-0.05421253065616251,-0.1678715323069209,0.03536141690493226,-0.11521779613025691,-0.03346262110637187,-0.004356499807838426,0.01914646583052434,0.04298712401235168,0.02460178202183487,0.11549255193773104,-0.11442529841189941,-0.025496731196205536,-0.012377064001350024,-0.056639758485018205,-0.06480046010269368,-0.03986578141379077,-0.034981567682478176,0.12576300684721553,-0.01550119061777305,0.03386517565855377,-0.12326747306165302,-0.14065808450306308,0.07455848613895909,0.09877554689666052,0.19166768300842701,0.02115091702963108,0.28318904354609653,0.12015241203185227,0.14353303045314506,0.0024745066571067176,-0.0025912564470144846,0.11022577076547486,-0.15572512755748236,0.06204941919258678,0.05076148765986281,-0.12751926772247746,0.007254136626505868,-0.050972425496838704,0.005230955077899102,-0.08993190740400782,0.1337008075226181,0.005708176529559506,-0.3426675688579168,-0.03477807554787165,0.07989071533284156,-0.18673841301244604,-0.1009142323785411,0.03294988305814327,-0.3718965203387409,0.572164685623481,-0.2727877341720819,-0.049782557893125176,-0.12404891012699118,0.08011390935961746,-0.3331265269312098,0.07561034369284504,-0.15586459862225993,0.021381216907260303,0.03356277298995356,0.08244202896087993,0.15446775337913207,0.19551845199324952,0.09992901932414258,0.3682798500802369,-0.7415924051621057,-0.48076770636805644,0.029729772565238878,0.23439730693246558,0.2578969461160578,-0.07245145057517907,0.11411143616471917,-0.5773964328313634,0.4381953575018665,-0.43566143621481,0.3173787248303265,-0.30167952330860237,-0.31536525812813726,-0.43947643974383876,0.181879941360322,0.3719609140769528
33.22394943237305,1.0485992431640625,-1.2309672848275481,-0.5627654183018831,0.2939797120879881,0.27202310262432916,-0.5107812092304584,-0.47963600311062127,-0.2492767246572733,0.03108703171556547,0.06537179210879682,0.0838678354113104,-0.503457935970038,0.2726055098873788,0.0019004785026822887,0.216311452618959,-0.061722937469227315,0.024224296423420617,0.042429801301554965,0.07184743431111615,0.01261516889149765,0.09268314896489184,-0.049422779784682215,0.03142693196985044,0.12777955958961837,0.06538226366998699,0.051898869085373535,-0.006569133784864916,-0.001694679360126794,0.00948858308947217,-0.06571098417768839,-0.016369213562133,-0.01935400458797911,0.022919872376397782,-0.10417867058489501,0.0610942374511936,-0.007624261631726123,0.0432632127498207,-0.022765295041846226,-0.02387959543842916,-0.09094815543353713,0.00866968024903779,-0.21273193324494688,-0.1524396781629016,-0.10496481510488363,-0.20512214755589714,-0.006058886578751458,-0.36234502981195327,-0.20097213005745912,-0.24168937524636014,-0.14414209630689265,-0.16368968425751268,0.23664585652299702,0.07951675274497244,-0.09126300579464212,-0.05426293945957935,0.12687933114068142,-0.0020121602347391576,-0.027107410288474493,-0.006031303897014955,-0.01721836771715449,-0.06333030323761919,-0.05402068167784952,0.13394594699808698,0.043101542727312155,0.03691918507361587,-0.054812567203066855,-0.2425802006368311,-0.0058618322042705145,0.03717456282969209,0.4667325110206454,0.11875852870507644,0.3688150317449507,-0.08366996681913588,-0.09443375596450376,-0.12932562433581027,0.08485548107942675,0.5525628492450612,0.27275166958512026,-0.48489766896904796,-0.07119001151954941,0.21590306513365498,-0.18512598632793334,0.8191085943749852,-0.011869876241892651,-0.5047656122286919,-0.28947309020653433,0.3492030843085412,0.20449677069899216,-0.12615564583123723,-0.09849822418704846,0.23926839863796862,-0.30670194941188045,-0.1033492929650429,-0.4084491595500192,0.1576045282845927,0.30990584474798794,-0.3018973347573044,0.18880685791001262,0.17643001969982042,-0.15844898258562104,0.8218773986451837
34.27254867553711,1.0388031005859375,0.9234654437625629,-0.30737997372272174,1.120217695665076,0.735473655797765,0.4799254145334809,0.401146417506938,-0.2507147108432757,0.14225627797769685,0.07811695397561828,-0.38892954310392924,0.020356307012563184,0.24574096156499747,0.06333745304693109,0.0549462161230507,0.1374268873127204,0.10846303718904385,0.03200517333022747,-0.01581906215262327,0.05418924652776705,-0.09281965577142859,-0.18224633051155162,0.041254063769628244,0.02392246428139417,-0.0845387159340072,0.009160746561867243,0.011833612757513004,0.03405790990303542,-0.006709149880725757,0.006608876431662442,0.013488259919956811,-0.013084164575560069,0.05885398511535293,-0.07118556989027314,-0.017532983162909705,-0.007402422007263163,-0.08853244366436755,-0.08902179519739806,-0.06568931165116769,-0.041477279863083395,-0.1654015471099994,0.08519132414914246,-0.22667316487982384,-0.02656756922378773,-0.06543574159026237,0.02936684706165206,-0.13387259220445882,-0.011336264527223734,-0.2349713352151064,-0.25454243161327844,-0.04701913775167431,-0.08036166407622075,-0.08104106410070495,0.025712253659632603,0.025457495848254078,0.05702138239357349,-0.013263582244584553,0.01707844694023118,-0.07666252142458496,0.041338616486467646,0.023765964479321253,-0.016361306513286183,0.060174974582883095,0.11741282070098856,0.04892691622573873,0.11305358978374128,-0.2251280448596635,0.09277731739274964,0.05074201988456244,0.36390635747622185,-0.194021434988968,-0.22572296038947964,0.024622323991816353,-0.09105924223597595,0.1703303261647781,-0.32340420917527557,-0.07741622577047114,-0.24539747142048757,0.3465711944072005,0.42201353985081497,0.44240801357887427,0.09896509209026103,-0.3697149287882865,0.5154084005124896,0.24898798380811266,-0.02935012273127001,0.37127723564852544,-0.06243506521290826,-0.5145006580424111,-0.19568178729970104,-0.23319366087121807,0.2215197160402059,0.19225095511157095,-0.04857008527111206,-0.24175372524733718,-0.3715629766403564,0.07057101063230009,-0.12276490979812925,-0.15525939908550893,0.08941190528595261,-0.19655179277132184
35.31135177612305,1.0586967468261719,-0.7440517379363045,-0.39224774993028005,0.23550555801429734,-1.7967665143697515,0.5132468776380834,0.6598597471600991,0.012434017743543389,0.0887443721672379,-0.15776340996974259,1.1309631347344341e-05,0.07837217688138781,0.052825193441187884,-0.16451117178414035,-0.07332584739550936,0.3200506315213219,-0.09824784273585953,0.0847955471383951,0.16787970578534414,0.1152096820694504,-0.06471259865391478,-0.14292615191318028,-0.008330609458065017,0.030045991575977975,0.001442673069875703,0.0013796765257928375,0.008745656997728318,-0.02985699335103606,-0.0016403365712944346,-0.0732314256126603,-0.02473589083980811,0.03975858626542049,-0.02087233729972558,0.029908433014591982,0.0076630257260028,-0.09521788187369151,-0.051024996587320355,0.047640143375582825,-0.02822254296249329,0.06864523071851225,0.05044474269757477,0.13408532415908006,0.0022072616549228194,-0.0866377560785128,0.19121630937429274,0.07497401379952802,0.020842576879714206,0.008950048717273174,-0.14386576546127203,0.4979819573555233,0.013277945874889521,-0.046633508522611264,-0.11446542115200291,-0.02175482314191267,-0.03263490712797526,0.03079518315755898,0.13105354121934532,0.009189745846423052,-0.026621059999547204,-0.065478161506772,0.04277454783834724,-0.049724666046732036,-0.08782795079658105,-0.03796713277954597,0.03856207528387409,-0.25916318050449655,-0.08625360080222509,0.05976243089849931,0.35035843872975536,-0.1998812665702373,0.06265440996244773,-0.25589905318680084,0.10640957601403084,0.2816403604628862,-0.26691108434536004,0.30912586611339454,-0.18644450314100428,0.5643845439447966,0.3387758925285588,-0.11726115048218623,0.5612652313913686,-0.14454302081259346,0.32061034110445363,-0.2284120660059121,0.05963437160651175,-0.34445307470408615,-0.638292226817059,0.4960552495021964,0.01885083747691857,0.027290062724563722,-0.28874240447272426,0.33716538950503516,-0.1607692947482468,0.04279296688364298,0.8073592830262584,-1.236723675985544,0.14334642892644606,0.5845270174733811,-0.7000017405767044,0.5011600016847365,-0.1554955597662438
41.03485107421875,1.0387001037597656,-0.6368551331518384,-0.35975907285562647,0.7647031744969273,-0.4354203666660179,0.1123983214058135,0.4149112256531591,0.32395399732146846,0.15093575120488523,0.005574337930340286,0.05447511015369458,0.05922808328317546,1.4016693077812707,-0.17942478727357525,-0.11128924582816065,0.13884628975204846,0.018046581932682312,-0.0755252265356509,0.046926366248758206,-0.08045392558947646,-0.037106058963304406,0.046467357138743934,-0.07208120642657218,-0.005652739301190651,0.08711675761852163,-0.05817100591411145,-0.0057819803191618896,-0.0356947240346432,-0.11327338974342281,-0.026910298557915303,-0.048350939381026914,0.08811499632954367,0.031734766614929376,-0.20041000107026752,-0.04834789470369779,-0.06998069819926986,0.00020282345035840522,0.0002421077986908271,-0.043285439358271074,-0.09018177836577673,0.05225723833398615,0.013006260263274661,0.04166044343143836,0.027745591960553144,0.06555297787930336,0.06222531389120711,0.005463590649229096,-0.02215372735362446,-0.23645091530747497,0.056613944529046875,-0.18828593006873118,-0.014798265343451541,-0.08761141833515934,0.011639261707976148,-0.09976777568068675,0.01644689191270681,-0.03585739573836054,-0.006889113282084821,0.014363444396460957,0.0620061360363173,0.060601797174432204,-0.04712497404552109,0.12482513999617174,-0.48656256966480627,-0.0716063413651562,-0.0731777106992548,0.04726598532597351,0.10240818263430275,-0.040214066147488986,-0.19050261238333427,0.060121228929730666,0.03454385251800896,0.33560151183310255,-0.0918358287352006,-0.032983999273782504,-0.09949868914652718,-0.26300874848626066,0.5088198742620729,-0.4518151136750588,-0.2599563616789037,-0.2530615694994034,-0.3924023602436656,0.06434016045061083,-0.31268581475999735,0.10311158596633231,-0.11901741326558704,-0.9136026391398682,0.07965662378549898,-0.22337403418891535,0.2068489095276241,0.3296538877992935,-0.22798619139544402,-0.18393984761973525,0.09417422670402859,0.3712933383791216,0.21782729713066323,0.1452960902818486,0.4141114626453428,-0.16632647885504703,-0.0870695243195417,0.6497922806904243
42.073551177978516,1.0389976501464844,0.9652677310897592,0.6297770260056941,-1.9704746311938188,0.9010345031335335,0.5277339234423329,0.19785605949319607,0.6878948737467924,-0.08638236778764215,-0.011874391743892522,-0.0178789835687512,-0.022414267662444545,0.06102949472633284,-0.05096792690044501,0.1479778044426715,-0.054446202693873895,-0.08744795505706139,-0.058467980637966856,0.10931097318945797,-0.014690481545751893,0.043611373235980244,-0.023171253372590312,-0.02913491618492,0.09706382901206019,-0.03537770246584286,-0.01410245026954643,0.020825617072884654,-0.004010077152622736,-0.04781029549759592,0.03571189112387413,-0.02872941658076374,-0.09349310692560366,-0.02830891828841637,-0.04570371752579521,-0.31960835800294596,0.03426236078541195,0.023017471077054392,-0.026406230080455544,0.03188389669373519,0.08358766156783413,-0.03171487663578821,-0.012153850571539648,0.15170539288480547,0.024972858013607244,-0.12201002923838854,0.2223828295290024,0.12984069726160902,0.17518241147192282,0.048402714549607706,-0.1262143900766361,-0.03151749601878494,-0.10954167810631509,0.1246684548228851,-0.029786571873048607,0.006586007746340605,0.10059919610133,0.18771699809461512,0.057354151946555826,-0.029193376995020563,0.04096251534378686,0.009088200779705853,0.08027867049248759,0.014169793527098068,0.12228350533571145,0.2925179381121213,0.16088071953273533,0.1259422991991382,-0.14350206427393788,-0.746716168874207,0.23936191706238608,-0.27811909428181575,-0.17657971868435884,0.24337634795570812,-0.12302819781838589,-0.05770853379500379,0.02702838720237463,-0.20538555924421453,-0.2823872676389784,-0.48897384775279495,0.22150773952452285,0.026127345777227768,0.02428205161274058,-0.05410496909696025,0.005715062203660103,0.01559134533518313,-0.24705150342143947,0.27040901614967205,0.7024399391003008,0.23880989948198164,-0.3242179243777043,0.14774258126625567,0.11382561113506022,-0.10418049627194224,-0.5595434761317029,0.640273997887877,-0.9724391868404884,-0.02991075371059615,-0.21621324641145795,-0.37788061522744454,-0.23675720402155398,-0.5114714861955797
43.112548828125,1.0689010620117188,-0.6407670025557017,0.5069432045428455,0.48479743499889516,-0.3086260489638326,0.2185602134902398,0.1525776539773218,0.06079822738619206,0.006550341570036994,0.11450127004883345,0.11971529391687524,-0.05156659551625671,-1.156869535764634,-0.15523992290861194,0.19508050896430223,0.04446785565084167,-0.016130166225857098,-0.006148331373864796,0.06650118592408215,-0.05141983409787751,-0.04434733765601615,-0.07607048394324495,-0.1171135193503966,0.020101960112486515,0.08894130197213614,0.0008412867630233714,-0.07043073073673804,0.015178663328171452,0.018690253339322185,0.06508178905656326,-0.15617041227822484,-0.08129459473962204,-0.0006510463648703019,0.06696576176876824,-0.03821088877780661,-0.09120869259126457,-0.06224083404386661,-0.06568640078772063,-0.12406209616703748,-0.12320341073708399,-0.023737954883077755,-0.060643783317113564,0.11640292897737306,-0.08261926140626985,-0.09780288994659045,-0.25365025010642417,0.09101475370130523,-0.035413740608737615,0.17008796502347692,0.2714324521122122,0.2518096889064447,0.09008823648831676,0.02838743056367038,-0.005232477236439541,-0.00421993941295338,-0.08491377809409503,0.00714681053842349,0.09166154940249309,0.1123193934912511,0.025281221867602004,-0.06572803568199848,-0.253950580427886,0.5458660197336279,0.06956427372706792,-0.5971866658094047,0.09499785959979501,0.47316522796751953,0.5410264422055611,-0.37682454251129593,0.30761205001204955,0.09106685655949727,-0.27096782354344423,0.19631648986569938,0.21849887057219453,-0.010972017427629155,0.0939148051899364,-0.23589102568861475,0.32191317330834074,0.34239631671243814,0.23218100203385997,-0.17658748374453026,0.6064934423550644,0.04801452122272409,-0.6276066170748792,0.21075468860205185,0.24951950956081612,0.08251532526108096,-0.13414806690835998,-0.7082249463629807,0.3116320779109783,0.05544613046123219,0.12590228561846845,-0.5864331199814303,-0.9257610819445994,0.18776023498106292,-0.046501185402237466,-0.588791571100748,-0.13376869554838902,0.2848415334309957,0.8111559450518409,-0.6616894702739524
44.18144989013672,2.5769004821777344,0.19698167793449128,0.7278014532242093,0.3553658557133602,0.4111745139048515,0.003363160688412005,-0.573583057131147,-0.037290388591879275,0.0563877735028668,-0.04928627214122459,0.13313152748746307,-0.21587733481727234,-0.7072772845438801,0.04945613972628182,0.31646613990589756,0.02709164486870337,-0.023101399117832218,0.1298037341976785,-0.03287596394542082,0.0379007492688827,-0.058698274874155965,-0.026560788370810464,0.051079454294309296,-0.018689426251089047,-0.021193766435453253,0.016994321429085753,-0.04571006960391902,0.06624747814438854,-0.06474045987718141,-0.04088678200411521,0.011469268034284115,0.0022534342578774897,0.08518281588478123,0.01377159340894702,0.08293901271221586,-0.04807972876682684,-0.08820090599305905,-0.07978843993495086,-0.013603779757422762,-0.03951471318469301,0.01085315399953493,-0.022407440313330376,-0.029865088684118274,-0.04527231809859203,0.03218858964338621,0.017247913447867073,-0.2421428057855324,-0.17003036135459665,0.16281879682823713,0.05966517075520618,0.11085443490853078,0.17088377403403446,0.056787097962289534,0.03368495305856736,0.07605681233948208,0.035171893565383694,0.06300756760055544,0.015005917539988674,0.029069607643030116,-0.07170140064608291,-0.131833097079387,0.024013319941219885,0.1809187287371231,-0.38819237581238214,-0.17670058918260706,-0.46349673861873825,-0.28246877456018665,-0.11377839536488113,0.10276719707599524,0.2693492672930608,0.12250861030231987,-0.07331964767453855,0.05956960756356079,-0.11957235238991641,0.364191435773057,0.7729271032343681,0.029113583496234885,-0.1595559006893239,0.04225832694418986,-0.19782507903510785,0.12315262956457988,-0.09400710354460967,-0.5090780597308002,0.5894962626108573,0.10036894575839256,0.03125202316367198,0.2660123372281724,-0.237669815837859,0.3249612375963363,-0.3131887376332436,0.04993118810996454,0.46050923409930883,-0.3890376610283015,-0.308473224260477,0.05748027042024326,-0.11282894804879942,0.347663194821469,-0.6529538212919259,-0.7041193121683429,-0.1981873196074669,0.5562192046576049
48.84605026245117,1.03900146484375,0.6814436521533597,-0.4529398810554002,-0.7247924629312826,0.4050075400408729,0.5858966147920758,-0.16396467282804592,0.19607095947194345,0.004054854172400313,-0.10482960561504043,0.030088289289224773,-0.18153498768128873,-0.055838204167225985,0.01819327413744484,0.00731156845184874,0.024795092218688197,0.06193622933502026,-0.01738704839608611,0.0033723342618241035,-0.043778617927049866,0.005541484416873056,-0.033483233833637945,0.027709802299358835,-0.04635346113864618,-0.04163346603085284,0.016603421498686058,0.013541383813522453,0.030544960602564064,0.0005905070434980453,-0.012067919863491974,0.027750762764927023,0.005039828062587935,0.003935253825529397,0.1030374102432137,-0.029035047179051515,-0.05751416807371666,-0.1876714140818494,-0.010708499282050185,0.2364816522327543,-0.11133963812610431,-0.031018566337751203,-0.08313891462432199,0.09723146403846819,-0.16446455908864166,-0.03919448500912502,0.03160079200548933,-0.06678700084934754,0.20282045443993713,0.019209494819888057,-0.051337688272443956,-0.015138917015100128,-0.017319186725367357,-0.051929151137588746,0.03277716183911786,-0.025220727228086822,-0.19213798994000186,0.07034986846009578,0.0631892804640187,0.024470273542305854,-0.059225056066122064,0.03039998395781036,-0.007230836097682688,0.1512772123796761,-0.1476107462384012,-0.5367976775343883,0.179898529454421,0.4143609960039165,-0.11413638965722205,0.20216841943722758,-0.0017288128009608937,-0.3180442727154077,0.1390987209012059,-0.24534726073571317,-0.07646950149263318,0.09170140573718731,0.04210111160238321,0.3959176169691172,-0.01351987824944198,-0.3762104535160175,-0.08570810383782299,0.001307898156743481,-0.14149259479223053,0.011956802759450255,0.15008763892363547,0.4947286327391806,0.0016029088691279138,-0.6362621023599279,-0.04720070023245125,0.4151690167346904,0.5901141314510681,0.10548879499698421,0.31151604665149096,0.29455525609734956,-0.19909157540055733,-0.5373170172712162,0.06191441428648611,0.020282444932428492,0.23804322533367506,-0.4377922293462917,0.3622996898757595,1.0519959345545036
49.88505172729492,1.0385971069335938,0.49318081925679447,0.8007444443733791,0.02905967212520616,2.062640198419976,-1.9541043077868498,-0.12022503610063358,0.26757231025716977,-0.1106012160688887,-0.041131482272849795,0.16333668842839763,-0.04643926227103768,0.03473561016519744,-0.15945481255101698,0.12302856806415646,0.1232879848795569,-0.0549449549031216,0.06051407680023772,0.06656027818808696,0.06126369784314147,-0.01940867112506655,-0.03667464563742871,-0.023352114142659895,0.06584936794534008,0.0007633236157371405,0.005647442669959587,-0.010929806336160253,-0.014314344838084775,-0.07408258765803798,0.025194479339893203,0.058654977360622085,0.08593346017096729,-0.06246353709428336,0.0523389792578861,-0.10045419720823588,0.05715894782832625,0.03945034217860856,0.09532289201722269,-0.03909836822067595,0.011609627445939111,-0.04916816914328198,-0.27326702134223463,0.06910706913153673,0.39622027984846897,0.04616117322772373,0.22175432375260126,0.06671044319044635,0.0430967599558163,-0.031731580461864806,0.20434429274416344,0.2898386369777803,0.17897236963207663,-0.2699364587868906,0.049826016634655065,0.03428015432460718,0.0965517657867748,0.12113448174913434,0.026020334266500134,0.001802114647038458,0.023136491495292743,-0.06718475419211455,0.1087001876090656,-0.08497716945851938,-0.07405041956946407,-0.057304631516343574,-0.05325853815037174,0.027336580701169372,0.003319296517860282,0.34440301665232603,0.10876525143799101,0.20141100681804663,-0.1823603525355071,-0.055298722516824786,-0.10485444754134528,-0.07019146848042965,-0.20922526540003525,-0.007688944067438391,-0.14433821219257323,0.055552697899536416,-0.3538753481381417,-0.7470225960494907,0.8121946293971081,-0.1067170854989177,-0.128844685730199,0.2999780525326337,-0.672830435931094,-0.016058529811115906,0.3616920317054107,0.11555764059279536,-0.2288114898320393,-0.17039097987514412,-0.0694926470671964,-0.1517046045600239,-0.6046520751048703,0.24354112283696078,-0.8284167738923545,-0.8253668883511661,0.42793683963892754,-0.5253630889132308,-0.1527722041646025,-0.03204210868781254
50.923648834228516,1.0786018371582031,0.11655390588221698,0.1560923003916147,0.8669261490024185,-0.9576576663841778,0.08680680920663675,0.5737171490515263,-0.36159033907423577,0.01623594276950917,-0.26425508358407435,0.20512251105275542,0.006621102775225303,0.10674708659018928,-0.00942736590917078,0.011772450994883235,0.07481896184213895,0.13464952554820064,0.008207881679513637,0.05482567348956687,0.034443107275920024,-0.007996675309293086,-0.08080377367589163,0.0067953284290815244,-0.1271900227696934,-0.039781196510341996,-0.07065768272675355,0.0016221113609221518,0.05954798401754302,0.061383492508621386,-0.004817762341777644,-0.10033242704893248,-0.210137799672226,-0.032468201119120146,0.1258736537966705,-0.10121240757348758,0.02947313841162004,0.029986227608119746,-0.04315754274260909,-0.07184495591701855,0.23906396163939045,-0.11140834011367433,-0.045374433813437184,0.06943130165804003,-0.03840468927744267,0.011975968605671995,-0.2915628494525986,-0.11977695777226202,0.10589720188970231,0.0854133853647043,-0.0411918964806949,-0.1028229844228022,-0.0979727096874011,-0.23957102228747335,0.031197186117845378,0.047431018255453664,0.04801245801419535,-0.10014257328633042,-0.10115985280645778,-0.12077421220750768,-0.023591347318940137,-0.06021242017704672,0.02364727058120642,0.04663346134999581,-0.09031637068219099,0.02482346303019805,-0.12528540285036957,0.4433295423212884,-0.2721752887857045,0.19781677430395722,0.12476907161229471,0.2892484865682714,-0.3161540819007823,0.17291202196573316,0.23191214857097753,-0.0027963996293217733,0.47926098745001644,0.03474866162082425,0.22504239980794769,-0.23028321734588542,-0.7548543370413222,0.30517000976412734,-0.23169574126035372,-0.41932491299880376,0.1478280107106346,0.17689993905444107,-0.0535642673989296,-0.21099239123860353,-0.23236632530771925,-0.21382542950379954,-0.7143533279737545,0.09185519376423897,0.23157465708199673,0.019229598794661174,-0.06258640223211293,-0.23972322249312014,-0.024907739760032924,1.4242836154565977,-0.6586773533605336,-0.3684405140997508,0.530913266485965,-0.32840584432548886
52.00225067138672,0.9086990356445312,-0.5823940759086849,0.5915534883649934,-2.063181106421767,-1.346060014172674,0.05652986696499959,0.6288001952345861,0.04710180001764051,-0.3630639539025867,0.09136546311527821,-0.7066001261489235,-0.2342745051102867,0.057186994434156146,0.09589230796571696,-0.10080022057114407,0.0034320951540764504,-0.16644400381160954,-0.04238789462289976,-0.025500950154337253,0.0013029046110809347,-0.01634313567941925,-0.016779505869824185,0.06330632528885959,0.04036319837053695,-0.024591780967589752,0.10935018495122639,-0.08103709940294229,-0.028026624724805577,0.0012251863510556477,0.014331538630922042,0.011070141232996128,-0.06107977989161369,-0.13592910186953633,0.03999835745437379,0.07428379664403197,-0.04802549029597089,-0.07960768258642173,-0.005812122346973092,0.040278029079546585,0.04956531895001445,0.07992722107408202,0.06878903467224784,0.08689109239980194,0.14134959601423366,0.08554576703277456,-0.03362611999518801,0.09050015331848214,-0.1493451713967364,-0.0026495389293790693,0.0088562337677981,0.1093776185452427,0.12162478104856805,-0.045460939871465794,0.08273833555662315,0.04341089708275158,-0.04411378171211792,-0.03839284614690478,0.029104349055818518,0.05773086696025769,0.016441651532855393,-0.31388162964202065,-0.13507457045138635,0.23951834146055956,-0.20448439871830976,0.23995149263262636,0.2974917132526948,-0.2255802587867035,0.26314817543904445,0.16103385081273108,0.3184346709356818,-0.06593500733404724,0.08611663969017812,0.11190743640611633,0.09492553061381483,0.10346275048600456,0.36499556517921367,0.4639589036604569,0.19379862919236557,-0.29052236767018064,-0.1734430228242049,-0.28183576099554764,-0.17282536895246,0.39346649860944877,-0.16849453435327136,0.058649135270545924,0.14947042271968666,0.2863164587407223,0.6304461744418378,-0.8101116993299923,-0.4139989292009727,0.1575552742785149,0.035494283038554175,0.4812325966833375,-0.2157685523203059,0.23002807935493852,-0.3177249042208865,0.3399321598619847,0.6977077423113374,0.26243066231689394,1.4284151699336762,0.9966005288082246
56.507450103759766,1.038299560546875,1.5855023872820146,0.25105859245759204,-0.32559090734208096,0.017256585879581066,0.17666439334586434,0.011134895171589318,-0.22350127050836605,-0.8789594856684948,-0.09301428956836494,0.27571091807855735,-0.906395504968702,-0.10445932627091528,-0.0020001750015221746,-0.0771854995095366,-0.16980725299232463,-0.035939513568910134,0.011067560790534866,-0.07234047444680812,-0.06774254156642724,-0.09534941698097756,-0.014459841236235123,-0.05684230086932947,0.04074411120842862,-0.11606886228266938,-0.014939563640793501,0.046968744426147034,0.0455067800044929,-0.023248397463682197,-0.1171560511989796,-0.15129124743093153,-0.024283268408592823,0.024924688537724247,0.22565323818326596,-0.1776344859359791,0.038483307925409424,0.13045976836947815,0.08888273285957227,-0.20581056655500202,-0.20889155681288415,0.006081076306514777,0.18553399000277132,0.3126517844638983,0.013287152041764087,0.14252285563577388,-0.04878761366324723,-0.28833516998607495,0.11755989030494231,-0.20094854418571656,-0.13292809625132546,0.11343170104222318,-0.2995142367999956,-0.13369516945559753,-0.021072597389673896,-0.004972772856761043,0.028501869608549085,-0.05017645813116575,-0.07778610378512994,0.0965298673253124,-0.0035542782674940652,-0.057188494565969424,0.06107730641149613,0.1813599574204386,0.39013603451948475,0.11401916837180151,0.21343801402414367,0.3548753761519638,-0.14763716658103693,0.19736174938898074,0.3818421835145893,-0.06382325413382962,-0.06684154316505607,0.3454825310285797,-0.23361728828352699,-0.033422410803527286,-0.3687366735222062,0.12944966503291322,0.050988866536909414,-0.11872917101805464,0.09973080311401977,0.3527045073192245,-0.49017433488793605,-0.12393934708724257,0.4734425999101517,-0.213954065139431,0.16741925981721179,-0.06078852151674265,-0.19912053859245032,0.12480194930487759,-0.06502538422128809,-0.29926457758907143,-0.08167613400179477,-0.7101469166406307,-0.16262106193708958,-0.40223405115385674,-0.17927539604720674,-0.38596942430217307,0.7429476614391911,0.6701887820107527,-0.5691293379857754,-0.24212179301489917
57.54574966430664,1.0493011474609375,0.049952153508951436,-0.8549211502349218,0.40339225135394124,0.07087015045421134,-0.04024336117390134,-1.2603011975898633,0.1129653938624983,0.07755606961150376,0.017548928081391982,-0.06359377182978349,-0.028681999427090366,0.06728933116568234,-0.05160107349608373,0.00646081021530806,0.033161795098821195,-0.09102560249933643,-0.0737010060781372,-0.0484168489657479,-0.04947116991101916,-0.04380604893688314,0.028980236212681254,0.019364014020828223,0.012930909867485975,-0.0030760147973471963,-0.043873387560655966,-0.0005910879966940646,-0.020807189433923116,-0.029322459285411034,-0.1201379500715448,0.020910794003683186,-0.026706098707517667,0.06254830913951416,0.041248891159106675,0.06520451555090395,0.06200061553269105,-0.14664154641459257,-0.0455173638404504,-0.1983311469267576,-0.3576901235671799,0.06542830874605722,-0.12114251599110927,-0.018631243079368892,0.10099706724619852,-0.00404170707615688,0.07341297765603927,0.0629017023568329,0.15044583125003827,-0.16577638850155518,-0.1390866371729855,0.2935184793669705,0.15279524411731396,0.011676746653032435,-0.06955427052564848,-0.043047660469562564,-0.23556908124805798,-0.22744601524021318,-0.16899383723117284,-0.0002980489125209843,0.07842773336138341,0.0723378551079041,-0.057880933859924155,-0.10863383393036759,-0.12959594768965083,0.19067807060235487,-0.06087448377296571,-0.22970230156027446,-0.1353776532301695,0.0569890448864443,-0.03661560563141708,-0.20038628951099058,0.44561198648772915,-0.03185556641882756,0.17691885139635827,-0.1772805551269534,-0.31735335275560983,0.17513784194511942,-0.5507811821016204,0.12807804553576405,0.034790240461140404,-0.23180978160422663,-0.30072285569032003,0.03198425273750673,-0.13663536582772545,0.15319459353180748,-0.0017557691940778969,-1.054677424265594,0.29371092908721275,0.2690210079404481,0.17696960216294919,-0.05852046167427179,0.08535197522814031,-0.7651954174924805,0.643579710138116,-0.9194850163579011,-0.0615670873109838,0.03389212034040101,0.4502329930324271,-1.0401226134246062,-0.5431660737918652,0.3711907432221127
58.59505081176758,1.0785980224609375,0.18776720695305693,1.0154466542465956,0.25848206902708937,-0.0779554968033199,0.0416665323210314,-0.017913392732959554,0.12816890666287947,0.12670335557032955,-0.06673691330868603,-0.5216650476628677,-0.16782310379308155,0.20245422926179418,0.012085866179315244,-0.09876157502322787,-0.06721750025779925,0.018159370008974052,-0.02049747917733567,0.12490657307636241,0.055499150122047175,-0.14611416861061435,0.01071111245471799,0.09549185148706262,-0.0206549327590015,0.028536510910733393,-0.003304097323202671,0.043874196362893254,-0.04326520953167657,0.01259015410483904,-0.03159746143905963,-0.004033857754317527,-0.08136767335877218,-0.03251833180179762,0.010248051271604936,-0.02223998328533621,-0.055894787784421626,-0.013582152449734056,0.021709306534660293,-0.05903808138488281,0.003111004940381352,-0.20781301481312886,-0.07722800052021322,-0.061788207449714,-0.02755119230840951,-0.05147828383074002,0.007927278213426751,-0.14685260633353464,-0.2053128414376401,-0.13603867572809877,0.2515127268242813,0.0728522885962476,0.05857415372095272,0.009704411212227993,-0.02353924546535889,0.147781849402849,0.052252520111659054,0.016569562815158183,0.0552486304789895,-0.05429883010200236,0.00852414894115017,-0.020386648142632934,-0.005434811010938382,-0.12797206037195183,-0.2718895223860477,0.17058862444476933,-0.15729942094180668,0.13371936846287208,0.20854614019383294,-0.6115144739814827,-0.1292544527661994,-0.3078698969719465,0.1594666722573249,-0.06705207444810206,0.3684942767140411,0.29888028661966914,-0.14551266102800547,-0.5094120020468861,-0.4454607016283432,0.3366650540282798,0.1109413605384509,0.1969773015506875,-0.0393223065458376,-0.7657562930926722,0.14426431291651562,-0.2266276853633615,0.35580877224830815,0.13084340435912706,0.044536160106169564,-0.45999544097632394,0.4278589154864385,-0.04598714845604074,0.10074445766906771,-0.05887780954926427,-0.3848096004636782,0.21288489614086645,0.17277120449812217,0.5819140429718496,-0.18202073263476065,-0.7209263740530311,1.1504150097739332,-0.09318739383802865
63.22975158691406,1.0186996459960938,0.49828908196779587,1.518224715462501,-0.0512453069880881,1.3902050728624111,-0.1256728955325781,-0.29610791147210275,0.34185787697225145,0.4153745857311309,-0.5637993982079631,-0.7952640912095867,-0.6821803864502388,0.033869149606586844,0.09905392028875751,0.0010696894060163477,0.07669923741630422,0.032898532092458604,0.03875099760004198,-0.008122689284613155,0.10844383578607522,-0.01688607920686584,0.16576964771141023,0.10533082358632287,0.06444752642788806,0.003511294767334222,-0.05357387914893171,-0.0324265461196102,0.12653304152075553,-0.024905309136657613,0.04998545788492322,-0.0893341275456737,-0.06899680114201183,-0.06266391757313695,-0.0853454793755718,-0.10353720181546602,-0.10464239238021904,-0.13835434355738147,-0.10989762754717558,0.25995735402433834,-0.22687950868987466,-0.08259307067596242,0.06527454959939234,-0.1454736347461437,0.10889217138958185,-0.2202853858564493,0.10799481781657552,-0.05587628660956781,-0.20358852558629464,-0.16811882538950373,-0.44772567764564664,0.22301039912205775,-0.12363852576870019,0.15708722940116499,0.20333381892776184,0.1017828502947336,0.027366385557025762,-0.05606295963287773,-0.046965383412915465,-0.017430249584169874,-0.05531587324275736,-0.00012103965438635579,-0.05208905568438725,-0.14043059978185302,0.02141807007429384,0.045853345374475385,-0.12724790546040704,-0.2515934017121472,0.0003923457982690781,0.6587556251916358,0.4471284869872263,0.08714817613790975,0.17899709155278234,-0.19257897731094023,-0.08749331795696248,0.05768275344464933,0.010162681353624492,0.4653309342028454,0.006590328169196184,0.24035620249292766,0.01531233080662861,-0.10734080798667915,0.6153029099785364,-0.33700851923042496,0.10198375133702023,0.615376878791364,-0.014167686062890848,0.6370898788114663,-0.11512602558640107,0.003621920626375285,-0.8357177707421367,-0.22133802659675295,-0.35355508528243873,1.0691123131260047,1.5082767171638212,0.49330142022849943,0.4928423339738289,0.22116033247656283,-0.4107042078961455,0.27258816186538243,0.34626479361626306,-0.6545295781162495
64.24845123291016,1.0387954711914062,-0.46429952481353987,0.5125852426809531,0.5003163057058929,-0.26543625254781017,0.33283532995482074,0.7434130305216531,-0.04353268986675882,0.03480806932904672,-0.3218718993706464,0.343739958520418,0.1865554169133491,-0.06459344660977405,-0.0037896376851500623,0.12269326527716173,-0.040558738335913516,0.18743264396542142,0.0032855882971310375,-0.04174301829195589,0.061000505951490966,-0.059963251285494484,-0.0670825192068069,0.03095827321207058,-0.025368601154752313,0.09492788412509039,-0.019518133739387766,0.05696178538177714,-0.01727787492173578,-0.05584020758474131,-0.07739935045290158,0.020344501530253575,0.03465766137801719,0.0450531151761014,0.04750517936677889,0.01382189819149253,0.1686558717689723,-0.23785349265681,-0.05024564357090599,-0.0402695834600585,-0.08849833826717352,0.11636127865692096,-0.0544248090781184,0.15891548875340278,-0.03869009699322053,-0.03099557081469999,0.2837854794449495,0.13969646198431296,-0.5219765032111807,-0.340923159712398,0.05806074950556346,-0.11336982006802196,0.03549041215448825,0.05716310599728219,-0.0715630441149766,-0.02052457814110445,0.033543947834260075,0.023510813684327156,0.05785900963536574,0.008980638276362946,0.011819930666453671,0.09449326303760659,-0.03244832514257343,0.12288962331877834,-0.4835720977114219,0.03160126013110057,-0.24270196288583362,-0.12546948117647833,-0.20110825614534153,-0.15590288844250605,-0.6883010801766484,-0.23863504028577853,0.3796860400976233,-0.16091324366969267,0.2333073396224783,-0.0436848769431698,-0.13824732574677287,-0.3566104643353834,0.04661366531703175,0.15906165109496095,-0.28644655871095215,0.5324872908737438,0.296041634978281,0.10555281888225931,-0.06267421505958422,0.0018051953689338096,-0.09561073611368681,-0.3949450824641448,0.3723883279452041,0.47972004843840965,-0.37402228992693914,-0.14175885529176757,0.03909767082576046,-0.09017141187196448,-0.27074884981138686,0.24029100934998468,0.5097276568441285,0.010399292448697861,-0.4652133077625747,-0.18225942318568383,0.23173559533592336,-0.17092619921669472
65.28724670410156,1.0391998291015625,0.29348917118787743,0.12191654141648695,-0.3245711454863403,-0.5856663455931587,-1.0210744068785915,-0.5603851329159104,-0.12652071076798185,0.05936598614174967,-0.05177658418591254,0.06831516686465731,-0.11232963261969006,0.14864039515501581,-0.012868916308220384,0.034642388390376075,-0.06781434181645471,0.14738910611412753,-0.04096709784393672,-0.17389171250612842,0.0498343724577263,0.010389532401037356,-0.023021200156511424,0.01957419434756585,-0.05821442097028568,-0.07363775904025337,0.023026868422912655,0.027312949664658245,-0.020847918627624987,0.08248114868920456,-0.01666439684102442,-0.024082364065066978,-0.053585951870258455,-0.03302022973683466,0.048003154977937564,-0.10610081945883787,0.006881222657129243,-0.021068190996796188,0.12679293980583256,0.2000951417326996,-0.025828850787567276,-0.11596444978338653,-0.12516796958096296,-0.03658133571408998,-0.1467796304206111,0.2837179682165745,0.02709036430809267,-0.05610110308443512,0.1798182234115829,0.08958151562840848,-0.1501229420942231,-0.050014599186574325,0.02348542486051492,0.44546458412632045,0.05787192466352195,-0.08112240200452578,-0.1416538684472009,-0.05994385471587776,0.026302359907069545,0.02247694002984826,0.006700433580972563,0.06292331438791189,-0.06318470846236605,0.01271219477401489,0.16356693093195637,-0.01035125282705255,0.1134893805850916,0.29299041036799733,0.1379020034922609,-0.23477167722165024,-0.12117872379150371,0.15679371759447275,0.15122179695796578,0.20251659466398553,-0.03636096838158445,0.23666217890989627,-0.20958010819029238,0.2389509869516737,0.19215251243654813,0.2658240782937139,-0.3051574984979453,-0.059171086204606524,0.39815502149401627,0.21438517464117482,0.23672438459494793,-0.3085121266543787,0.3360705320816303,-0.5862432855538008,0.1187760535961083,-0.11745650213277803,-0.16265512211500113,0.3851735038092428,-0.21622985298878122,-0.33435592327431946,0.3214959659297191,-0.08976010396323608,-0.0343508132676157,-0.09904487318145536,0.013969908506411412,-0.5202309507069481,-1.228166155083955,0.317187817917831
66.32644653320312,1.0481033325195312,0.7200018370196299,-0.22834269737801238,-0.6457513678443889,0.4267171356599871,0.44956814869114403,0.07955938887394007,0.1347257296985772,0.06864015975915112,-0.05235272440187033,0.0848113094886729,-0.016470441479189232,0.10573995506883983,0.045375461357319034,0.051263042269488725,0.04588843169255238,0.05464762470287447,-0.11068076055844348,-0.07825243823214062,-0.044100305965711045,-0.022954874440550027,0.005405853397163589,0.03827019198182602,0.029553298841396465,-0.09402918836011769,0.09395055046422371,0.12322390081587523,-0.02382647800402829,0.08639017012050784,0.022857850819682148,-0.08888356180245664,-0.02462540147612959,0.05482729869130133,0.016715203458579714,-0.021570929322211135,-0.2342251918318006,0.11889296164703222,-0.2483932068148681,-0.08381845075971676,0.0885521864822878,-0.1437266632601688,0.03882305482405519,0.0911899924422642,0.04122173283947453,0.08064193175829425,0.3164037305500097,-0.06922768772544682,0.2032556459559811,-0.19525148619794883,-0.06474702609307206,0.061022699349103225,-0.05154041366069334,0.00356215021020651,0.1769037549176175,-0.028373585655491425,0.12255743762950953,0.20864990167155056,0.01010842922043783,-0.0328729544135162,0.006904740845024196,-0.03316536652520834,0.1774650858590197,-0.18219688944941215,-0.12640086579978926,0.172833595896238,0.44955043250052323,-0.08996350274943586,0.09560114115011896,-0.03192304996618556,-0.17456403116326602,0.10037899078681176,0.04326659727022597,-0.20045329665427838,0.16874879495137413,-0.12052331277989989,0.10085338669467826,-0.11526433278288521,0.08776691705433355,-0.052422077750246,0.054597797376208665,-0.1785866649616371,0.029254123108683916,0.38307150962475,-0.030564371175712778,0.04058967852615461,-0.14507061858618833,0.3795388734874755,-0.13599235602370272,0.10209517451815449,0.31187653869411436,0.007139296707600357,0.06600797104593058,0.1410239717663167,-0.0867267084497004,0.47378626884514485,0.41766255936739094,-0.9332062740310715,-0.8628308395051498,0.14095807879695296,-0.16380073207996437,0.6429577574615781
67.37454986572266,1.3490982055664062,0.7885475331381637,0.5504570459294972,-0.099242046778042,-0.4148222419802743,0.591684091530494,0.8477381233121397,0.04119562913527485,0.19704540295962686,-0.05117082948405849,0.46984447323656275,0.44344827773305384,-0.11183315553918959,0.08532784094472393,-0.004218217348829226,0.029418168537195977,-0.0586456435330684,0.12899483650740032,-0.08492582405856816,0.018440657645581678,0.03734020564702724,0.021502659414243584,0.04680042220349105,-0.002623230948960786,-0.056713907940065277,-0.03186222075698517,0.01780198973786931,0.035263957897935516,-0.025271912964744875,-0.027028503093364648,-0.11012658690393563,-0.06750695773698294,0.0816917985232985,0.0012718625210749687,0.03374678049844691,0.0009630977154113497,-0.0635629529081132,-0.010261048908751583,0.11878716502965876,0.1588250223015987,-0.06738774765328241,0.040292238910573805,-0.04719071233494179,0.07773490576167269,-0.004669298842878698,-0.09328028514206163,-0.06722969350323725,-0.1327804768742729,0.039742172774498916,-0.13178584584616299,-0.06406435633097993,0.08132760196929825,-0.026793885461481495,-0.07741295274901511,0.025000629977892607,-0.06278421719399936,-0.02502846368944763,-0.029390529401555066,-0.03309997778707647,-0.054196507214156864,0.11099329635776084,-0.02218527355562846,0.2533858645092019,0.2871712715304317,-0.027935462373653092,0.40067773757729924,0.2093021692594354,0.2685798787273543,0.031590855300238314,0.25730854867611097,0.23746296583229376,-0.19517640935289307,-0.23699965481600077,-0.12661042640622225,-0.005900011707584581,0.011071334485717975,0.024738126015765596,-0.07381136732592172,-0.37176120245321953,0.03037586126928099,-0.6091598560700573,0.06968826254822996,0.5960064157046391,-0.09105748750320371,-0.15108203000022663,0.21536793132976556,-0.23726926268328047,0.24416532667243826,0.11375620489311819,0.10728613875830911,0.0727418603636281,-0.04140709779065621,-0.09659869821410726,0.20098082283921007,-0.4551590171494246,-0.16196752121464084,0.06481867583730458,0.12518110200131835,0.5291560173736927,-1.2936170915271628,0.11582276917239115
70.91085052490234,1.0289993286132812,-0.6214585180675678,0.06638834631569834,0.9300036446358709,-0.4873479720469884,0.08129351846841065,0.8569787154677252,-0.7351938418214609,0.0721859842883727,-0.14877331713112915,-0.05346453163275065,-0.5324450243582347,-0.08619409660127106,0.13398835533085443,0.02577368984493854,0.08776381334663408,0.0889780974612964,0.1533585876781477,-0.12411793903535463,-0.12046822809115869,0.08485320766049326,-0.006402996444437786,-0.12690417956855743,0.03385746777109159,0.09899624030977026,0.1767856219035279,0.047376972616590185,0.1667043468293184,-0.08763610097220094,-0.03182787949809372,0.05363704183974402,0.0720412091439938,0.1226005316339341,0.07236542864383463,0.18105312838934168,0.08813919123909607,-0.018483711369321105,-0.03401612517231443,-0.20293857767535034,0.13155429706897653,-0.02488295380239193,0.008339694781190746,0.12808930679039093,0.25185421014104575,0.37122809859120803,0.23546656937211413,0.030258580170856697,0.15416807805378885,-0.18379534948191803,-0.248970275869558,0.2349445188460076,0.03014929028080255,0.1411499592383974,0.016899072427764616,0.010017047122572342,0.04155091356462924,0.04631129040535704,0.00873476288369569,-0.0165440007262219,0.000767457732210694,0.01927816612640791,0.141226494184153,-0.30971746677607465,-0.2549026429112543,0.2721860397686015,0.01995853152953274,-0.1940375394631074,-0.47936638654737296,0.35980673506884164,0.18434271273477668,0.012264438185144182,0.2446599002892449,-0.12384900561726872,0.04858541363851295,-0.4978006776955457,0.08601638191146493,-0.09762188829292656,-0.0558977757929805,-0.0786631700075487,-0.5495881681855878,0.10598847342788159,-0.21803308200958688,-0.21059449246293635,0.14124191856334367,-0.4367365023440969,-0.1066680867186591,-0.07059724155901298,-0.2557753327345612,-0.41879836363628,0.1505701856862978,0.02028409150473154,0.12806911341829819,0.356504589243931,0.37230065031723236,0.037280002864020584,-0.34404939615129876,0.035345785641513,0.5866603063256367,0.011460926073937741,-0.20088326377906326,0.09886866904254238
71.93984985351562,1.02850341796875,0.636475954175762,0.5810770042849336,-0.8549731037371154,-1.4651577113218015,-0.3828617352479285,-0.5645015366785425,0.30481486024794247,-0.20351299516775453,-0.049276159999547244,0.054016538863511696,-0.10559645841010092,0.009572340543051505,-0.16581178941516708,-0.08464596190329467,0.005192583085431199,0.07076752692202085,0.0733666670550573,0.19736534362518607,0.1309312197210284,-0.028438455279052467,-0.0017847559048903235,0.00798224311331485,-0.10723442605740528,0.003319398295279195,-0.012823351190633072,-0.004747758004269265,0.10838670007138902,-0.046548523079755696,-0.012453347550490112,0.01495822378555317,0.04045250510596569,-0.1172968086289395,0.046662693722385754,0.0654462415313072,0.08666079506582135,-0.16804188667332062,0.11226985788726118,0.004921291023150864,0.12004562813785159,0.07756069884122552,-0.12072609610260247,-0.14821336113264405,0.058953421196679734,-0.16296141822373034,0.27265216534041664,0.0614947705673404,-0.031966797551037485,-0.2945581626654749,0.07038544253853356,0.2852505434064656,-0.07157431565032712,-0.07233476131543735,-0.04549019979545434,-0.027380292364763165,0.14510664983567328,0.056759757946877064,-0.021206571949794403,0.09193655285922761,-0.007860072621741482,0.04048859117145854,-0.023812477964795797,-0.04559865373591238,-0.16235838889462492,-0.043676294843635007,-0.15323756346166248,0.14239527652780326,0.19091817950257745,0.15155935303152904,-0.0402287297184398,-0.06341923943896437,-0.15648697742093312,0.34503453939817663,-0.16887009575416284,0.048502526057051534,0.1503319079985021,-0.23343101057318424,-0.3463072560756099,0.12182896205002337,-0.2133261330996053,0.3546789203032155,-0.35569394344031807,-0.26624180807555,0.09940501233202136,0.1250134826272356,0.3520779371654914,-0.4878173049871838,-0.6683982390643206,0.5963275082724515,0.1111918642451113,-0.09170213006398048,0.21816074563585447,0.04910595938068905,0.16941938050229668,0.27263520682124776,-0.39423231614828697,-0.06120202044195932,0.32315830322561034,-0.3869758429946859,-0.4562899183238011,0.5867262623000717
72.96835327148438,1.0291976928710938,0.8994087979319281,-0.0016653561392113714,-0.014051514472339991,-0.1595904671743546,-0.41987684090926014,0.5629601414106036,-0.20948573628695547,-0.07545075865403297,0.080911793355782,0.04743396564932977,0.06712900045331668,0.0031066197349600942,0.20987428493199425,-0.02542615062690204,-0.08147661966711504,0.07952963700447364,-0.03237216348809624,0.02852888334139781,-0.025451037365408727,-0.01129096555103009,0.04696996954719673,-0.029790887221192525,0.006755620662135751,-0.06916897704998205,0.08012753532801685,0.03086510588912622,0.02913890441629431,0.01120916764314571,-0.01676183231692059,0.12799535059564301,0.020179913158684337,-0.03926137955870135,0.052874611529216,0.03300621082496368,0.07758736951644518,0.04497844544215474,0.023496918931141142,0.05873792757064681,-0.009468938829388696,-0.13220834620116478,0.18373667425412996,0.0334817763124015,-0.24586601664768895,0.18268295679881363,-0.03284426883784918,0.04373273616368903,-0.1667250951244777,0.0009331352281570036,-0.07992546499355328,0.18020463983560572,-0.04746528698079451,-0.06283140277345892,0.21807424582104654,-0.030328449267429135,0.06256327874452784,-0.1431764337165882,0.033350747910190354,-0.01804225463981027,-0.0753444424683066,-0.02038093525762891,0.0933797301228881,-0.025624505714503087,-0.015008917954365635,-0.1524502526445156,0.10548528854992748,-0.19288495799870928,0.253208669242774,-0.27084336279806154,0.2041594657821864,0.5569357749860391,0.159316060647716,-0.12594134442816868,-0.44377085339774835,-0.08716381459089576,-0.09378058702430554,-0.1672022000301938,0.14402828751574978,0.30036125598960667,-0.757043692972634,-0.2778301684718868,-0.3999999729265674,-0.02925487478094979,0.20609603389977468,-0.06754043881273057,-0.25657013961878883,0.047236395452766346,-0.04464191057679993,0.4032598529394724,-0.35200558934643644,-0.03850316273464653,0.5262743362672406,0.3103027927239591,0.9610031672056418,-0.10252404463448556,-0.03472414866639389,0.2596505851972173,0.12656676832129282,0.30773968013289493,0.6543002667380876,-2.6864954728711345
73.99755096435547,1.048797607421875,-2.16073749322241,0.5557200018159341,-0.43593595907754784,-0.19483203514166975,-0.07663604490669562,0.000363273142970022,0.00027321487814361417,0.18534674145381624,-0.04208551425721748,-0.017839932877906875,0.1205931206985984,0.1586595951690336,0.04667434074569928,0.04768510933356434,-0.026823367820775615,-0.014348466970830226,-0.010655650843643213,0.10404309458344542,0.05640601811487609,0.006635815177984741,0.07993639745801812,-0.027644334583961712,0.008179482687828116,0.07767313207589602,-0.013613067744431818,0.08662782330294065,0.07069997290799565,0.02791820505335864,0.06262933564721926,-0.1626931960755994,-0.05813214014628621,-0.050757283225922774,-0.1751111660367211,-0.0871722418563703,-0.12344293050044719,-0.06026209772112194,0.033878645104329204,-0.21652351858670588,-0.10509070728977782,0.01819537529028064,-0.04620874298854986,0.1598740701426918,0.1873410624622305,-0.05789690511251222,0.03147653875329451,-0.0028944915098025395,-0.3043110706343501,-0.10734652342617403,0.1874296904380522,-0.004478801512009055,-0.12882300139494085,0.01690487428269421,-0.1056847463376485,-0.2642238580421494,0.0496948993411944,-0.05755085204279717,0.04436533934765466,0.07252585861824766,-0.02539246762493336,-0.02276016750413941,0.07423909970650117,-0.04351781497417745,0.2197445863589891,0.17935142825657996,0.3429563669219111,-0.04835603196857806,0.2615919050266454,0.09656634541139981,-0.21950611634487158,-0.11835206926572975,-0.18311874514106855,-0.15926772033349906,0.10435232079322906,-0.22659345108545678,0.20436746851458035,-0.3155401871387884,-0.05269527596546367,-0.019591476998759114,0.05396895816606989,-0.16747354712489942,-0.03143534117182333,-0.18771066313601498,-0.1759011925505068,-0.00725309261181094,-0.04889024719600794,0.060205601609718204,0.09113958287792681,0.3512130572342204,-0.2694679246014153,-0.22799710232009301,0.18479143037047094,-0.27569055728104735,-0.3641178182092499,0.13208752901083415,-0.06666683701466726,0.13640131248219853,-0.18813124795646186,0.6674408774225045,-0.8494109705746021,0.10581701202823263
75.04634857177734,1.3882980346679688,-0.29499075193604185,0.2604949663693863,0.3670441937307191,-0.5465423371795055,0.1701628764825835,-0.24729504306235375,-0.029337994758209807,0.317275446519497,-0.24894020402074912,0.2873559723980431,0.03666979508064485,-0.010428442659617433,-0.09562334133849064,0.03461668211732723,0.11041988394666279,-0.058565389375467326,-0.021743735083647856,0.016930349532626572,0.024689085026289852,-0.056248146781173555,-0.003505016979437504,0.08270707176360452,0.01791702255471498,0.11142983661301227,0.04547323483333294,0.033562845111079403,-0.013707595206742923,-0.02129185064363709,-0.11958036483011444,-0.04898257280528274,-0.05849260116393591,0.05950536356208073,-0.013954859405227463,0.00806016369866663,-0.03550895328154779,-0.006144514204901658,0.005812350196443758,-0.005904143589127086,-0.06457484065102626,0.07783777266812256,0.06838819720325574,0.17440641511984412,-0.17261954112960448,-0.09793846759132324,-0.1311224639807212,-0.0514793354165797,0.04399843078853236,-0.10935652105410021,-0.06775372017136343,0.046241211585783884,0.011450729768404128,-0.021010059995193817,0.047992915467927326,-0.08717071177741303,-0.13556572415739612,0.04999761034107424,0.04301558122474699,0.17881209944718374,-0.03956723588653426,-0.17033585859268782,0.2517373134106133,-0.19445949699952045,0.006447090992214702,0.21721512579150964,-0.3808756987321702,0.1037590917421262,-0.1582675959171055,0.1541207634747733,0.022732700982691992,0.09342368635153199,0.36296056331731996,0.11101323069097432,-0.27777646021100233,-0.23930855574529233,0.17782675542522602,0.22122049252205256,-0.259063639326422,-0.3073907980344128,-0.3772541835025256,-0.207348038095643,0.06748932898543902,-0.16159293089056329,-0.0515612058919898,-0.02491333544751796,0.47508933431798017,0.0917470620278076,-0.3472571110602687,-0.02348876861579907,0.07438054744766767,-0.10468755408585141,-0.08233102045213364,0.29287696716718614,0.23976522906188655,0.5453532510747755,-0.12724208221278288,0.5114523637093018,0.49207339291084695,0.8304808803820618,0.48508784019742157,0.15744910898158426
78.64234924316406,1.0188980102539062,0.503701575127673,0.4967510467019196,-1.0477817033385037,-1.3479661269516043,1.9941772379617275,-1.1003999423818456,-0.5064330816002895,-0.18905407293212717,0.045011938780364344,0.47564876706043807,0.11738231182220608,0.06713190590626546,-0.06319850233756412,-0.04738417533553514,-0.06150015515671872,-0.13229486197160645,0.004503113021111851,0.04550739756853663,-0.005301985206071558,-0.020500059115261246,0.12543371512376295,-0.09094146513141978,-0.03684698209410574,0.011051232213709572,0.08584619695811402,0.0006480643688954151,-0.0027797085797767306,0.015961839262167307,-0.031436218921613274,-0.02407206355343922,-0.04761734288426651,-0.0014311758906208338,-0.027077691766917954,0.061944605056343395,0.1707170203615678,0.1009369460712804,-0.16622794884004566,0.04841001616953765,-0.07704862175046046,-0.13302311699378327,0.07306080782250123,0.25194765122241114,0.005161342356463164,-0.1086047545654353,0.22832342103275263,0.06255782500154122,-0.0020667258190377887,0.17116455066218889,-0.1197216356071329,-0.029958576423409308,-0.1377665318729077,-0.3036088326907733,-0.11201253621372743,0.1898074700144608,-0.011500951818164483,-0.16792228562833564,-0.004613568087619724,-0.01659112050828366,0.04183155083813912,0.07682058135800678,-0.052585330417561485,0.17768868567399942,-0.15125448770252603,-0.5028199059323739,0.4042134018736385,0.03671713897375586,-0.23683627970067234,0.1565540443716153,0.44334311632538376,0.5416203766015328,0.12299782248314008,0.057204363880673716,0.2339666994208238,-0.14603375516292869,0.3909348002218736,0.26765974715574536,-0.3570441438788201,0.06694019649992024,-0.36456266020353745,0.14573519523449768,-0.19946157367093081,0.1334121339964549,-0.02564406684222635,-0.0792112933133756,-0.09204819437713738,-0.4238668707628512,0.6059057991121041,0.9199422503138831,0.20081301156905704,0.31198604120603135,-0.0743916001718431,-0.3441844076079447,-0.37553519238508254,0.7565977323385006,-0.44589556368759237,-0.2930921674808543,-0.11771210326302368,0.12011652099497462,-0.12481773363313739,0.6637840096245132
79.66124725341797,1.0287017822265625,0.5029413481550309,-0.35712805891069266,-1.7815549032325475,1.2266427510831521,0.5690562050265437,-0.7388940191984403,0.0006276610787151176,-0.02183490752113576,0.12042521695947482,0.13936649217407915,0.011875969194034459,0.009171163742596841,0.05995633132447416,0.029335940119839903,0.075710314639129,-0.05400518826674889,0.006467488691481775,-0.14029797820880285,-0.027346357639384408,-0.0048400662409432684,-0.1541094816883541,0.09237010394505503,-0.05613770168214096,-0.0024215429275327317,-0.004876359058433175,-0.0897885795106932,-0.03961094861017746,0.02849803943831855,-0.0004111645586752145,-0.034765514669185454,0.04547475954811466,-0.08196201204669216,0.012467173454085434,-0.051241906071602894,0.042296349558375794,0.025982882972686545,-0.16002064192591514,-0.0841309819129533,-0.22657961675833527,-0.21671435959362956,-0.14361674451777895,0.21730862848251464,0.053951811591414295,-0.03763322894429981,-0.12351823454166408,0.09749388714685961,-0.07981388599926388,-0.14934966977406489,-0.1702860662148294,0.2283015684802403,0.3036103112567574,0.12375804810186897,-0.12982797799000154,0.034239412548946024,0.060590636859493244,0.010994291761837527,-0.004415895168651068,-0.056368476733771204,-0.05215864897787691,0.012786712376349168,-0.08768954277798147,-0.1628628183641638,-0.08534633402993656,0.2938375688351435,0.03165808460576819,-0.04338326137749552,-0.3284509454579041,-0.4220653177192407,-0.10085604324921783,-0.3969627557184847,-0.0011287918318410514,0.4495292733906133,-0.509223890463305,0.2967784476325076,-0.01552588431608849,-0.13765251111230542,-0.41163792882526035,0.3324655322545174,0.007932934174810821,-0.22746738922568313,-0.26753454109400554,0.3074003305300476,0.3778165632924649,-0.5103235535449543,0.04861504670244221,0.9427930447521387,0.09515675144045879,0.1819105989239773,-0.21316701054646398,-0.09590292324604195,0.16705691595838745,0.6495551853575178,-0.13796694504546458,-0.200329146899845,0.4453552695885986,0.7156197519432783,-0.013402859497115616,0.15502456210194132,0.2556850421857773,-0.21614064895055063
80.68994903564453,1.0089035034179688,-0.7812522016800978,-0.38869403034511063,0.6954637739605242,-1.0845854176417011,0.27523239248511844,-0.3794446746344175,0.15950678024343354,0.04647808343905774,-0.050924669568077674,0.0785516894274047,0.12667003168594418,0.09238942120847106,0.16491130840816437,0.08904080641933945,0.02385744821098972,-0.0874186040320269,-0.02546606420254947,0.15597702178201328,-0.029127303079566905,0.09511109762620436,-0.019239098874381765,0.015097211801528659,-0.030094857520812687,0.10437347372452666,0.011865862455400906,-0.054388895968321645,0.09962178168341801,0.05089008542560545,0.0504101291770035,0.07733986193572152,0.06908785140914078,0.0008734812150789917,0.016299378572161304,-0.011297029676466229,0.10235954357714326,-0.01263202534442423,-0.09697877654516138,0.09021759570073189,-0.02135675781192638,-0.11214373578303624,0.08110081659212195,-0.05661271172065962,-0.08158651441274324,-0.3235171288752481,-0.032890743686317205,-0.08211544265546936,-0.13995458065783994,-0.035163218250121406,0.0444614283455938,0.09497980513858077,0.11842324547314532,0.06833776615566131,-0.23763216124613043,-0.07243145013742054,-0.0019043963907461653,0.03722282819678928,-0.12528067340473012,-0.013203404566571816,0.059091429171687075,0.004485767936254311,-0.03245380778719175,0.20497019994655724,0.17827241686165535,-0.26411334419550936,0.09873394740283847,0.2666292474263183,-0.23573730881756774,-0.6914533961408245,-0.03217447340267257,0.08466002162173498,0.021528739384740182,0.04140577740036225,-0.265580621656994,-0.1940706469927732,0.14451915283962952,0.014147823814486296,0.1237545691456145,0.2336941892461828,0.08556337874203768,0.019795434044190083,-0.11261783815582219,-0.14756285153879045,-0.10982167386970387,0.11758368741079005,-0.3786675203286428,-0.13025671481305365,0.15018553104022864,-0.42497919645693294,0.1890855547702906,-0.4645859941935079,-0.055226273277717924,0.9859728687807348,-0.7148480527090282,0.8380172067165137,-0.1900536527862281,0.27760196376868984,0.16833765327337133,0.7997575924840867,-0.18937557424758192,0.05997392765657006
81.6988525390625,1.0185012817382812,-0.3448448517553419,0.46582027000594173,0.16933303096113708,-0.2534280215766509,-0.011755083384646483,-0.04098024971693029,0.0415718135360922,0.05384025815908239,0.0717547153627473,0.05873449741833399,-0.06890548825576072,-0.15367096065129457,-0.0867987715625737,-0.08270646011549931,0.13982993577332278,-0.012960735289745872,0.14866814526400712,0.07973582101246349,0.039256658420915996,-0.06950620853140227,-0.02236999972198671,-0.012188726212529446,0.16978098281986892,0.06335457389530505,0.03579114196592058,0.08406099457885462,0.048992461529206624,-0.09586069503414499,0.06882743883971856,-0.11222985796569503,-0.09446106230975958,-0.1640862257488034,0.045119181012216916,-0.07073279913395843,-0.047789237514825327,-0.06191887488232109,-0.03612297834107719,-0.11640244240979021,0.0290037289583763,0.002237739975166141,0.147269310411963,0.19702958690582595,0.19305824556026385,-0.23408954874381974,0.10367807565769752,-0.2144994759118919,-0.07272334598439442,-0.0029626113004208045,0.04732396715502282,-0.05030924865629667,0.025369892359855956,0.2272200649940439,0.09706135260117235,0.004723713865463789,-0.12064906826981621,0.10826539611534922,-0.08760720143787368,0.006891260669626179,0.03233022358218,-0.008960556737379402,-0.07742238994224776,-0.3313325791792332,0.49240795228919804,0.18896767544049747,-0.26376219473288215,-0.4338764977738003,0.02924211433024931,0.12365085789317914,-0.2623823730113502,0.24599347175434882,0.06535707497370048,0.6118985007631336,0.4184864616869671,0.09829020168320343,0.04209009005013575,-0.2149153704106903,-0.028094120560758478,-0.515242317815291,0.3472226454908545,-0.18212031530026718,-0.48446695285645464,-0.06407951131469664,0.2781269520174359,-0.13352528148333523,-0.0780476157335684,-0.14181919101106413,0.2815560204221176,-0.50691367699893,-0.03326358480590695,0.14278316576551547,0.2532335393590589,-0.27441633182492764,-0.05855695956359194,-0.3039232337790219,0.720489510696085,0.23138195215172158,-0.8446252854179086,-0.2806456115395558,0.31946847467285544,-0.025257914827328642
86.39344787597656,1.018798828125,-0.7128884283048014,0.1055467470197489,0.8752715979944036,0.5336026566737025,-0.73896300711446,1.0934171759597135,0.639718700782067,0.07856297027998341,0.05331699418361576,0.28985993215570044,0.06686699846255968,-0.04706706059969544,-0.0763249295510235,0.03261012576843251,0.01063600213970109,0.1685512987473722,0.0014147664915707403,-0.004659304357619455,0.006770100747639127,0.09602326838634247,-0.11377860253507832,-0.05720078784293288,0.01437223146143576,0.04591472043921334,0.06717540578762575,0.01905694422734726,-0.02790575830699047,-0.09666138001969048,-0.039652995868349764,-0.0322428330659907,0.1231727404736894,-0.04374081758588222,0.06185947972455151,0.04727939232445241,-0.009512266933740679,0.03431747607456758,0.06972281827588957,-0.04638289337215178,0.12137356664229287,0.04571818601878895,0.28248668015123074,0.26573537082894516,0.11815102839447608,-0.03784216278804767,-0.11771134384408732,-0.03377986947788168,0.011425651675763175,0.05292071052653263,0.09206937625788865,-0.15291062646651463,0.2411599474678436,-0.09628441656691258,0.11535167271400541,-0.12103734342253854,-0.03865006296242712,0.16426470357661016,0.027093119008528864,-0.013651482145186439,0.04685279831401338,-0.035036289430559336,0.13017126046011973,0.027663821032383875,0.14506051104287898,0.41193091686924105,-0.3327504583396115,-0.6510548695334127,-0.4460629993535234,-0.13707815963411663,-0.27193886379460747,0.3901329481173612,0.04766124534503974,-0.09049212220746926,-0.1279473164317829,0.06028836684156428,0.4253850253818882,-0.3660635133680028,0.07005478159196649,0.25545010731855666,-0.168166329569792,-0.25440658475968875,-0.20307248733238534,0.022460988120001697,-0.02674116461771306,0.24093050519488357,-0.25569459660754074,-0.007366219188599282,-0.01272882748012677,0.293874384367954,-0.3999124573672297,0.3327683831858332,-0.0007165875324240782,-0.19269126673123715,0.13401536857498864,0.10108813628864519,-0.43490179260889533,-0.27650207437869606,0.8002121469926712,1.2564118059051608,0.1389637205916367,0.20584131637998138
87.41224670410156,1.0391006469726562,0.5207904356627213,1.7028910631235654,-0.2411085238678865,-0.019369628506506083,-0.3201631019385335,0.23035208601015814,-0.10299741726312861,0.00445199236253494,-0.04237270118144815,-0.1146749413407148,0.40582148375799515,-0.22898512389994502,-0.26554582776216407,0.2014458011755178,0.05597368181383014,0.1308945538162494,0.043274783477872156,0.019342368432812434,-0.021799408937383538,-0.07590398127306565,-0.03234463967322338,0.079467701586982,-0.11446721340069135,0.06792362692847252,-0.026305625462423494,-0.016764510899436945,0.03291680802805113,0.010628589485144863,0.014930337502449327,-0.03399992639726075,-0.031796952819184064,0.004729021833993889,0.04193635013890394,-0.0780589541591075,-0.028724996280055284,-0.09865089183182459,0.05301026889178646,-0.044879825516040354,-0.0373437032544102,-0.08668394137794001,-0.059725809188451204,0.04258313804551368,0.07224084473943394,-0.021782192845704092,-0.24398441759051068,0.2263644358685071,-0.11355361776090499,-0.13567378673311303,0.06823541789286504,-0.09432670087880123,-0.3523617668959226,0.07357218428167654,0.19099890493481675,0.09556073843115473,-0.024770369215686705,-0.03071990970441776,-0.01602020168957095,0.006521755392186933,0.008015693137373906,-0.021270333357411315,0.0009661603597943182,0.01830991773265285,-0.18064789250096525,-0.21671134719326052,0.07052185712035756,-0.15697103076905966,0.10638194844877275,-0.10842284489080171,-0.10278213823162467,0.5465867054772142,-0.40705074554302023,0.013538175637091313,-0.2114375377752958,-0.03701992393605362,0.32580175613052,-0.2803089947020344,-0.20768058522258026,-0.42800047659780155,0.3915086299976413,0.08237577592703257,-0.05980287402411876,-0.21155881455671177,0.005654538383705865,0.28877136190248176,-0.4134186309020223,-0.18623859893889574,0.10963498756354689,0.27199592072762047,0.22383134359304277,0.31732812520863607,0.09848205221032656,0.2839620806344518,-0.7745124402429071,-0.5328087040565666,0.5842336068494387,0.5952955197209768,-0.2745654995285575,0.08752251529175475,1.0476758674454114,1.3192740163387746
88.45134735107422,1.0084991455078125,0.7444588535544727,0.23005813583182294,1.0566326373690522,-0.9318390505304636,-0.9632714002487899,-0.27752261151961966,0.9612019608292065,0.17622640249581814,0.037213092897355936,-0.05230000951986133,-0.12431063140037708,-0.09691242803108732,-0.23574199194229198,0.1000886773039906,-0.022632610732480542,-0.13493323932464216,0.02980094531316045,-0.015517038206774282,-0.018673710157833347,0.026070379203638937,-0.11141572095679163,0.013827700573273628,0.10723070537990467,-0.07443834129513752,0.03083786172184748,0.019066162339620274,0.04845861686842827,-0.040173804870910074,0.051982877417335586,-0.011093055144878499,-0.07160872518762736,0.006458874783309687,-0.0995313562616888,0.026900170010420645,-0.0564592219758808,-0.1721888411713567,-0.13672026767165676,-0.06898757562913944,-0.10802382777599616,-0.1373382500484868,-0.3508653910651676,-0.19590177064870204,-0.025231670920459203,-0.12249417417550156,0.04371628618493321,0.19665213915658686,0.1053797718520352,-0.08409897757399071,0.06599406593794799,0.029500226093743424,0.025913308343585226,-0.013760123187069023,0.10012255322794171,0.0582402939281728,-0.07630624284606678,-0.0798866754313905,0.0826108161647548,-0.020580099115408642,-0.01481050964116905,0.09185521304401764,-0.00937946241978943,0.05451867716255582,-0.21560774148486694,0.04437891681119656,0.18695496085132404,-0.2378769306554974,0.6343456325656897,-0.16817614387582863,-0.23249705168510754,0.13387258190735976,0.24781194045169289,-0.21938268916016357,0.06826126439735887,0.16184233314506155,-0.05814559794775063,-0.16417058999219922,-0.13871567207731753,-0.48836510262342314,0.2730096308054676,0.004531010760438901,-0.13700532736225557,-1.002073406607129e-05,0.1779837443935763,0.3073871451433542,-0.13319122518696805,0.24189810187443192,-0.006277345652588643,-0.125560662058073,-0.15375032153071028,-0.05571243365315316,0.011567024549545526,-0.20573360792963846,-1.0860411017573424,0.4901840502300415,-0.6883798646998913,-0.06033550123779753,0.4978592753120373,0.60809928435987,0.06299521637585012,0.15445274231433334
89.45984649658203,1.0088043212890625,0.015306783040940714,-0.9339322040509686,0.4423961654713481,0.6510424897281526,0.09194507084330053,-0.4148335009674673,-0.08697711084412352,0.0918902972201341,0.0659848323020498,0.05368859624966783,-0.006780884294969205,-0.05841339272236509,0.0016375006845544687,0.10458505731952297,0.12403077970511928,0.10783255181795547,0.0232141864307439,0.015746073353009496,-0.01742952876418151,-0.037793813188999305,0.0073601414451848505,0.07135184000386323,0.0010060171780474762,0.008454638502504518,-0.009389915463075814,0.048446128954269876,-0.13906735283564842,-0.10230917524399459,0.07990010567924685,0.0012994462399677882,0.11288097275552615,-0.07546234261285535,-0.026371572829172886,0.04975428402048547,-0.058910363244026,0.19094421897364214,-0.12628158560162558,-0.08912382770333782,-0.04708413325535049,0.12408697695812787,-0.18783230467884746,-0.05768555167365236,0.15516881380403358,0.1784150434991179,0.010933622034824775,-0.03712289305751532,-0.035998720919830585,-0.18933705166366258,-0.28253346915924055,-0.1504052881927542,-0.08806801366903773,0.16252942817332186,-0.003937772212264053,-0.21608282067408496,0.18473002477099634,0.20780916047884881,-0.026263873219114733,-0.024618335153281205,0.014092027297188881,0.05017721427803356,0.07694635492262156,-0.14281325585749155,0.28521667427801933,-0.09543627973709794,-0.029264200680905454,0.6155256170534695,-0.049159791079074686,0.09921905645318019,-0.16241601800883912,-0.2997975698798184,-0.12577034072800858,-0.029953323235652807,0.24670681177493176,0.06611520548974686,0.013664538323222973,0.2462295863498055,0.3412501894293,-0.34740612061484577,-0.03744592140374984,-0.2857909806461252,-0.35445064732715253,0.29517016956381903,-0.19856760544315127,0.008499337370879004,0.06725765110295458,-0.04762635636854674,-0.2681199317588772,0.1334179783438253,0.1763303750408946,-0.0180294644272454,0.19353868218521686,0.22508108343211125,1.0470525533224069,0.07237575062154888,0.4272770910036691,0.32828582982437565,0.213368641180083,-0.5853506074329244,-2.0494279609562898,-0.08695064390596874
90.4686508178711,1.169097900390625,0.11729704675003672,-2.18810363102824,0.01538580163534714,0.19662717986588202,-0.03514972959982185,1.0082413774943437,0.04801544837688669,-0.20891821328401003,0.03543291773416797,0.1287428471281302,-0.13694020654341554,0.022364392499186595,0.13031445134900882,0.031973154340183954,-0.050127382378828675,-0.05920732770259397,-0.14109630370001194,0.027075370484628016,-0.06424914802526101,-0.09988333147771755,0.014651920903061624,-0.030512870997426913,0.012744789119873257,-0.08383469768273755,0.014400080886354975,0.029027751568542766,0.03459861267040767,-0.12154261676590929,-0.020766136188972967,-0.04070666405119572,-0.063271818580212,0.044178768775947966,-0.032400699599430066,-0.0846556907163933,-0.05842159391114805,-0.004553436739870744,0.03493681674666781,0.012958379656396651,0.03093933844986855,-0.09204572194893174,0.05491915872851446,0.04605144538567985,0.04757742206234759,-0.04721244225619178,0.0737891407752502,0.05215227210830205,-0.15664869070262377,0.05189091548825199,-0.07695630694430297,0.00040460609721704177,-0.00597454337562486,-0.10761117957110164,-0.038787385541300866,-0.09034680520343727,-0.08577083369449673,-0.05832243980501676,0.1502776501563881,0.011886182793824248,0.024794724445506622,-0.13106857666671318,-0.09541984172415638,0.1648691627457164,0.21223213441184013,0.5015421491560198,0.09903693611963632,0.19484379590484147,0.04681291568081829,-0.039930608095104556,0.13866237105493806,-0.08699616791734997,-0.15004568086800257,0.14148243581833742,-0.22053594777965768,-0.08919842245550012,-0.07006102717176163,-0.6056964849129614,0.16780023999395974,0.3353507315885762,-0.48901449086351356,0.16213386187694323,0.09547273716094162,-0.41160873011554194,-0.010504940587548615,-0.02274258116667027,0.03379687912250591,-0.0893768462108957,0.4936493149891916,-0.3249611242174384,0.2279034478260239,-0.290124355526726,-0.23736403941363227,-0.14350662138112358,-0.16934764015162124,0.18201402055871324,-0.19904799099073137,-0.36134241002789774,0.21194379886057765,0.4050263392340792,0.92067662534897,-0.3825354234669127
93.88465118408203,1.0493011474609375,-0.05294553299842886,0.021232523029755423,-0.26158378866448384,-0.1622326827902764,0.07362801055646438,0.19566457386028044,-0.06425449076134805,-0.37255241995813626,-0.7978499011766848,-0.09711072277694574,-0.6878667204187972,1.4390637128308945,0.2713663874649715,0.0068389402987021185,-0.0026223013438180227,0.09307064044299601,-0.0413838348631317,0.010120711237899892,-0.13614429990896057,0.041700028524864485,0.052685389968421606,0.049286798171611274,0.1865619947496382,0.069303958752186,-0.0016833051922380971,-0.003945873056676631,0.015825791376134348,-0.02366746766825198,-0.04416755122710976,-0.07053958437469655,-0.02107885745984342,-0.021617761189774966,-0.03501757267983896,-0.07852624227944448,0.0726222795444838,0.12719478311164423,-0.036819584829310116,0.14376697641541086,0.08933928029609405,0.0288793760146428,0.5328856450637304,0.0554185799088671,0.3404266307376353,0.5963847322528668,0.07388514483900861,0.3179226529667554,0.003566503284970074,-0.030095584061498138,-0.10518831866343248,0.12899367104555967,0.09212076800563215,0.02561819000816057,-0.04838430015210486,0.125850749417447,-0.1544370435587946,-0.03401344562568262,0.06064250989699829,-0.07244806273869231,-0.031202021557890612,-0.015430364365726989,0.06072113820549237,-0.09002490809401364,-0.09028975799187292,0.21473547017580646,0.0974671611131606,-0.02101806155822805,0.2381879652024983,-0.20712426091341443,-0.48058105509515625,-0.2420328550387909,0.5310807042933156,0.0603123825038621,-0.19796014097627584,0.3007023335801652,-0.039135235352510046,0.10615848221627865,-0.23605810849581838,-0.1794311589542078,0.17339232186956782,0.3107973408071624,-0.325320428639107,-0.16149911053331112,-0.20772471654872382,0.01884358609169945,0.2613972231933427,-0.6114271383665455,-0.5039168845581723,-0.13415133141355473,0.016084978824171245,-0.2651571582388915,-0.028674950685566733,0.4453005262380546,0.24607180125656106,0.0740550633731567,0.09009852252258634,-0.023134333546012492,0.3797431746681441,0.04123754908889506,0.6319399710490583,0.34317807293176056
94.93395233154297,1.048797607421875,0.5227330641057326,-0.1518469398893197,-1.3626390402300903,0.6249151491023982,0.7881790869955723,0.48465296473949493,0.5358851841232266,0.17121189433727008,-0.019625373517775945,0.014023764166763349,-0.10522831365311441,0.07131951819062789,0.0144995878747375,-0.012282029354406088,-0.0793730576693637,0.07294246537133176,-0.17323913877641028,0.049660090320016476,0.06540954400352839,-0.06247705955624177,-0.058979719494358235,0.04243813201756315,-0.009454681096722622,-0.0022410031750048215,0.12492384141002212,-0.02061204809640661,-0.03863102106336735,-0.09638991914613601,0.2323335515377543,0.12383122113919454,0.12727511045681128,-0.17743244514884002,-0.21141273091876092,0.054254649576515324,-0.020316322344303188,0.08290156541046781,-0.11082215331226332,0.03461350656353425,-0.16895266197569328,0.3495338247525139,0.15432391188376332,0.2789585159144431,-0.06963830753501157,-0.15659705080838768,-0.08795850821801293,0.20832933303452555,0.11392198338096753,0.1598622662269426,0.1833817022371562,0.023876942456538167,0.10480775610246001,0.11727607601364656,0.04488985861032448,-0.032593568617026066,0.025027345605516504,-0.023801856694536022,-0.004902177946249762,0.0030087578720639097,0.030526831246027283,0.006455619513799162,-0.09961367674088649,0.14996070076097545,0.15196090401059473,0.5385362888201543,-0.24593294932372958,-0.1522834320817193,-0.12228442012849966,0.11146406943729716,-0.15335617251093403,-0.33225519933191444,0.009426727809313251,0.18692144384386405,-0.023574648434187075,-0.23542471122861763,-0.30158264812725644,0.47234366977937137,-0.6040887013376542,-0.23258335853607687,0.08824647723579503,0.0194319364483371,-0.1872817580191531,0.4722572683678322,0.5255343554750456,-0.00463806134888841,0.41452370675205563,0.035323300601638505,-0.2582076806446965,0.10085244624426594,0.27707125577008906,0.1566497399674384,1.0563508857388155,0.2563753703863314,0.07269253754141042,-0.9249307172668283,-0.004635719169167524,0.12022509479878044,-0.16985848499637124,0.7358793940369845,-0.379333836467833,0.9472994288400834
95.98274993896484,1.0385971069335938,1.2167312455759207,0.5970421005912923,0.07432957851322514,-0.38558466547280523,-0.22174971262838405,-0.14218766542767944,0.16927264188057103,-0.13733813727742783,0.04167421102831656,-0.015388769015171843,0.01575002212994195,0.052712607507298836,-0.059447685468062776,-0.011690465110566386,0.041015765178945486,-0.13645846085447996,-0.06324954962663132,0.07978211673328976,0.06930934875518525,-0.041538514289064396,-0.008917603889097254,-0.07788091223732832,-0.009774914760668104,-0.009428517289334104,-0.02167155248232089,-0.064051563030388,0.04632220369052759,0.0755872198722818,-0.02782246180934349,0.036781689969815325,0.05170727400066685,0.09895896887746897,0.035557628928552555,0.01202749055538252,0.15650350854749567,0.15018604270532457,0.1028521619289639,-0.15305497365064907,0.06960664460884622,0.1230119699424733,0.05464537876350291,0.06919528305082154,0.007980766780216576,-0.15507736091490518,-0.18365214753651365,0.18541587336857668,-0.29764318840901505,-0.16206470726676878,0.09678580095408855,0.2721294924526293,0.0968039605610984,0.11761421418920837,0.18789231835635886,-0.016894967732088758,0.11212480042470417,0.15904231698250187,0.05750775753508495,-0.03734693206146231,0.0275880994689909,0.020763872443819983,-0.15374722260494852,0.07557054883749655,-0.21108293087571905,-0.34483208850861025,0.3015710762589671,0.16122854931453806,-0.2456854979297594,0.34983103580817937,-0.07320409017025536,0.01820167658781416,-0.06776349493227556,0.0294309713000023,-0.17249813720228718,0.0078176283472798,-0.0027898785620757427,-0.034473841459327456,-0.8009748868033203,-0.1817206042305733,-0.09933426826254309,-0.13601361144593493,0.16649731243554872,0.23050165195462166,-0.032114687927614516,-0.05152378208669279,0.09815987623256592,0.22097705191737751,0.3800516216547305,0.34805852319825137,-0.05408855472861669,0.09159465774301655,-0.5291487748144342,-0.39864105947709855,-0.052668274530705564,0.2886676836053416,-0.5141614982589993,-0.019687794226514142,1.2824773419069333,-0.9927597506160046,-0.1722853982417061,-0.7715853569206196
97.02134704589844,1.0489044189453125,-0.5805007052648662,-1.5119124215917163,0.4782648197945359,0.21624114824937252,-0.04841334480943965,0.7747662237355543,0.14240364851378667,0.05012066746114295,-0.020877735081757824,-0.020347243787182983,-0.07147575933882327,-0.09115309232236897,-0.06729726213950168,-0.1473902205875655,-0.05692307302428334,-0.14748330761642836,-0.06460319903594733,-0.04699128797160301,-0.14875997928855508,-0.09100976952699805,-0.05415208590497898,0.09404923328293437,-0.05608983034050961,-0.015030980112609359,-0.0037582499788702418,-0.061270174166020194,-0.0014709242835072717,0.09853494931728914,-0.028787745352717078,0.02621257057830837,0.08259738304338944,0.021215505345597387,0.1391742705893423,0.09992060126878494,-0.1447177883970343,0.018342428163852426,-0.15211846119444628,-0.016303078678219556,-0.15562240049032128,0.09276684253145585,-0.15262901673638415,-0.2623741315763062,-0.013381716937148054,-0.2667504154165895,-0.11642853062587262,-0.008738264352618128,0.19496578921862426,0.07937817122409514,-0.13823264289624088,-0.061563474264211576,-0.03438939382696239,-0.13121829262391618,-0.04400727289056507,0.06664493635659618,-0.10634771454928409,0.08353628874160866,0.023966454434875106,0.01926637397104347,-0.03704904370642867,0.007132191832521526,-0.06314317553073673,-0.01758086622653343,-0.18206090876779904,-0.08931203226250434,-0.1832149756021201,0.24167068895947943,0.1442537540019332,0.3456802259583923,-0.23256663535249458,0.581108268418784,0.3065472204986489,0.1922749733260712,0.2680240259423338,0.09046795619408327,-0.5357941770785928,0.1056901683659889,0.567584803633702,-0.1724688417040552,-0.08601536364135595,0.0425394857720104,0.41705935055441024,-0.2960796214123809,-0.27236519819315863,-0.19764135783771714,-0.10772342087847078,-0.012641266619573965,-0.08085521003437111,-0.08908647981553323,-0.6135433702644705,0.3400231180200447,-0.30613929576532684,-0.43494633584852616,-0.2739756675949576,0.02191618978351691,0.10084947738453365,0.35528126560222606,-0.036127887237214315,-0.30031559076981656,-2.5724693837080017,-0.0673413624135516
98.07025146484375,1.3584976196289062,-0.3353976561293214,0.6281235272980673,0.8016846704726779,0.5380544224330811,-0.47945139475117216,0.11840732241318079,-0.15160561433490533,0.4235658068191943,0.22988914594549537,-0.6991416983401341,-1.5206287487450674,0.3633758040540013,-0.055574431450041005,0.07982645799573937,-0.10660275301863589,-0.03594738218185117,0.1043893795776461,-0.2201000841748131,0.013223123870157505,0.10202752615309081,0.1533614270075625,-0.0204642986860252,0.14772750380552968,0.05459461547849706,-0.09390432050923622,-0.16991091674516445,0.08218485874118073,0.024686934740334607,-0.18194887890461908,0.04474201749665431,-0.07750942940778492,0.20404929897387092,0.19636904774790614,0.05697739725026621,-0.17375317050639422,-0.07447032533044712,-0.06656411930031363,-0.02180774749371922,0.17811621596863075,0.050484129193742955,-0.07459062102942512,-0.39271702979129597,-0.03490739357280331,-0.056015248377288246,-0.027819516739565515,-0.013100490865938674,0.0935539790221944,-0.020699563080049613,-0.1509535332135508,-0.0037537288557322706,-0.017371997410094042,-0.10665411051760959,0.008389234941811088,0.003565814279927755,0.05550638542905805,0.03789424410070384,0.005779766241922029,-0.029948153607509586,-0.06592854725825081,0.1232505935852665,-0.1743493730349725,-0.27398439748721337,-0.12169208180016566,-0.09745214990377676,0.1373245814447446,0.20618641649391817,-0.07445077820327893,0.06559433121577324,0.06503275208574988,-0.15163739778780833,0.01980506556294266,0.22422114262201434,0.05824823569775195,-0.2764197562257943,0.1675326592168285,-0.21954352379037984,-0.08548971580101443,0.08935031378649312,-0.062084192473240804,-0.2083822054788277,0.20070811857394752,0.0977451713652549,-0.009394568981368954,-0.02577336766869842,-0.4505827483337415,-0.10510135232494254,0.13338209004564874,-0.028366283002534333,0.21765958169099897,-0.6502703648290588,-0.2659778491089507,-0.1792064573558123,0.6119119609073533,0.7027607015523042,0.3383021617364994,-0.09563780560695817,0.40695565367959735,-0.1405975212800137,-0.5260967188306519,0.5145473815443605
101.6762466430664,1.0488052368164062,-0.8846774721793623,-0.20598877520279857,0.12324927135337733,-1.5233214049381945,-0.41156458636118254,-0.1484197733086642,0.5065091208716472,0.41784602044100383,-0.03535665145051581,0.620191260988868,-0.18374362938974112,-0.10059464816035875,0.10445662474452996,0.10030800800919489,-0.10750445642742551,0.11081815454720026,0.06612522752720477,0.07038407281819468,-0.06190180176713515,0.02815728751969981,-8.832707470650056e-06,-0.06625907901443127,0.00648576020106949,0.009374722059182564,-0.07516607593349756,-0.035337712806404624,0.08466736053920729,-0.07825462826802801,-0.02366274150923835,0.04690902997185982,0.024411521947574663,0.0701742495134795,-0.044659106851356364,0.16031994065179153,0.0017395265633718495,0.0654269345856804,0.04506301207577705,-0.019362171834386314,0.14057428247469808,-0.14323616132860592,0.18144638767409144,-0.04977084505592583,0.10936860054287172,0.1292816798401218,0.18980522747041578,0.13281998533617062,0.04753496926431954,0.20049599924582617,0.20194287423249715,0.12847501164776604,-0.0014525102459841963,-0.11336012568866749,-0.1041114653510851,-0.009588369300277663,-0.00878081756597699,0.056972449472384876,0.04709086557181753,0.0913924291640989,-0.09422543143481604,-0.0025390704030741804,0.011536550244846441,0.18210304050641704,-0.46669948627604246,-0.08581353674745432,-0.038861675648993996,-0.10315054300256486,0.5690334977223666,0.10029145705544035,0.05711787378362153,0.2789501390481307,0.1350711611731958,-0.19980847951355957,-0.04017042198617065,0.1730732233396154,-0.3327923786991707,-0.4302297546099463,0.014240749883065933,-0.03964282000371892,0.07825480233711678,-0.4823262726846014,0.2039544916074244,0.5283476837413679,0.0640797096029102,-0.14986972089133854,0.2718575503484521,0.1441038071506656,-0.33034659105268327,-0.34976375435285706,0.20652422977035237,0.3138226460067048,-0.7432544963017051,0.19879471364812107,0.39587599807485213,0.2142382880258421,-0.010082223362069695,-0.26943367109408806,0.5418896158782408,-0.409508166565666,-0.10550402013988058,1.9744304868258045
102.72505187988281,1.0288009643554688,1.4378629924339235,-1.2732736776760527,0.4231871581344188,-0.4462052209554688,-0.3867194107869491,1.2852710688810378,0.007628577883801099,0.0722683434793174,-0.0327834689320516,0.02398191762172737,-0.057624024594652594,-0.002142864235142196,-0.06347276172229584,0.04689646351134272,-0.010266314218843456,-0.003963171197670025,0.10436028251553199,-0.1543105860182626,0.0050207446727337166,0.051498873029387056,-0.06434064290539503,0.03870209252702752,-0.05012503613404715,0.030814294474834164,-0.0452283811958427,-0.023680375118468697,-0.10630464638998821,0.043135688441839716,0.004752933796122682,0.015817602261364683,0.042171902161368305,0.034129905153273084,-0.14436236005120456,-0.07887802599242952,-0.04127342883529879,0.04958335345244448,-0.12848419577424428,-0.18994874812541743,0.07928416126470032,-0.07896688757093569,-0.09279292873103837,0.23516816764846965,-0.04458468720834503,-0.060771548261818784,-0.033919400614360454,0.0059884545343526436,0.2641755362857749,-0.13528292980512155,0.0500325832035933,-0.19208898659080428,-0.015702902569664404,-0.09127334004618119,0.057278530714064725,0.05857603375259979,-0.1889320740787423,0.08609295750365295,0.02648674623201081,-0.11360726649200993,0.05066836030912678,0.002720208983964772,-0.05774942160871458,0.04685642587249663,0.05418639273473249,-0.1690038355921312,0.37473320926987763,-0.018568893731496075,-0.060472672881168366,0.2409548299153462,-0.12610526208643685,0.3019367937397437,0.32347617815925417,-0.16547843415642038,0.6874470915722272,-0.009635808090393091,0.485020081901745,-0.1542998172646236,-0.04306027817900737,0.07537548228158203,0.07014222337234265,-0.01802009115341989,0.07509904225119583,0.012975184895365062,-0.1215557819489546,0.12084115609077686,0.09765218539414945,0.22824455389322645,-0.576583129588273,0.03068425400873466,0.29706344330271256,0.564921902292783,-0.0874089320791034,-0.08668255168277936,0.000765762713976343,-0.3285162038520336,-0.2522266323919535,0.49062148280422585,-0.481732874876773,-0.06200798381211568,0.3199445996167688,0.34029825624986465
103.75385284423828,1.0188980102539062,-0.17098405859060162,0.5048951596603491,-2.020792140899685,-0.8754503495886541,-0.1918501539634705,0.09410384242297173,-0.02786003748827453,0.08059202711321933,-0.01831620849984336,0.08348472393216658,-0.0036345711781063227,-0.06630247829502736,0.07305201760277726,0.2573519337627994,-0.08149092808210862,-0.10655738094386864,0.13759466769139148,0.08658440201611341,0.039817368816941374,0.09576292059901213,0.025721140954408448,-0.018798990341085463,-0.03067079120634677,-0.054167899426395466,0.08403613431891581,-0.0399507214038655,-0.06975491901378077,-0.016523353674931494,-0.04128546692984334,0.0840527489621813,0.011581390243548045,0.019150909236852882,-0.042049905757985936,-0.10681190388545517,-0.0551046333813765,0.0558014827215806,0.020392898710866327,-0.1240841688271927,-0.030446657079626193,0.10009483772519955,-0.08535934888783642,0.1498701823503018,0.22834879163758173,0.2738973148969868,-0.0010191013077764238,-0.10326086505513714,0.044757333773812365,0.28234369514110896,-0.3288098746672077,0.03048144427474757,-0.061128021507796254,0.043430540880976115,-0.0952238515985479,0.03462167183180537,0.12702951912694496,-0.031518399937046845,0.12069357856011341,-0.031191708146599145,-0.0032050012674896956,0.017822255738029064,0.0008873477850096932,-0.003689137688136463,-0.4116469973106679,-0.13523435641044085,0.010373610378813779,-0.021030390850835107,0.24665586911428697,-0.6270776836681484,-0.16075593311223987,-0.07357163070119724,-0.08464713852048875,0.1748079766161706,-0.017522772342824747,0.31044592974195684,0.1267231262013586,-0.12444122901097518,0.13552154283001203,-0.23362580935076624,-0.2306505761261876,-0.033529594940627266,0.3844308558168418,-0.11563297697665363,-0.0787636469932036,-0.4273266287479115,0.1388621834309736,0.16660828975972777,-0.040972824444859085,-0.15634753546622826,0.0476186308051033,0.23286090298591391,0.49020657875950996,-0.04932130080165209,0.15611407873388533,-0.6560486106197125,-0.21439356708368112,0.1497640174140704,-0.2616142073930143,-0.08689468874237655,-0.00013560293699265693,0.4705323077143938
104.77275085449219,1.058502197265625,0.05235979322902462,0.4383154418687693,-0.004855587995338043,0.09289947771701254,-0.9826254000363238,-0.34098371440680086,-0.3044771052710403,-0.0871663179180465,0.08747324056560904,-0.08388239979145053,-0.16069330048246808,0.0197561856567729,0.13762153627041154,-0.08106310678043657,0.0017369596757433226,-0.11765958941168328,0.014862445004289791,0.009605716796955932,-0.02962733781973035,0.027786732636904697,0.03982834463917679,-0.0646425969539049,0.004639646378838235,-0.08378089692752669,0.006478638005560834,-0.11279828971211905,-0.05952344000135457,0.04436553024880363,0.09310918347963384,0.003524545240837451,-0.0504192986433216,0.14921807623996752,0.12989937118667308,-0.06669090803027973,0.015404843478274819,0.049812611830404085,-0.09033759766477618,-0.04433339607689908,0.03474896998836096,-0.1011123814098657,0.061964240578377544,-0.22961198303162123,-0.038507235301063716,0.058621521938863025,0.034855064673976886,0.151682870844895,0.11968067464320081,-0.012725156828121906,-0.3197252050807277,0.17591528379307944,-0.039603820404220835,0.21162487366491414,-0.0889509475960695,0.10303281753072903,-0.021264179108235578,-0.1434354622062651,-0.10169799674573823,-0.02966685595056856,0.008469354924518425,0.03659382495868449,0.2791080772196401,-0.10472714928736258,-1.1247963097353018,0.25319213411943187,0.4018694599963021,-0.3232406135132535,0.00762808632376366,0.03942440470301922,0.17523264597579946,0.04506364708865537,-0.13351862890134464,-0.5849409866712891,-0.11899679168677361,0.013719190590503654,0.2598292859452895,-0.01616715819149442,-0.12166184327580201,0.021916803407246367,-0.22992530164372274,0.37171770927624787,0.19421240145884178,-0.43350488183620567,-0.3821826373091733,0.2500225298341019,-0.015381925776487717,0.12870041354031087,-0.12636697254172208,0.4010693503477589,0.14990402013768525,0.24667373409227777,0.1528342377726573,-0.3379315352933451,0.07704157391501434,-0.40527177709840234,0.34971204220229446,-0.16382771729841278,-0.006177358907050456,0.2785645431931598,0.1816016867208486,0.17016852303880445
105.83125305175781,1.2285003662109375,0.18623683134118446,-0.4953553640417303,-0.22970522197294757,-1.906242513305883,0.0033286254472811583,0.3371336968210632,-0.09635533527603508,0.07115292097889306,-0.09493465073011019,-0.15481377756242173,0.04276081270873469,0.009487885716160854,-0.08689639200213287,-0.034324652089176275,0.06235853285525795,0.011678674454112269,-0.0037550194463594373,0.011316040848125777,-0.06863705706978779,0.03951645464894496,-0.03507515358250356,-0.05993645083273399,0.06903025086613572,0.002655394680765287,0.02654382795771069,-0.08819852069736153,0.09171241086906931,-0.04189623955669269,-0.15954957701306358,0.06754525200729733,0.036111958590713374,-0.15124399393071222,0.043937640924069946,0.11271957794710497,0.04370701162941873,-0.0099045145926841,-0.08676294512180899,0.02811723935971673,-0.0654955025175625,0.05609048802942004,-0.27079980037447376,-0.17788516173380373,-0.07326824855707426,-0.06806950707788686,-0.2159578928114155,-0.0024862243213192377,0.17309355387249245,0.11850194172042372,-0.012034175799868844,-0.13038382887483577,-0.10236010152168454,-0.10679244680905221,-0.0752410674822337,0.0035312003954037024,-0.07967336350178376,-0.04198144830305607,0.06314172358123954,-0.046470679479791666,0.0038624118923176265,0.07333702147242845,-0.2547392660327934,0.0009669274915456473,0.03677628291229039,-0.4149484159009346,0.20906744203440994,0.42053014951796697,0.23142725525940575,-0.023996097873117416,0.34137045770779606,0.0006029736618413627,-0.2364423289878986,0.45628781233209764,0.043253044477840466,0.3268866830549393,0.2524074965114477,-0.228988768365111,-0.13358245135812283,0.1806968854712225,-0.31797780803610454,0.10069140542462987,0.26490627451177184,-0.018369355329533432,-0.3683415909821597,0.9954588353597315,-0.44717247434670826,0.11248512921753784,0.7360655355203766,0.13715069929857912,0.1710651274647286,0.2269465337626213,-0.009566484031540532,0.07455766038331185,-0.34207755540922163,0.1951888646112345,-1.1552797442109293,0.27817323659970394,-0.17527338381795604,0.8910237567827018,-1.1720176278536314,-0.3339502713410969
109.42735290527344,1.0388946533203125,1.2706590897377388,0.403520064300163,-0.2516692950140586,1.1264339217841526,-1.3659015064485533,-0.9424570255164836,-0.7044570711245056,-0.07969377055789223,0.1133788287933238,-0.05672547773900569,-0.14350700853014753,0.2670546441412554,0.06321990248418893,-0.16069458560744831,0.013761857797851364,0.038846256054293586,0.033292714892268815,-0.046595746779255764,-0.11056808744373717,0.08270027381150384,0.08268826148666183,0.05373360562936381,0.08049792265513378,0.021701104089091483,-0.001209168795336035,0.07940827874935842,0.11169874834494535,-0.015357240903645528,-0.04428549387898511,-0.04562423874665009,-0.027925527427509478,-0.04576446751113801,0.0058541490994700185,-0.049287777938731146,-0.020388867954499013,-0.007885059826359689,0.139150105275348,-0.04857227928009292,0.06200653852021367,0.21190110856054242,0.06813260328745518,0.30055026063881013,0.12071494438375167,-0.07628176960183061,0.0209413435869598,-0.1471227661565919,-0.293590570854076,-0.20625936460266342,0.10736608525120771,0.49308116579010536,-0.1167095346218239,0.024456622570786894,0.10819890938735728,-0.0592284161872157,-0.06311877187217127,-0.13342948291267012,-0.04085491681878422,-0.06217909530383157,-0.028810550849495756,0.05203465355559584,0.037036746177881504,-0.021130231891221436,-0.17569738333587306,0.3620370519185738,-0.2643410846897918,-0.15314903844795122,-0.2831936057362685,-0.020927165328449508,-0.28944917211268156,0.5088485460070649,0.34107883443598236,-0.44100619271504554,0.16870929269921478,0.0020311832097680595,-0.24224206405095947,0.23813154059971542,-0.34081984751219785,-0.15649900507101,0.5153388611734178,-0.0084994762821725,-0.14941436626900556,-0.21166993736887768,-0.48290321673435566,0.03930175159112285,0.08241671725400622,-0.5655566581429786,-0.40436525131145085,0.795531076229554,-0.06844948780618104,-0.406118747354518,-0.46452897437215074,0.07975653038858642,-0.096438820945587,-0.18208787832478676,-0.18515526158364723,0.12476804167420276,0.6945818784342999,-0.2558111224054944,0.6383209894185553,0.3315833352357375
110.46624755859375,1.0288009643554688,-0.2544244490036782,-0.1375731181242263,-0.11841183144637579,-1.2965455303075677,-0.4510360314696564,-0.306020733807027,0.04861218467674468,-0.15824933507038058,0.0025592007592419525,0.09243167604080374,0.025932568272046742,-0.018867100792761365,-0.04447190639628448,-0.0746116916260806,0.12549304773746026,-0.10839344782193405,0.010642640354628682,0.043511365924890015,0.038328802961165184,-0.1278626309324333,-0.01987571918174209,0.04774909371490622,0.007225409034390889,-0.01456242866195482,-0.04229900773451475,-0.04959488952972144,-0.06665099017229632,-0.014898187834487545,-0.08361361126259576,-0.0022552106012801373,0.004024901307611982,-0.06630971751531417,-0.18238812823428935,-0.010310004584056252,0.08852563285071803,-0.0994060637440189,-0.1578690104701744,0.09386831783336412,-0.08790514591958852,0.06702101935392697,-0.014862427003032135,0.0034586137588328014,-0.015547541092677634,0.13943980863796404,0.2271166895277552,-0.42889688993184466,-0.11414697707851555,0.5833872899891923,-0.046260652969945096,0.12689310728587233,-0.05343577680985141,-0.22011666103885408,-0.19303093277470634,0.22536999338141406,0.0008251759820555222,0.069441334911907,0.00037638278034221595,-0.027487804624099263,0.02102480770667712,-0.0729657224006712,0.0784575237605639,0.010474820239433413,-0.18062153247926926,0.20269475469748333,-0.09266818302347267,-0.02749343355393371,-0.45010762003341354,0.38632853645551873,-0.16147988752717515,0.27685299298532773,0.1560304020790118,0.09944093061289278,-0.0735328153783068,-0.0004100644947054588,-0.06723693550241056,-0.11232506900687787,0.10212062188599998,-0.25523992354609704,-0.3423550453814236,0.3838406921459894,-0.002774619121261826,-0.0482121362566485,-0.2336066937140746,0.20468156263881818,0.1765775347258256,-0.28987664637051996,-0.05767521143492321,0.2580272445302998,0.014655583882421214,-0.329447273843361,-0.11085596030177863,0.7595714183662053,0.021136125214829257,-0.5243829902345732,-0.6378546662096687,0.5708318681403023,1.0405831119483158,-0.37908848397284933,-1.465473031874372,1.0198250655542331
111.49504852294922,1.0185012817382812,1.2926721334331928,-0.39760593112113324,0.047044318596891996,0.5390554249117564,-0.28412561921161456,0.8590722369887386,-0.06978655950332772,-0.055236478748169913,-0.05294278446081238,0.07843869989943184,-0.07493118528245495,0.02806671091268505,-0.04321053478951613,-0.051170398161645585,-0.0013442851035784173,-0.03914521486537004,0.030943941421377946,-0.014354759706671104,-0.040037744871637346,0.10288860069305743,-0.0002581826521427981,-0.056037881318454656,0.002751756400698862,0.0960526475319286,0.08107498985835487,0.061535556918043924,-0.28153924203615294,-0.14853589270048814,-0.029674399825890044,-0.1843840000587512,-0.3217273649711894,-0.039642998992520606,0.22199102799690196,0.09192909243133444,-0.06743596731385036,-0.11139906711044498,-0.007252388412161615,0.16239188229179152,0.0912820215155549,0.055322815215746654,0.01652954882180152,-0.11571740986446707,0.15654286907078285,-0.1768850776353808,-0.16498182016797058,0.007154689298549857,0.32393092752149505,0.040450445007575574,-0.3223688375146394,-0.19899524039557925,0.06284832919657654,-0.09697379491645972,0.06250522052959674,-0.16386307945609757,0.09282581098763355,0.06232153256336716,-0.05327961308127872,0.03160588525701843,0.05897583513373725,0.005040976949818759,-0.047279294877075814,0.15934911793043705,-0.12388974483186012,0.053336036704006884,0.09726119182378618,-0.7020424752574219,0.1929681811767033,0.40346209569229674,0.2016989529928715,0.035434062751468536,0.4323388174479923,-0.08164869306140943,-0.23932794507544164,0.38713903467943644,0.2746575363992804,0.13489144286627286,0.2067283134790279,-0.24350152828456345,-0.002090490252128995,-0.6024133013652972,-0.1433068943168386,-0.16933803759766963,0.08617547559708881,0.19111417737099967,-0.10101847041394343,0.03148382647442826,-0.15143249888736066,-0.14383871755526711,0.025349393391043307,-0.4472794925980413,0.3056626775127715,-0.3352078097203004,-0.7850147998693243,0.19398376437101342,-0.8820367690462685,-0.19780617236813502,0.35314540760407626,-0.26160985297670736,0.7407948199356796,-0.05607569515868249
