start,duration,0,1,2,3,4,5,6,7,8,9,10,11,12,13,14,15,16,17,18,19,20,21,22,23,24,25,26,27,28,29,30,31,32,33,34,35,36,37,38,39,40,41,42,43,44,45,46,47,48,49,50,51,52,53,54,55,56,57,58,59,60,61,62,63,64,65,66,67,68,69,70,71,72,73,74,75,76,77,78,79,80,81,82,83,84,85,86,87,88,89,90,91,92,93,94,95,96,97,98,99
76.7562026977539,1.0188980102539062,-0.060517505113478184,0.05388159942726707,0.1590150616983128,-0.08606684680376012,0.024411575320316476,-0.07613752066460286,-0.002422757999522171,-0.09351273668103478,0.23121765342350942,0.007542015923286294,-0.3086009640310895,0.07906925875962355,-0.03392980730507123,-0.3606724254940621,0.40050707377268435,1.0783436589149378,0.050243318679825524,0.15143629066072328,-0.296341248362761,-0.13626319659349956,0.312799655099972,0.38381533835415066,-0.08470746233271825,0.14314763936241823,0.5076591799982189,-0.7910557552083282,-0.4903394836889867,0.18978939834140027,-0.25891433609047204,0.26392432766030155,-0.40447144739998425,0.14563997683739868,-0.3014913792725721,-0.0029083952906878013,-0.052685365337862944,0.35052351698993023,0.21217046736426343,0.32669967373491726,0.023081328863491513,0.03593243576757501,0.11902808403662944,0.1621030356708524,0.926341759085711,0.487732132077647,-0.30410301187596145,-0.0869814685512659,0.01826633018632662,0.09437604613795011,0.2838138595518195,-0.14973640951525463,-0.0886334117106046,0.08434826647307811,-0.017960218830627095,-0.13923016147338635,-0.14307706691940664,0.0006577461855212627,0.0117906511250453,-0.10019517018259477,0.0059894372675309915,-0.10178913779470414,0.015371109243189084,0.057038267760907146,-0.0070979748275641335,0.02390674360863029,0.08646442300704424,0.030750117536304408,0.0374683191423288,0.009393569625650234,-0.028722478350498626,-0.03734065963682805,0.08748259840334166,0.0846604303951144,0.05827164805028348,-0.06283605117879855,0.02075165278096824,-0.020308077652515556,-0.01641310464838203,-0.028094355973403637,0.014007470185257578,0.0625134302473452,-0.051960064606653374,-0.05303926859572924,0.035605817568598964,0.013295809081530798,0.006260339806561892,0.033312374710458725,0.042148019615706675,-0.09759825514437193,0.012881794898889052,0.11899928486647918,-0.013310954076490241,-0.009446692423339073,-0.0653034127986486,0.01581219346169729,-0.027938481639454223,-0.0827913905257392,-0.11708201168856268,0.0051105683083344615,-0.004423672180679216,0.08341009515665343
77.77510070800781,0.9991989135742188,-0.06006247306159189,0.09849954899867605,-0.1639021869866045,-0.13014979121715323,-0.090220045176953,0.08808775106632749,0.09246058915491215,0.08412217756575646,0.022517800729187208,-0.02733028632720568,0.06942215115277502,0.2400080843523825,-0.053019552738136,-0.2854290555494823,-0.09232888246970491,0.13045950627514416,-0.23127794222974846,-0.12219520649922466,-0.11248509787007763,-0.12682810187393473,0.29839953766415916,0.23591864505439972,-0.3760902664125758,-0.5337198197635802,-0.5643338930512676,-0.26106576177270585,0.08364952745205687,-0.07285123109178632,-0.13000495847744414,-0.32404871576791977,0.036944372636248446,-0.28220545449397594,-0.1157167879856422,0.07611242942301996,-0.20591034817623666,-0.29533017536648903,0.8618096871872309,0.2242151466346044,-0.6029006488908363,0.10832222966861177,-0.6612758238400966,-0.26521397555272347,0.020265847735823038,0.21820858618779754,0.17209583893077218,-0.025099865756562506,0.028720255004823142,-0.50461543158173,-0.14869502638133492,-0.1198979995092799,0.16588682105551025,-0.03225289087969237,-0.09025720461541524,0.15885679033623945,0.011089905562025479,-0.07975418245749513,-0.03918677409145942,0.039377958814662994,0.091837687179944,0.07411594148687513,-0.024481463123439254,-0.024259263537797934,-0.06649079114640596,0.018247393949569708,-0.02047017859543651,-0.0256774934786854,-0.05982690887920958,0.0069167984402062985,0.014341129203423545,0.013099421673451543,-0.035712581089593534,0.06392610783899165,-0.15842798379665182,-0.07649496465648391,-0.03335777158620607,0.022855473094179676,-0.0964370038936736,-0.032579300029038784,0.017434424563223624,-0.06293926979607829,-0.0007326692418238336,0.08176663981896835,0.060752894464198216,-0.01507275745906215,0.0007355237584336233,-0.011647880790243592,-0.09179050449369625,0.06994148466910098,0.07565326545756096,-0.04087595442209119,-0.08110685754248469,0.0014417836218873856,-0.01198716264306915,-0.04562712428018083,-0.029649701033305897,0.02598273993920139,-0.02066455264773498,0.025017329102861856,-0.026798284525509957,-0.001403247115806014
78.77429962158203,0.9885025024414062,-0.0038996757106254318,0.04039721735351453,0.0008549392141559542,0.03068806398871277,0.037222118813173465,-0.019426286893695292,-0.016712599701661553,-0.04753412218728004,-0.021753250651240976,-0.0026116350857689555,-0.007419944284459912,-0.02297604649458772,-0.0935655451063395,-0.37687132134183726,-0.1536506904736253,-0.5346606641450095,-0.7772510392019342,-0.03966084930250091,-0.31762958106604045,-0.03961393998428003,-0.4632147306440996,-0.11583796001078328,-0.1867889344848355,0.013119587412371857,0.1860319686519979,0.01823229731279888,-0.04317207862472544,0.06286918209881012,-0.09326850144913935,-0.4263068889530031,0.34531205566472817,-0.1357931460610963,-0.008300921666726468,-0.39503951522403613,-0.17934192985590858,0.48329063629636865,0.05217999282268673,0.1328257751493122,0.12718641835403596,0.29724416575368157,-0.3034235887039757,0.22493868635939168,1.4163670649541795,-0.056641024582809146,0.5567125905150524,0.7173514775348969,0.6024177728959277,0.023610669079997412,0.4326356646898336,0.5148839423253074,0.18361033205990013,-0.0981314780708807,0.42852850307842894,0.24150231663420135,-0.013070844313148158,-0.04791744421231099,-0.11542465491792075,-0.00217789146351587,-0.03779931898477751,0.018077313658415133,-0.009545275664118774,0.031950448746218045,0.011667878896858296,0.020111222222894465,0.029559496112959573,0.02388095940221851,0.02850244105373731,0.015211004059849258,-0.07375663742504665,0.008962444031256159,-0.0007749694162320052,0.005010419610674966,0.012495385346779193,-0.02837731557543665,0.0116303831482031,0.059180394585944124,-0.011342442113602302,-0.0012366000529984754,0.03970356084792775,-0.0505436175270373,-0.08864549616111188,0.004531434496350292,-0.1010720710064797,-0.03263896562459752,0.060569365641893344,-0.010595388978701716,-0.0015334901955639,-0.03157984049010427,0.04754259794287393,0.06169612654445954,0.05688039957226938,-0.0017661596494667328,-0.059733423969187,-0.0032197894363268295,0.022424412311026914,-0.1063597840648488,-0.12136220097047663,0.030101977222452836,0.11966709142984674,-0.06888034540142443
79.76280212402344,1.108795166015625,-0.03955443109425539,0.052250680538126204,-0.11363643663691611,-0.2536084132191928,-0.007383496845056171,0.12216680879828067,-0.07155059732265487,-0.06613607258344151,0.02197140470481861,-0.12095288607879118,0.15936266285438228,-0.41156479715270394,-0.2252837108441986,-1.0102750903516031,-0.0482448659368072,0.1458370922350729,-0.09546387004305035,0.1341773025457107,0.2172636105141386,0.3689637948690578,-0.06140097655773474,0.023002110910482328,0.18327156431846583,-0.10975672406474732,-0.07065950445740782,-0.4642952374765306,-0.1115344187218174,-0.10957984195366542,-0.09972892959700559,-0.12419972757148486,-0.29492554546176053,0.17861543455708676,-0.39289200391653206,0.8557258629991883,-0.43110239402663725,0.13243369866683696,-0.26978118949815644,0.49603252347200744,0.04677175257564956,-0.2694418721313576,0.2999651904680735,0.8348194687358541,-0.47261951523742707,0.6284236811837665,0.23349833333513056,-0.22038420000874845,-0.06295896804099504,0.10310773298350275,-0.30119375178969177,-0.06235112918796788,0.2791080536509748,-0.001858003326674434,-0.030791119414090174,-0.03499608104602677,-0.10393526344078483,0.038088853101748046,-0.015213759911039564,0.03628826793668305,-0.05650413428739294,0.011087227144979641,-0.05453377677496041,-0.06151948695613768,-0.045714116457900564,-0.026097932465867637,-0.10634443881706962,-0.0052120622106086095,-0.03165579648463017,-0.09521854705897981,0.08455337307350871,0.022368350596188837,-0.029202706423509382,0.10115147068542087,-0.03816252409488166,0.0025919514640612706,0.0179589056271994,0.03593708171882519,-0.07678287211148713,-0.021326526584611854,-0.1243397243829889,-0.024544162025163276,0.06819408468973674,-0.010381827347917396,-0.0126095125553249,0.02055065418837582,-0.03128398909447482,0.08152396225912886,-0.008454462671997797,0.027136950785233604,0.01457653889444423,0.029994620105353923,-0.03097320642268758,-0.08876663451458036,-0.011755867853810527,-0.011657917429366014,-0.008391094838789014,-0.04481619868732893,-0.0459951459992832,-0.07764064982652216,0.10384502223890585,-0.0683438119953706
84.30819702148438,1.0282058715820312,0.02528114543567357,0.10006996854678901,0.04520728663044341,-0.04493481595200337,0.06011774175250066,-0.054203092496445504,0.048147110205760305,-0.0528003758973978,0.08688466170408785,-0.07928629188058403,-0.04702004122796032,-0.042584760806402576,-0.03347428423078011,-0.030752544892023122,0.10145471500059336,0.00263738322252483,0.1381566290375861,-0.13004448109308933,-0.10908523679792709,0.056968512575499036,0.12908302452815412,0.22815168679116934,-0.09313500279487394,-0.11273230223845415,-0.06276318458566163,0.063787007749594,0.42958796852364806,0.2805161164761435,-0.030679227472286033,-0.3015399844844969,-0.23730697716677246,0.08317755614658909,0.11453512062466614,0.6272418803631628,-0.33946825455535234,-0.11009648103930332,-0.020519561117937568,-0.04631750229789386,-0.5317391814623739,-0.20925391126869208,0.2996567867632693,0.5775783169622939,-0.2860130197604062,0.6822249569231655,-0.2183750024286842,0.08567397128252605,0.04241010737091027,-0.29655185174466303,-0.012740709527749413,0.04469842651878729,0.22931742971085206,-0.12552774440047984,-0.04675896137302363,0.27298333363359284,-0.06814679965607176,-0.015767451694007048,-0.015028512040320394,0.07932437366451234,-0.018067222131617405,-0.017683712454696313,-0.035454325662055995,0.034301955205733876,-0.019136715124246063,0.055019508830057816,0.02765909278891998,-0.013061226607622147,-0.07897536415399582,0.0332964418893598,-0.008043737811815837,0.08138000216306003,0.05474685401780523,0.018701647536984018,-0.06788129982740013,-0.09552806801927934,-0.07519170496779667,-0.010762164220728681,-0.0769433703263379,-0.009521235815835654,-0.10518081904854809,0.015291415005001946,0.0027540819825893,-0.09066146324242622,-0.027851492571125593,0.04190856537893736,0.0036435910662728096,-0.05769433927459424,0.02167062193549554,-0.024836566998395593,-0.024289749016083394,-0.019396058775511163,0.06173684402430518,-0.039852471665134226,0.05673465762630204,-0.08222965765665731,0.0054976146638313905,-0.029964616386930217,0.06013007446580279,0.06400729583882843,-0.05086696872484817,-0.15612235163341845
85.3364028930664,1.039398193359375,-0.15977384493674918,-0.06328115880536803,-0.028929600606768628,-0.0027099443897058983,0.0003290784822678602,-0.025027439712363132,-0.09409915163166244,0.1167802325390325,0.04603899672821156,0.048541962392657526,0.05760729943601269,-0.0546942659516951,-0.023593543353651603,0.061685528029807854,0.04287713081905023,0.21155115178333908,-0.19512387295288375,-0.26575218576308557,-0.5225385872391818,0.03510232223948116,-0.38713599167809526,0.10950594849336004,0.12529010910140267,-0.07296798441018194,0.030286221937345092,-0.3039247394182624,0.13911947895605511,0.03476064934070525,0.32156624204313045,0.0718169335345147,-0.14943173383905528,0.1583328179344416,-0.0661885601049158,0.2615363667291971,-0.4091561691951808,-0.2502450617674261,-0.47665872414887167,0.015503236018404101,0.08070914241989631,0.3578470778251224,0.2924986246413903,-0.04212695176723004,-0.3860979169052642,0.24020524919478992,0.24554822968086423,0.06359403799383687,0.24169438277973396,-0.20367920834796066,-0.12381192238026055,-0.01679764839555345,-0.18105287561336372,0.04596330276302511,-0.03350605175507573,0.01505656551098266,-0.187595571859026,-0.11459652982193394,0.2740364544638181,0.03993492862841506,-0.061014973931262435,-0.06828589182333179,-0.1125894277743672,-0.0047126254855756645,0.05048622497655288,-0.007073362536670529,0.05475677080839141,0.025779598585900364,0.10803704911941729,0.031904519327638554,-0.0234383344002027,0.06762432307527101,0.022619728783469795,-0.0490431552158811,0.05341669155837092,0.0041208451619772,0.07488820915068559,0.02906680621954587,-0.036096442824640036,0.06411225306642014,0.030426265984858876,0.06205048256704945,-0.03388476644730841,0.03840352264871536,0.054344715750549964,0.046135889624259685,-0.006928657422285191,0.018604543666597424,0.029775286245711574,0.014315201852826767,-0.04426393168288512,-0.037182008835439394,0.014431101615641227,-0.02207119003906762,-0.01314266239479316,0.05265897163116964,-0.015082761016610637,-0.00520134882677063,0.02895797888332293,0.031450105157511524,-0.08339893619057692,0.009310633203348045
86.37580108642578,1.009002685546875,-0.0057661827596533766,-0.0012981897707858084,0.07234677802200803,-0.06059233444461209,0.020313548632814246,-0.0090452896394251,0.017057381648306374,0.008973059959494656,0.02230026570447902,-0.1166026720548538,0.015007356062489121,0.16996945234252978,0.031430486281123916,-0.17067650436992562,0.43883259548319237,0.11687732114666205,-0.7018833296586806,0.12191150160208111,0.1772722899356663,0.035578122632490855,-0.4914515207083501,0.11931630071709043,0.08573786496894545,-0.1696080212345626,-0.2105170823807216,0.045894879197651006,-0.1563632352569767,-0.2272483703190044,-0.019143627975015398,-0.29033603140683073,-0.5353544489894244,0.0814003553286523,-0.4096421177006032,0.15923287869137964,-0.15608711158402755,0.1686474714456563,0.07592006123121917,-0.3714001212952758,0.02392635537290015,-0.19218529219273894,-0.35303356911220435,-0.09271044754271102,0.9163859447400028,-0.4959073495426915,-0.037709392369115725,0.6322229112249521,0.5060948407561273,-0.13248554613069827,0.2878309879948115,0.27782000589476363,-0.25289803810082134,-0.05310840203367945,-0.06901848342428586,-0.02302219636606108,-0.15328265044797826,0.008607195810982493,0.03666386214188261,-0.09528805025500278,0.017389360986388123,0.030790533716800184,-0.04378659733672193,-0.12211116055744894,-0.019629996509977085,0.015434288700883814,-0.024014685731554575,0.047771375433317206,-0.014721659357150668,-0.02754207621988445,-0.007047399679020509,-0.030061887100785716,-0.028774299498735306,0.0052170944716589136,0.023525871956653115,0.017371965557939732,0.05288471249284946,0.047260553596258276,0.00057266465227599,-0.06828847329421131,0.04134454657642084,-0.043615535230347925,0.016114713083580045,0.013721689554255588,0.03446735633232495,0.01009660092895669,-0.079430248234431,0.005429720507498019,0.01095389221261025,-0.021106607019406066,0.04260856784898235,0.04926932994893696,-0.031061532550365242,0.05833954129422621,0.03549521300750277,-0.03832070740267295,0.035459703604211246,-0.0014901215384830122,0.07332234852916909,-0.027457539798368753,0.005052445320997744,0.028412761122245306
87.38480377197266,0.918792724609375,0.01469379321540143,-0.02233197878461466,-0.05389086308187373,0.019611480253634343,0.030507281580504392,0.0035173269384469897,-0.16146592709811636,0.04949263025103712,-0.060147916431878154,-0.11041177886499871,0.09969683263225947,0.13110420870885792,-0.0004857559487775765,-0.029716492413250355,0.0734365403530273,0.22657237337248867,0.03109639562881436,0.35361486243938905,0.2110100045346522,0.0217349042383925,-0.04188137134173736,0.18657608891084043,0.2380163234927014,-0.30039008317720517,0.1132803742723248,-0.224941071439533,0.555947002810552,0.3138239928996188,0.15804475407461047,0.15891063810446965,0.31863378233339595,-0.2841361226163567,0.24416134043714846,0.30410540781235057,0.04720238276642323,0.6129681108540059,-0.20738456601046273,0.8917549043910106,0.7037548519440437,-0.392513736127225,-0.20436118124339772,-0.12130993915509224,0.17571651040147615,0.0895800500946843,-0.17354579261669267,-0.5495931800203847,-0.2558115861051221,-0.43471884123644294,-0.007470903027130549,-0.019430968404282302,0.019470649478407962,0.11636274619325566,-0.1403636701864662,-0.024303880440039935,0.04078583292720509,-0.04595575570859095,-0.007808436306953473,0.031005107874014566,0.0037673250580829085,-0.007942731838557315,0.05884854572081481,-0.05188106653435646,-0.05299591733462891,-0.09407602448476232,0.004460560987807336,0.001421508475535271,-0.0019026706281873133,0.06846989385190312,0.05334872724568891,0.11997368485176446,0.06913627490625875,0.0506325281403202,0.07685459802759988,-0.006166961156332036,-0.05924820927687693,0.025338595939031466,0.09382927937113061,0.07333500015841543,-0.025648104020302737,0.02790707884717466,0.03807793651219414,-0.04953768207036822,-0.004603306516731409,-0.006785584008855622,-0.059217235083458795,0.005995462881654638,-0.005295807184951599,-0.11739573724152924,-0.19265926660341298,-0.16491455121635595,0.3937661383825687,-0.013108600887844421,0.1766331852573659,0.30807720951786366,-0.15477154772109097,0.2956777549156,-0.09478417110331365,-0.14858172292829205,0.23333932156622167,0.08877368384550217
91.57990264892578,1.0685958862304688,-0.044830060004457675,-0.025918664906899244,-0.04110844539186844,0.038725967449575266,0.027698596687185717,0.07732723990170476,-0.06708388572790255,-0.058437861695650066,0.1018379653249013,-0.097834663741224,0.008948612848734758,-0.21900111017407894,0.07025388460537238,-0.030481427566473762,-0.2844218257755506,-1.0096792298421455,-0.5667070487464896,-0.04580866713387016,-0.36113194447300445,-0.4596132459932842,-0.38267071900430766,0.1285678352249062,0.44346800744850845,-0.10713765746991266,0.041330527374736144,-0.13040561104513382,0.0874069157239121,0.25521839898100174,-0.08325942228736387,-0.3993676399536891,-0.33223705350220345,0.09755354873562638,-0.09724385458089363,0.28064751088594636,-0.11230485505144366,0.023155232497394335,0.13745322093226534,0.3158192427538117,0.28171664953806536,-0.11760950136349631,-0.36706329306998203,-0.6561027710131407,0.27532433454014404,0.20059054887242833,-0.10631880778851713,0.5162271809782844,-0.6515383760612131,-0.7672725123573619,-0.23471178236310442,-0.022461492809860692,0.17293667985569738,-0.10857658882017623,-0.05543065429492187,-0.07872521431422755,-0.0010315477324651491,-0.01848029958186008,-0.0015098137097619658,0.022942324013307973,-0.07143589001677743,-0.045782971347439444,-0.048128870369303085,-0.02995966048393085,0.03889170524949217,-0.03472463442116261,-0.013778850848066019,-0.02913596014072655,0.050176644781363945,0.00841242811579107,0.003288912058364737,0.02961717838068261,-0.047157768966093506,-0.06872590650236693,0.03951072057044348,-0.08639141979968849,0.025843624442279355,0.11255350213061355,0.011975203770227,0.05594826440172103,0.06049507943155129,-0.003209527146834787,-0.0061036125080267695,-0.07432228500789467,0.05090799915120316,0.014775857065103617,-0.1123402747674285,0.0033804848923316244,0.045639733214555375,0.06783542549958269,0.027509205131259245,-0.019807395909935632,-0.0695154974851113,-0.09526473916936906,0.040025650328325696,-0.004501232345693912,0.07461938431670155,-0.03130303232626486,-0.08327949339174545,-0.08357391199599172,0.042354792723950825,-0.06731716923254964
92.64849853515625,1.0493011474609375,-0.0818386508601755,-0.06308490642644891,-0.0868504361741405,-0.039947373936654776,-0.07703978296629761,0.060324108341255706,-0.0046860872659107294,0.01423859991440593,0.047265321045013554,-0.033778864456971126,-0.11243613180660869,0.09327100172851945,0.2052283816620755,0.24533934006504168,-0.028060641156267843,-0.1643348448157662,0.704933997874229,-0.04161953612573168,-0.13037046303187583,0.05911174757470071,-0.22996036531812128,0.219370688003302,0.26704217911074835,0.3176640665677625,-0.11618489609223817,0.0838793674228963,-0.3618911246023794,-0.15700560919430176,-0.2885458937432443,-0.3989369033844475,-0.3171022475134831,-0.46524804969457706,-0.11261294682700819,-0.5804533239267712,0.31473801459345035,0.00614081317783384,-0.34893880569534086,0.09401745744927241,-0.20831242278763018,1.0514637957374118,0.5324215183839314,0.6743533623718114,-0.02767923212994905,-0.2549054678972923,0.419433095481365,0.20381555156582626,0.23302105078388755,0.19603938850018618,-0.06381296158211833,-0.07458171616213802,-0.038142787608698554,0.20291733566696393,0.199819477741181,0.21795999543066802,-0.13311182458438425,0.06551011781278064,-0.010810516161585113,-0.0638434209553377,-0.08554262011692094,-0.014061195902109951,0.0024004676112903862,0.014220879952996675,-0.05454382289325605,-0.045241046227636576,0.04146815855887745,-0.0076420976162558845,0.033234060915161914,0.0311957469486304,-0.0034481032316688864,-0.0030364386540314195,-0.047067476804278405,-0.054776713466457475,0.0623928715872114,0.08285739312395042,-0.029970007072564094,0.019565880480463153,0.024052617462690086,-0.019825734416444994,0.14899824515212307,0.04033697126430244,-0.07583726444981181,0.05373068250986071,-0.09073698831751104,-0.0916086247527234,-0.04968427154203256,-0.0007790599844898982,0.05558116263938153,0.08447854672309102,0.024983945087494512,0.023010065935123857,-0.005288790395859583,-0.03539204376084574,0.017965140837499408,-0.008082124234005728,-0.003318962675931072,-0.038986181295868526,-0.036715895773056964,0.0015719378582942406,-0.02586345408857489,-0.02760036492430789
93.69779968261719,1.0383987426757812,-0.02778341398286438,-0.03329439937503581,0.018611550502881897,-0.0018022594250875637,-0.04014783755313677,-0.14315061964099315,0.10651965264995339,-0.05372828965066963,-0.07600445779002958,0.07198664920635654,0.04987625837161308,-0.2014781960445248,-0.725164121313045,-0.5782174271460906,-0.9601180848208357,0.7383105397790021,0.2567233924864521,0.4380408898669286,-0.03402295137237907,-0.07602322085401383,0.0009182283995520478,-0.07467370678458703,0.36275270379981894,-0.26720394791035823,-0.07573059987800611,0.37728180982659826,-0.0639376469883984,-0.0007563725808702902,-0.11268981276976753,0.42925222423491016,0.12618617588669262,0.23606319223352573,-0.05620947725837668,-0.37956999979505607,-0.6808075493702106,0.16708666204642802,-0.06829437529228317,-0.15607722924135903,0.2707709187893971,-0.30025296379124367,0.0821881071818367,0.026257437450682215,-0.3556938560453328,0.012604059781125887,-0.25101156000421354,-0.05694160315033582,0.0032307925895298057,-0.17649608754929869,-0.5680481694795568,0.06616777956427451,-0.14019366698969182,0.2508537880414667,0.1670723964734655,0.062432778722053675,0.008187797430246935,0.03529597369866761,-0.02432088997060233,-0.008208343693686195,0.029286244367030066,-0.0011093929817970194,-0.06597126539608557,-0.010415275157902746,-0.06610310780850401,0.03946003268318702,0.010647271942279006,-0.01773156573982074,0.06656777431880245,-0.004470390155489452,0.05907673992367801,0.097746077118947,0.0674611756028588,-0.03125063942897677,-0.049473378814038696,0.025191047644768608,0.014439478985086301,-0.12175640307459479,0.001559238868590997,-0.007261654121089967,-0.11565828194432962,0.0653099218462678,-0.02488068100550037,-0.019614683829798238,-0.005744578815141367,-0.004836426648498787,-0.008346582686781014,0.011638159993523977,0.02703387498784035,-0.006272441481149629,4.034545129665717e-05,-0.012091274255004947,-0.027991182319848703,0.01256105761598083,-0.07477357450157565,0.05716496098183974,0.02761540893501311,-0.12411522947995363,0.11228979911588384,0.0496700298551198,-0.12790323857979527,0.021894512008673185
94.73619842529297,1.0093002319335938,0.003427454154856624,0.031009145145541803,0.10336734594838526,0.10952475015911688,-0.04205129657221783,0.09153983570827325,0.16167890019556203,-0.16979350808791416,-0.012867363434415576,-0.11133833636035119,0.03750562315399267,-0.17828477289635034,0.19384388302040179,0.027967370953942805,-0.18420381889289067,-0.03540514519839875,0.05826376501647765,0.0066191230024964,-0.047802468787476134,-0.05323988075513023,-0.06165119846873057,-0.10852628152318902,-0.09442058354961962,0.0041730364813593185,-0.10087043750837749,-0.13222235866891568,-0.13722477271655023,-0.23115159159787713,-0.2714365005029711,0.43245595248936664,0.14466964937603488,-0.20615376271974295,-0.4061616004232636,0.15013960253926148,0.17389273927518825,0.28758643793431105,0.17342495671891778,-0.03721641188380452,0.3308236065097168,0.5531203500935011,-0.16523065048825297,0.008302433306458856,0.08215566644057298,-0.604310360568841,0.10236059572761136,-0.5451255689562247,-0.22206942136450097,-0.4401069680338077,0.25075789837716955,-0.3232027564049687,0.07027238465726271,0.39937600917466276,-0.14553379457004026,0.23430813922829558,0.1063497274994051,-0.017791260198584586,0.12573798864565744,-0.03238959581386949,0.06690044325893503,-0.08693019222157196,0.07096954278019645,0.1027062967157097,0.0017230840117612722,0.006067617298047595,-0.05065108285543074,-0.02658778817088093,0.025699820708148684,0.048695440749934184,-0.047484643564989784,-0.029857774634662635,0.03763570121296618,-0.09431254280351432,0.0014393723390558333,0.023325701577705346,-0.07772122592646741,0.07869292526539726,-0.04495989788320809,-0.07114142709580261,-0.053766562330186576,-0.07189159675607418,0.007156102175104704,-0.04704708247734352,0.10279409108581769,-0.009500769346937828,0.01035285419302516,0.008087080849720873,0.04577343501183066,-0.00806493010720325,0.0023322142812396774,-0.01798942862963214,0.005734032412359723,0.004492527891779045,0.011805625050889728,0.04940765929092325,0.009672176977247756,-0.03739128364573277,0.00374692530333712,-0.052456626136701906,0.05918069959524794,0.13261101479962104
95.74549865722656,1.1987991333007812,0.11511306767210575,0.09106677743993195,0.00778941019723918,-0.027886053467610604,0.028832410928396786,0.01580049777385704,0.03264907124804879,0.01527176948109002,-0.07713770996363689,0.05122341581849948,-0.004497376845882292,-0.00723039077237346,0.11439998099358059,0.25007869618989953,-0.1003544182376727,-0.20251616760465063,0.10416978732631127,-0.0014776574674144776,0.01928134397131336,-0.3017664423825315,0.05438704208843573,0.26406205785157044,0.31358546881508703,-0.3036618763860185,0.15718732713028058,0.15251436494813686,-0.3972826435072598,-0.10970203675533352,-0.3908348794028189,0.22991086463207347,-0.1654269138765163,-0.35601726514846094,0.08191829550744312,-0.07645002633867767,-0.12547647344064516,-0.7087199201162824,0.09242931447217306,0.3089111791757348,0.20524625706978247,0.35030591061223054,0.4291206233692195,0.14860741811295025,0.09816790493483303,0.15207866844640577,0.18627323302222565,-0.06621805697867547,-0.287253498533531,-0.43577395351459147,-0.32093055148940236,-0.1575629358966578,-0.1118603205470648,0.10651311319702556,-0.008993947474532468,-0.012662818900585706,0.04916101615713158,-0.025610515680532225,0.055355775863078584,-0.054706556434758524,0.05397735482520435,0.02541932219593858,0.0840880194149904,-0.07962674728996966,-0.003469714213808724,-0.01922081972802253,-0.08458275594165685,-0.04091674783338198,-0.06744875144931475,0.010756715667436247,-0.010479709463739082,0.04678284676441109,-0.034253052557625424,0.033083194134928245,0.014379244486766021,-0.05985879623059005,0.001757525332562116,-0.009904889582186863,-0.06769815800561,-0.01894732787254685,0.02132122564523316,-0.026265461766731127,-0.006628188070374799,0.054088251883829756,-0.00803062907411082,0.03191017914909635,0.020519432484183676,0.019954410770762418,-0.07873766318666718,-0.07018496219107676,0.02751858374211898,0.045846444405072004,0.0326048247871531,-0.046915675410682575,0.04184401457018012,0.02224539430985454,0.0371908071440972,-0.03368378367899918,-0.08427523544183083,0.04515015836938692,0.02261978776641472,-0.08906423224110195
99.98069763183594,1.0689010620117188,0.07535044976755448,-0.08782803015441358,0.029580534541839974,-0.021304954452750147,-0.0007595129360776299,0.046804146175330075,0.010505887497747985,0.016422636663077,0.051645792243949586,-0.08765047488018408,-0.035974409686584115,-0.06980110204565197,0.05342073434522453,0.06421995270590708,0.3738665484855007,-0.19459130830731874,0.8480966477936195,0.3354148490930804,0.07593249745378601,-0.08188293150216322,-0.14036551223001714,0.18311731986016577,-0.13835144375368424,-0.2599980801176743,-0.13328842284446335,0.06372442836052442,0.10996116939979912,-0.0019681625972329947,-0.30373367684623437,-0.12580992090735965,-0.26697784826447224,-0.21316591471111332,-0.11772564158304837,0.16546161159349457,0.1505126726901437,-0.2074672386652002,0.18030801027920534,-0.13371932615811707,-0.305250729543727,0.18034636249618283,-0.05732603003124162,-0.2698926651616631,0.14386685381168315,-0.15929134530232486,-0.514840979159056,0.10180171682979228,0.22588058709210612,0.3759960919363399,0.021296755086081823,0.04775293324653611,0.12203365713868644,0.15743823308796187,-0.07783546699823997,-0.009873781775023984,-0.15027709523727506,-0.018569000638334394,-0.08003613246952435,0.045001383286171724,0.04061604563051639,0.0025794398752774033,-0.013028645928429894,0.025150759036663195,0.05489518876250119,-0.008489150122345995,0.07085649297062917,0.026113641223965183,0.0009389963958230096,-0.06854452771581407,-0.06556719090615788,0.04328263681798461,0.0029692982773222216,-0.00617812186660216,-0.033641197074485485,0.05795940594422772,-0.03576805395572303,-0.028669067597403845,0.032738065247802275,0.013109868587791378,0.007621989796629849,0.02625266207845516,-0.06508598312590427,-0.011291605822011285,0.0232965316118152,-0.02427787809498212,-0.04511096198321139,-0.08441397210897511,-0.013261689390320519,-0.05603623488005307,-0.008334937210544522,0.016684596768025528,0.010211519169556843,-0.042603667831852106,-0.13625092444448575,0.006518278416421856,0.061523786174089344,-0.031657877345894196,0.009348443141718146,-0.010656328273649351,-0.03385007634707487,0.12469477820680583
101.04959869384766,1.0485000610351562,-0.0195103980948134,-0.055217551220015856,0.1039717142857351,-0.05280196275821093,-0.0049132404125876205,-0.0013036135257764453,0.030416348018398286,0.04671077757641291,0.039036725356733824,-0.07873228809613941,-0.12661539190270785,-0.016863344202782862,0.009630357777106035,-0.16066615047716645,-0.1375612918588155,-0.0968357797917971,-0.22527093178835125,0.062364735843584956,0.16504555412634841,0.012874172485360325,-0.03516880898291576,-0.5817753429669635,-0.34926066967528296,0.2976168217680908,-0.11041245547409462,0.041837384631197565,0.03476149093990245,-0.2515234410302726,0.08670854291352148,-0.11136859088057731,-0.13160303299611176,0.20224312254193644,0.2924962223624099,-0.5548417825242036,-0.36095016028855964,0.029420129946523547,-0.9149687828356778,-0.16833973644033148,0.6887698269871672,-0.11609047839499471,-0.18032040649204945,0.6204393285959682,0.07409513274907215,0.2814704325023572,0.040068600598322984,0.002524380956165922,-0.05645672354237575,-0.2622487621823252,-0.09393470863342325,0.08724640313859541,-0.4862021785497917,-0.07808679063308588,0.027239936356719792,0.0005577333057647494,-0.010467247437527463,0.05951397121718324,0.04531254971295936,0.04620473787692617,-0.004187672657305266,-0.0014808843653101446,-0.025719680404264193,0.0671400601607273,0.0007068639506939128,-0.013260362414292473,-0.08984322536881655,0.08991234916331295,0.012526869452253432,-0.00040009769150207986,-0.02111009982853978,-0.12165660236975154,-0.05184869669475068,-0.036251701961479706,0.05218408493345004,-0.008301728854998233,-0.028421884375562215,0.015305177161761543,-0.05417294391379424,-0.03075100255198695,0.07250894374269519,-0.018607634862189994,-0.04731408076702844,-0.06370197574486827,-0.07700621152661369,-0.002940404477519829,0.05202353089481368,0.024715948532280173,-0.0149536500064004,-0.016771971401166243,-0.006310947386743876,0.0840314383341939,-0.018637982299454167,0.06974315902252574,-0.06336454013766776,0.0017802722988975157,0.012326442324109553,0.015807464618266313,-0.0034696845925630687,-0.04592342230572287,0.07046669983882763,-0.027471102811643198
102.09809875488281,1.069000244140625,0.10989372469370626,-0.01272685752937542,0.054769366716001924,0.04118338951280921,-0.04639003242425181,0.03671853822352797,0.004262851439359679,-0.06808426005997144,-0.08279005116463385,0.021561772168476892,0.006546888624016155,-0.1424447600754717,0.08497111291049476,-0.11325425773742907,-0.4207554275979931,0.09214167326989503,0.15871008156728314,0.18016703832309644,0.024220061206141938,-0.41740582485791705,-0.10746564814356427,-0.0008155436395025917,0.10809914508885884,0.34192409374797605,-0.05661502182119558,0.24173645287853746,-0.016017359291017517,-0.41063813307585095,-0.38291670280112716,-0.1485269609326384,-0.6616564497345439,0.20367381854525723,-0.039311122157447906,-0.5777515251880095,0.020829628185310735,0.34611217127284977,0.5039995666514567,0.5477426247531275,0.06698743433924645,-0.3878374538760257,0.27084086362951404,0.955540429168458,-0.05207456895641962,-0.15240170153234966,0.3336929642503433,0.28739152900912585,0.348513561533942,-0.11317289159822366,-0.1255659550238142,0.345018223689639,0.11495958380249661,-0.07373544767262281,0.03082235642156454,0.06116692361775563,0.017729600225337948,-0.008815287836268393,0.049915767759922305,-0.004397848441283015,0.102252036417359,0.029972199295568595,-0.034512859093955066,0.020770662470266987,-0.05754863548379618,0.08660277137527773,-0.08094393493398952,-0.01347052817584881,0.07567488378498248,0.05940099050730459,0.02411308344805156,-0.02391549924865366,0.012342756809504585,0.05111710172855785,-0.12224419796550322,0.11393201324472017,-0.02865835876846427,0.048347402142305526,-0.059304315484371345,-0.0720012985347571,-0.02245671477022378,0.0028781578144606405,0.05017566538081129,-0.02044704185183368,-0.11549410123090181,-0.12829134545904278,0.016267136131835957,0.004098182956769559,0.014276282152928418,0.02886662001189467,-0.07828810027650199,0.011832870485186341,0.06771060837031168,0.001152389756624528,-0.07570933261091846,0.004753418344482556,0.019663279545114026,0.00730148359052591,0.007743832572726008,0.023611212562931444,0.050346529691965625,-0.04328900958600268
103.16709899902344,1.0687026977539062,-0.04008734301950314,-0.027714013938395315,0.02686674089335042,-0.005473475360046768,-0.005361466512734962,-0.047256079228307844,-0.0678799435367483,-0.053971674681163484,0.004213078098537427,0.005471622881858429,0.06242085343217274,0.09999442018755922,0.10461684325650025,-0.8172631432173708,-0.23154017355251957,0.6467395323602363,-0.2272829907080517,-0.18705952912494114,-0.005680236087369381,0.4062481475150849,0.20475616337274793,0.1885434702760561,-0.08039897378098902,-0.06489577848187547,0.025254628860926876,-0.197858722300635,0.0784058705293215,-0.0887711919582031,-0.2380124253022538,-0.23274217974562572,-0.2012002932957292,0.3409903197475458,0.21048678459971418,0.5043833907183084,0.2010114618184753,-0.17009455317171907,-0.5565134219108618,0.6524868080023134,0.12479573203414697,0.28626964507287206,0.00820790203302936,-0.5276216468740237,0.3499341031808988,0.4199086615465614,0.10018522551494785,0.547481592372459,-0.28377462281761673,-0.07162194563804625,0.19298148170139198,-0.09555801861954502,0.12343542474440909,-0.10510460647174327,-0.15838898914709573,-0.02376754019035169,-0.12716909206915905,0.017104551480975082,0.0133512110992628,-0.039520227803769487,-0.07448713467918906,-0.003957962541199046,-0.01783431680525907,0.03664340648856238,-0.01901894630370287,0.00011091534355006649,0.005800858234534606,-0.0448883336666035,-0.07500909376000849,0.011757864374948631,-0.14392697726835998,-0.026140244013630437,0.04897776658797794,0.08539914529353897,-0.05106028779968588,0.04067940648240742,-0.034618976794964444,0.07033132077520339,0.022459184725628054,-0.03924563763972801,0.020120575990553426,0.06761142357203365,0.009274456987761361,0.023663039472636434,0.00894238192202727,0.001501968687384012,-0.020156112114313306,0.008629373980656116,-0.040035890619050746,0.05790209415231433,-0.0094074249210063,0.019477376709719694,0.03290424339612601,-0.0016296164352739007,0.04150913003987836,-0.033707204438106465,0.0024804093525462897,-0.017132719795177102,0.03928183086276426,0.2564446342142157,0.12039545946437415,-0.1017496356226808
104.23580169677734,2.2480010986328125,0.0505780938326304,0.02308372582915523,0.19072772601016516,-0.005532513469318838,0.030329753503901866,0.06330173131665491,-0.10582183444975529,0.022142595829742186,0.033078821610498216,-0.024412714089130205,-0.010750985349868831,0.1984508208062854,-0.04357089340596684,-0.21193907694718941,0.22169858663123632,-0.14743086741466058,0.09889403776473338,0.043159475146531345,-0.16790389149382245,-0.28935261588221495,0.14378546441902587,0.13878542546228312,0.03279372076569465,0.10879039564537575,0.13440856693352707,0.3210653865762857,-0.028047968012016103,0.4011121869256372,-0.018459913047863097,0.33080515601739363,-0.27486396656323026,-0.12985380217884673,-0.28869995173789914,0.12849224199116074,0.28820554349665095,0.6086527797642274,0.22044162552435276,-0.33116657102204844,-0.24156760310382983,-0.13577687044440237,0.20122951671651193,0.41446609485877617,0.031921196364665005,-0.02568225962336692,-0.3446612541087304,-0.08933411364857746,0.2889364354667481,0.15102357953985218,0.1092788932451308,0.19556327281585204,0.0980388103401461,-0.22767384851858036,-0.006132522040416077,-0.034612014447570075,0.016371419056127382,0.005073752617256615,-0.008095622700290756,-0.0022802764715352374,0.09443582829779179,0.033033830804522026,-0.08814195879813497,-0.058625338787846905,-0.0011971615011081224,0.004741355366776001,-0.0475968916431918,0.0034446124246752504,-0.02401357232521867,-0.0724238142266443,-0.10534346614303416,0.03371329625481277,0.005854351880041442,0.09497717565169381,-0.08077461648284409,-0.017851760757541805,-0.06895362995504298,0.0026237529281795185,0.04213829088068145,0.007663639660027104,-0.07307195682831927,-0.028934765010377717,0.08305847826104182,0.04884598125681219,0.014105750890871079,-0.021828471416893702,0.033740042965927045,0.05474969144944133,-0.01208614460705238,-0.0002329934686612408,0.033191713483223625,0.017626653209486944,0.05942616921373048,0.05581654706000297,-0.0846464306309595,-0.050423910275982003,0.05658770454763128,-0.03710969691166806,-0.16433582107786265,-0.010077241024589477,0.05830408151235128,-0.056915050327209143
108.62129974365234,1.05889892578125,0.05537803519161172,0.013377826971167194,0.011678688666318639,0.03844272266573022,0.060969370637058054,-0.007443866620710525,-0.08991002668188258,-0.13879471991063613,0.15052726472538042,-0.11727748588235858,-0.032703912399386754,0.09793371723194101,-0.2701029312806782,0.027327987324014164,0.9097242204902752,-0.06668899226754245,0.32561464439320004,-0.17427565565976377,-0.2137056963751423,-0.1552822427369823,-0.3730651860157492,-0.07385450803518892,0.2830647050586353,-0.0016839101211135476,-0.10009541760906115,0.24324797795578706,0.10945319574185275,-0.05828737439214299,0.24459815544623129,0.1918907662250723,-0.20694588617747786,-0.11338490070761517,-0.23634173814380768,-0.04928977083306772,0.19014448128508044,-0.030468626565336828,-0.4738972447193602,-0.030167203792845942,0.001083162327202833,-0.46461473717859075,-0.19107007376042395,0.14408768312559764,0.6500562232436156,0.6381169337960018,-0.47047471146977415,-0.6887651595722584,0.6480875904178758,-0.6674721825100308,-0.3740646372638576,0.3890952931910356,-0.24133398409759776,-0.006315922739027813,-0.14426577827780185,-0.21032439621449284,0.01014213816322182,-0.02114203494650882,-0.021715467087012122,-0.04336675454290644,0.029142251937650923,-0.04757695631184922,-0.1307656638465424,-0.09222439318151936,0.039758618329158925,-0.017789617196452057,0.08385447477860347,-0.001290203181126784,-0.03412817629227283,-0.01293993275325965,0.006465346160270009,-0.04826889306146594,-0.04901147589986203,-0.00023372253831808413,-0.030303020148818298,-0.09176013499393579,0.10513927997764198,0.09237457864308764,-0.01680067919144744,0.052752555729097775,0.08196997253875211,0.06501382384136054,0.006716856494025348,-0.060800985658466714,0.04461882750012583,-0.06012829445546252,0.028489463363924796,0.10103514317459915,-0.045096695820058263,0.024043570721771188,-0.08667907475298495,0.015565476872713023,0.001923870108912637,-0.016448318929642075,0.02620632069374125,0.04779350522656191,0.045034950998750045,0.0018781371481715256,-0.013815063314862382,0.043712128164302935,-0.03853826877147397,-0.08182584581747453
109.6801986694336,1.0383987426757812,0.07057054215218697,-0.006503347403630875,0.004407688446869858,0.038568750810485546,0.0215198149571226,0.05682884430120014,0.035809554635958585,0.04014074584981579,0.032677831949620664,-0.03352591971181829,-0.16760338842246209,-0.061930481525880966,-0.12053339584730581,-0.04966186385548421,-0.02753803077503672,-0.0758109286611196,-0.16845924549168403,0.03947174723143644,-0.27093290813144166,-0.11825408648981595,-0.22892524889249713,0.025048653544437444,-0.15946348892992837,-0.48298416105422926,-0.3520684600716283,0.1894538697651682,-0.07986601699097014,0.02527653292503923,-0.06719886378655401,0.1345326284139523,-0.05951096075550068,-0.2939657059232724,0.08120527278060509,0.2667334321417907,0.1507897578666656,-0.24588181629487543,-0.01001224070875114,-0.0026481480406187474,-0.07866845508650414,0.031263067006945,-0.12475190836552717,0.23013247855725477,0.07677204570551285,0.1509163562518443,0.44207213098070464,-0.38523188214929255,-0.47421222624156173,0.3533776666094808,-0.12528951852504866,-0.2542863989656343,-0.030399837727358284,-0.010382817044073615,-0.22119686888884596,0.019734414403289106,-0.038274537881821225,-0.092425540223536,0.06504564520760248,-0.05392860581035862,-0.03500982854318988,0.006653612258931504,-0.03832143333821013,-0.07942383548748652,-0.04166303156114455,-0.028750826997378187,-0.02258101807961256,-0.023201066551123806,0.05493943844054237,0.07276311287756772,-0.10461889457700146,-0.07298093759924208,0.05484979511855596,-0.02872268426647206,0.07040560010169981,0.04632333066531987,-0.03830968305467153,0.03544838893305143,0.04304468153186576,-0.08382289284986383,0.026907484707050996,0.08226366690920928,-0.017804075683811014,-0.049217125252561146,-0.013746976511919641,0.00767550940196027,0.0307948908948096,0.014676689794321435,-0.02698241466347706,0.023565139131555238,0.06979539038305727,-0.09364927379105165,0.02428449924271174,0.012626181174533312,-0.020151131542575917,0.10367506379798262,-0.06345823173119075,0.0074285200346325235,0.11134491115429519,-0.04327635984057538,0.015346854716885155,0.07599064527877689
110.71859741210938,0.9993057250976562,0.07532363655770266,0.03593691702921953,-0.006992379827682218,-0.03453117432781036,-0.03152054071888164,-0.05394650075387262,-0.008768665130308453,0.11079607352562486,0.020643893733371284,0.03090670892457986,-0.05221721328566344,0.020477312258700364,0.13573260330306636,0.12130890932670937,0.2255607732275693,-0.17061902103850016,-0.675659290325194,-0.5272273120830707,0.16368133273674845,-0.10056894163524507,0.051695304708398775,-0.034896321200931626,-0.0341149375989625,-0.24863768761581986,-0.5727691114972864,0.17234834695968926,-0.15554055352336837,0.08805224089888318,0.036703766356047884,0.027109548914307106,-0.3741715667809932,0.16698409107030282,0.42209213227061726,0.16710782355996903,-0.31048190392430175,-0.024350026960250234,0.3118842399882417,0.3796300264232848,-0.5123236214129884,0.293088893624918,0.31884629291534533,-0.27686732826732025,0.924166338763573,0.3314461009488137,-0.19967033218263602,0.6566455934533086,-0.15466770774506536,0.21243514033973945,0.16685252901372516,-0.05008797455197937,0.027598446225783335,0.22687058737091684,-0.23946397132746516,0.05290145358636163,0.08141287283600118,0.242379014960876,-0.18029960738730927,-0.029079803913250966,-0.06815968701994096,0.030589734006788428,-0.04016309534042635,-0.06914141998887086,-0.018648698092876226,-0.013779445583464667,-0.06526830029204768,0.024520869295572324,-0.04663048571215249,0.027629570503282592,-0.008319573389035717,0.02493458030714444,0.09963500141472312,-0.007874242719270617,-0.017773685683145586,-0.007508131800173399,-0.13336734671809328,-0.13303247074950508,-0.02584797169156611,0.056541622947142614,-0.06656227220372077,0.1567143408319018,-0.01506443452591054,0.05390191377190505,0.03341052801816343,-0.010756796078739249,-0.058347231435052244,-0.007851610061826109,-0.03368071291122229,0.03218905761949725,0.019270180735982332,-0.04197217003590424,0.021674995781678252,-0.05237842855277327,-0.003522346438461154,0.006406970286960085,-0.03586634198062304,-0.040196338470329177,0.06885515140321045,0.0016216605264676373,0.10971283182589371,0.17839741844884233
111.71790313720703,0.9789962768554688,0.15519333287777792,0.03685332838531431,0.07895033763713116,-0.07896316141182262,0.006185185238560532,0.050860737197647304,-0.014275096763349685,-0.07254705356315005,0.036982338616369174,0.026289103166654417,-0.1304509269057572,-0.05874307480001566,0.02963793942449526,0.023678164081965332,0.07001985454805315,0.09142046571334818,0.07704359562973494,0.2461954746121405,-0.29750160723425817,0.42125164691493944,0.23739252271624037,-0.3218659088831585,0.25373695745101,-0.1271349225765165,0.19316425443929075,0.05428715289482091,-0.319985032293594,0.0060185353156337745,-0.3398296483167327,-0.16170174678936514,-0.2764243298690237,0.00801846289338308,-0.0830754709214676,0.688705414905903,-0.06555195237267797,0.35830570633811804,0.40410758372730404,-0.4453661978604121,-0.2193899062659947,-0.06284558580897757,0.5991051925330504,0.37268921606889815,0.09124448644017644,-0.017531979504655335,0.363532540388413,0.04439393141381505,-0.06755062431516404,0.08045443189209457,0.2611252692504417,0.07989873243162414,0.5156487865278705,0.059521071562451795,0.10803848450597804,-0.06841237304430561,0.051481709699815414,0.04270425672552137,-0.09119547749600318,-0.04904008830513028,-0.0651964364074253,-0.0015042624600972408,0.0700592581908727,-0.08921392569540908,-0.027172108175221144,-0.050412729811614654,-0.10945884681412468,0.02051198109639185,-0.025218014127440905,-0.0421216109566982,-0.043124871379853935,-0.05071240359180287,0.0665351803853678,0.0016097064400108687,0.0018312389642833088,0.002155216904093083,-0.01928545357916702,0.07481313078751489,0.009889220523044041,0.03755242581497538,0.08548906677992131,0.020316684120990552,0.0036845355389180717,0.04923491003987748,-0.02705304015942802,-0.03015285868439829,0.006421913360780853,0.06613219496647077,-0.010045643530793187,-0.019722088618323204,-0.03290377043811776,0.06515329216402194,-0.07004922011686684,0.010101513853316936,0.004707029809109699,-0.0342285711786835,0.0037662191264549606,-0.01661944004926328,0.022915579241454397,-5.4536604821658896e-05,0.04063790708155725,0.13112341886027834
115.99299621582031,1.049102783203125,0.047578323569880655,0.07735465413720102,0.07580741851507891,-0.08877697047440089,-0.0324368768061763,-0.09063454071130736,-0.08598315156246217,0.044487822944278665,-0.04875820895430775,0.10457246105783499,0.0019514529146656698,-0.08386139021553336,0.019929191992036212,0.001949642902927627,-0.11880801773708276,0.12462210884078208,0.14949219382191484,0.4199475678226094,-0.07662395308657291,0.25398034727606306,-0.09454462874160031,0.15755591007232106,0.31311822533116584,-0.1154242252755855,-0.08778277429038102,0.08434495251086897,-0.17668915028297938,0.12189471291835387,-0.4859675732347659,0.11848691579520168,-0.28982116563550064,-0.5421155132878175,0.15195739201870515,-0.13031878348112,-0.02227367907717992,0.2692890977588628,-0.5062991342072594,-0.43665785353004966,0.37399064322182674,0.8980136227479685,-0.09577264545962103,-0.11616081388981425,-0.11028888826466554,0.07167484485774976,-0.4943697476166763,0.1298329205826332,-0.43701374322302877,0.07417386483217565,-0.16392773542749134,-0.1780546608061112,-0.03722627735373187,0.19074757552560687,-0.18880271784491554,0.10227996655702551,-0.011238618161481051,0.003725144132770586,0.009995492262468568,-0.1144752476663104,-0.023850204113871704,1.0817796278883747e-05,-0.01928644259810937,-0.024444082047714775,-0.021866459345924114,-0.06078281355901222,-0.0038263865858390207,0.014460512062182412,0.04484863680709267,0.14249242565714856,0.010514285071663979,0.036360682510106185,0.033050116871898155,-0.0720445724531147,-0.014148730765647016,0.03838896030271586,-0.04512487491291025,-0.022800240892900486,-0.06189268646277896,-0.00025632304682472826,-0.0062433376332462365,0.02716817129264056,0.04820180011308306,-0.0532875969484086,0.00977762987783913,-0.0646404630423358,0.0703863302998654,-0.03270661042848938,0.056453377162491575,0.08915028248051604,-0.08171259429059664,-0.02322670958080232,0.014836950050191363,0.026986795915298564,0.006328205775991011,0.030426776470364028,-0.023659369796607963,-0.04892626383442289,0.011434403657501882,0.08719317003136415,-0.06030872409427467,0.09500981717680534
117.04209899902344,1.0189971923828125,0.09265574723604098,-0.059212908059551546,0.04289640309531478,0.0030657613561321864,0.08987093029945792,0.016181574259984288,0.03516309224297884,-0.03781997272643659,0.025067787158825933,0.038830153990054475,-0.02976773834908098,-0.031546332073285624,-0.00047064366610497996,-0.0018062751024034403,-0.08988000997058694,-0.1001351906968653,0.13340787773869575,-0.0014864705349183034,0.15340348331489034,-0.04849275130958856,-0.24668902199028847,0.15600800300539772,0.1205993687714578,0.1346036568514719,0.17999175355500371,0.45752138674591847,0.21052049499246797,0.12491054711100125,-0.05426034529651794,-0.06678397648184577,0.21321725821581156,-0.18313008908199804,-0.7914061011528336,0.47594322153338875,0.3620062292691253,-0.3684279778958721,-0.16120175248515956,-0.25613270524905685,-0.15324787357524533,0.9768594189018711,0.1800241803458952,-0.8186181200394702,-0.6512245815601018,0.10049634557231601,-0.3554705697883693,0.0636576742543163,-0.11788953262554802,-0.6934710931841601,0.3265297586479659,0.11336664698062071,-0.056874694118015524,-0.051430243854667136,-0.07073808058346841,-0.02215559150631228,0.027316056268602826,-0.022184239054840516,0.07371391633782132,-0.03896799458484503,-0.10428886413716801,-0.0625448562672286,0.09124223030944233,0.01266010023858419,0.04341586538111028,0.06273248149011423,-0.028182377731995542,-0.07070059700224732,0.028691848951146327,-0.08591099483633528,0.031368175579801816,-0.03237404440286224,-0.03906635405339788,-0.04181406182550017,0.09870663102159756,0.1148465131269208,0.023975424488765905,0.006236170530241761,-0.016058584148892517,0.03381603723729379,0.02072710985947662,0.025936965055264192,0.029552800514803135,-0.00794430318256531,-0.04355152579914813,7.193801478393952e-05,0.012418031167835136,0.05994850875947142,0.03562221446619074,0.05720085612774879,0.012926550454308919,-0.06616156800878983,0.006000390929472202,-0.03436929416755707,0.019121143529344447,-0.02900539839052387,-0.003386034549571794,-0.011794759407423042,0.06261184106841725,-0.08666508053304113,0.0037768995241112355,0.04071873693316207
118.06109619140625,1.0183029174804688,-0.10434929812021222,-0.10711838852546746,-0.027945297782096323,0.013320960762517315,-0.07293582054832723,-0.0012646919322517733,0.15117150380340036,0.009790948584421418,-0.005650015868410159,0.03937473964037779,0.062287923174550966,-0.08082877413555169,0.07812919180092613,0.2675454400956581,-0.009952894464574384,0.18233266514943103,-0.20863092281411652,-0.06113042090368086,0.19542214417430598,0.007167772733414525,0.6097112496033235,0.07246971117724071,0.1988772815544376,0.206781687790002,-0.4416323745519239,0.1243034680203784,-0.1787887315374888,0.2678794009019336,-0.1773336195823754,-0.020076519117283143,-0.6263168895637138,-0.5558079220766193,-0.0835989894127558,0.7308196753379643,-0.10543449598253773,-0.4091074742030626,0.5244140901571193,-1.0502008529839628,0.5609368867824992,-0.11301464695538323,-0.47402025018810073,0.3707623232794435,-0.4675970980747945,-0.27721934950759747,-0.04212096037923382,-0.23131860682817548,-0.1668383190480865,0.33554499586368086,0.23058132714153168,0.18512325018877765,0.010538784922665426,-0.2507072898793937,-0.15305483606219109,0.25348982464020886,-0.08579765432462992,0.011147093674569786,-0.0005029392777265995,0.014195123228002766,-0.007826915146633178,0.06342736045885838,-0.001204118077011475,0.005043643753028931,-0.027609497768305485,0.014530167060842055,-0.05316705145600719,-0.02842864137747768,-0.004399221459786796,-0.018224654152045258,-0.018015914451041053,0.012621551090650093,-0.0021773246756953968,0.035623791059888596,0.03573398061324886,-0.023329305837062678,0.03783882475294546,0.01350116807111824,0.0006154854099584073,-0.07685089535931253,-0.026753475601205307,-0.004357140393580158,0.08039531717894009,0.09643669050903,-0.02173061934465289,0.021224748407682213,0.07219960461102341,0.014756213744921818,-0.029627534755742056,-0.035709452994544,0.01876809372588721,0.0136589601966606,0.0058445913983664055,0.07524759441594238,0.002328649928110299,-0.004590793291638132,-0.030720024327771926,-0.1330691532307172,-0.002857125431443849,-0.007418852245842104,-0.13473183182258533,0.03332123675150238
119.07939910888672,0.97900390625,0.028550513679416335,0.08166640364148889,-0.04769720230239747,0.018200497443423176,-0.07288729215151399,0.07738728609507138,0.08122386504637955,0.02396285853618884,-0.06714428944070214,0.0015446615836544192,-0.014862920367610397,0.01628305457978932,-0.0412549955810686,-0.08852329561534997,0.07725108953475741,-0.459672369312097,0.17219376193025526,0.0010396739101556501,0.05537059444251487,0.21565967235189254,-0.07920348411067599,0.06008622444872314,0.13314691313048474,0.02580253207448798,-0.49060082068499855,-0.4875437387505124,0.1689297251063563,0.13982387413040032,0.26096889156575626,-0.0011334128160092327,0.3667861024011136,0.33401300139715484,-0.2869286978865751,-0.366247604504646,-0.291915951346804,-0.180570878797232,0.7176105576073671,-0.12066404684587331,0.15690163669961252,-0.2874534754174375,0.14351307123849374,0.5086119088927632,0.1355770411440096,0.4395851382752575,0.2437063772274483,0.22195014222720275,-0.02439879470167193,0.10478063517991525,0.1276358169089781,-0.0055664749444651945,0.014757839297646957,-0.14028581307637233,-0.03585780543204161,-0.3237894477612385,-0.024974683571242294,-0.011310523564253426,-0.040842799120677446,0.07137143955722694,0.05972861662388462,0.020268717738873773,0.00867597660537571,0.09890339367182865,-0.059668320843431176,-0.004877330270188697,-0.05287450281902526,-0.06244483492327446,-0.05997350689254265,-0.015055080255096775,0.03722975050729036,0.07072596465928666,0.012428220267683561,-0.0625741637028092,0.008612431962745557,-0.032041152345084395,0.054689758350058945,0.07563917250987102,0.0036393456053551636,-0.03752977651895725,-0.09913516773631009,0.04695312065822935,0.009774088482023772,-0.07098908587618927,0.026110549390538355,-0.015735414144061013,-0.01845114102750242,0.03016145944141218,0.02638519800718271,-0.07403649241536064,-0.03189606891576934,-0.0359579119651097,-0.0018976797854966393,-0.06616130952297869,-0.03678780663889954,-0.045240217745186065,0.002050477111253465,0.09098349934057685,0.04544569856497211,0.0046419059208272495,-0.03847982265396766,0.028074063158210958
123.30509948730469,1.048797607421875,0.1457408841922037,0.00952493403476827,-0.02032627729960354,-0.02091946647372906,0.01767225402402286,-0.030623292592806453,-0.05831160888794365,0.024417544535920085,0.06500714299736873,-0.11893148326020336,-0.027198213194702992,0.01940504984503942,0.06577755331756548,-0.03717133038797554,-0.06654251534818126,0.011160652669095508,0.021555500752500175,0.08906734053408322,0.035449578659036744,-0.021624303004668194,-0.04378511057199631,0.17262214501651255,0.04310259237474503,0.2801381868456719,0.04025664133913238,-0.1836364064864775,-0.17458753000723956,0.33791770422481854,-0.325255175656454,-0.33657250118988774,-0.40258074232042573,-0.04479986494311586,0.040578678720858366,-0.25985607018958773,0.6274351068630695,0.3875406045407996,0.27548134087679654,-0.44724017214012557,-0.07502871407031991,-0.25207115728175805,-0.17852404003611674,0.30242291058122883,0.14963973885405496,-0.15743189196626836,0.4255343413091581,-0.04830701262082751,0.1729006612618882,0.305890303639247,-0.009798146270828034,0.14332221690925212,0.13811370079511465,0.15391701578050418,-0.01962483849615336,0.004104770442820089,-0.10909524068694529,0.01281275081615374,-0.041060131658947174,-0.00012654727131861066,-0.0026147341828999756,0.06235261985245724,-0.09012655929463717,-0.02302123957077102,-0.024062067349800542,-0.05431969048561352,0.17454639005612577,0.025382005233575367,-0.034198582903049425,-0.02603851518606365,-0.07168915491483856,0.09059313177907527,0.05996188589526282,-0.034270746675976696,-0.01790635722296514,-0.040505811275482036,0.044164554247875604,0.07509359472144043,-0.0018049390802137902,0.0833740455476492,0.010860593670499352,-0.13580974741004462,-0.06556318272496077,0.03787163594100894,-0.025809167408954708,0.028701150859106486,-0.06745409741780807,-0.04877955839096143,-0.023161179059266717,0.07853224568303795,-0.06520839457059029,0.04707026561132508,0.003358305981579021,-0.05626980483616268,0.03916608440985835,0.024286347770525483,0.03015335084172962,0.03700330094545468,0.018405157750446415,-0.014335700628358594,-0.04684282773638132,0.004068999005078577
124.35389709472656,1.0485000610351562,0.01101717605961752,-0.06729154838356104,0.043419129695875795,-0.040642102025926226,-0.003985140531853655,-0.07145119389988804,-0.07065871903816909,-0.00521042138136435,0.004294323551433676,-0.04236223601035548,0.07856361871862039,0.04624606108233515,-0.040487875249791805,0.029485768676412782,0.11923281695459036,0.06862423241472376,-0.05393007180581799,0.08584934276371858,-0.002635137731367962,0.1331874029577813,-0.03048573882928128,-0.11584278097387825,-0.06888056969699868,0.005440006020860796,-0.18479200835885712,-0.16958450492239693,0.029283635457104565,-0.5625966795440394,0.4513619761359472,-0.5002688279488856,-0.43039897354500506,0.08674778348482663,-0.7501837927225408,-0.3462004795506677,-0.058310983905659655,-0.5613717193891099,0.800592393934239,0.7512008208308179,0.23508223794713176,-0.07381737103190861,0.35988114208924116,0.5457555609905643,0.10381383622279254,0.27554627490833294,0.40121262234899163,0.35384047577305217,-0.4207888178894867,-0.1422294018781503,-0.020097973916236758,-0.6395994412754857,0.013186590270559946,0.11644530815227819,0.0793913192222953,-0.12592760466892727,-0.07172805424256647,-0.06571517832747059,-0.024971204233389353,-0.03323481791870383,0.004277629673144379,0.024709089281583177,0.09714783193049575,-0.06569394387401198,0.10452469382349025,0.07663853364312878,0.11331366257832505,-0.00835298313767874,-0.0010430199638831869,0.01889125432379471,0.02738383415593078,-0.09751431339457287,-0.05291851487038821,-0.06864474590567728,-0.056625430786650936,0.030096924302979118,0.06929387234168471,0.03507351213920104,0.04746163682627441,0.036570033484025204,-0.06790717451201858,-0.09302469959555426,0.046325672157336795,0.010232283905649595,-0.05929397325151308,0.13574729127151222,0.06037743410086946,-0.07202792412153627,0.058910330995728934,-0.004622468996103496,-0.04678824727358907,0.0593491503830757,0.07124136364502164,0.04164893002301323,0.02694807567278691,-0.02913950931289211,-0.001883408359909403,-0.05293027292986699,0.01674780449007042,-0.04725433242376402,0.006166034737511206,-0.02924859895875051
125.40239715576172,1.089202880859375,-0.024899545984423996,-0.07258790120517367,-0.005970792245547037,-0.0507503909390202,0.004001490323831937,-0.03847504001333182,0.031218961845643135,0.01788616853553975,0.008507020289309422,0.02231092442688394,0.11879432155299285,0.003942914542286479,0.12764475137395925,-0.3227737601898615,-0.7837184652530078,-0.08349287146797074,-0.2528768066384382,-0.005559479954251857,0.1643816578069492,-0.07516098287552463,-0.09442203411367345,0.2472663211726694,0.15497642832754355,0.31701219601084335,0.2876409169119243,0.08406307870375598,-0.2397090248824345,0.05352144736380182,-0.06347294862690947,0.2657521104161003,-0.1356048638733988,0.42135616193233166,0.3970467988793692,0.013224467880551044,-0.24922463133610456,0.13830732385711184,-0.16791692111627646,0.059847666607178364,-0.2435232824703166,-0.32519859821503244,0.20319063490689715,-0.07047230725925636,0.0918526822264355,-0.5826719699251877,-0.37013338621142416,-0.17132374572875864,0.46797163121114377,0.13577708997019217,-0.09030900279659668,-0.27094437004703165,0.25006919330927674,0.27367495864188973,-0.10399178330397407,0.1274737732844347,0.08398593334579998,-0.04827341632129375,0.07178188362094845,0.0475817166486638,0.011849947870590252,0.03114282220087503,-0.01382489800283202,0.04039195534179465,-0.11779331353653841,0.07054762039184596,0.009699676205906577,-0.000598837205942563,-0.001873335911134949,-0.07976095048194211,-0.007424018587470897,-0.00599034617376211,-0.11115424355939066,-0.07300046113900249,0.02386673259397661,-0.0072855750873971606,0.07163815386341829,-0.03350704312903542,-0.17597304097243513,-0.011411256095621686,-0.03060405070103604,-0.02579546858373439,-0.008944499021780534,0.07522808224838909,-0.07908704230385465,0.07603013882772217,0.01791673914231943,0.026927376645117997,0.03985762236677643,0.01049102749435249,0.052791203505354746,0.004163495721467896,-0.026419366625106577,-0.042277321714145805,0.025453324458083026,-0.06340242833382766,-0.06879988425896195,0.06561720275023153,-0.012754369969142755,-0.2876171896806267,0.014693198832746293,-0.03370431694619815
126.4916000366211,1.1887969970703125,-0.04373494607460245,-0.02167598966496203,0.06313733674954239,0.01827521204820433,-0.06814179515129516,-0.008853437860935868,0.073766781916671,-0.04457652706656513,0.04719683791475794,0.0558893784595202,-0.10995134436701336,0.15022452819806154,0.005648099230061373,-0.44338142380889217,0.6920878189879348,0.0452644757314945,-0.031768869833711744,0.17247398189488888,-0.10207058005309294,-0.10082604006195112,0.2343336652953127,0.22439136994289455,-0.1427877349107527,0.015374672439230658,0.05217113235318642,-0.01500282037550759,0.0580955508701043,0.12961520541133909,0.15273416367690268,0.053414316374450384,0.04664551814879322,0.17571447115384486,-0.11735977370277259,-0.02256128414191179,0.3284681622953054,0.1238695728992253,0.16476975881658784,-0.43840806755159367,-0.07431648176243297,0.05015412301588938,0.21536666538507918,-0.1770874702502295,0.5186793822970555,0.009640463594583263,-0.03523349887359502,-0.10909514783451249,0.5695057953358347,0.3826208191495874,-0.11424412093328262,0.3939329067272316,-0.0070579739713291095,-0.12281504190739634,0.04895422474015708,0.045612822015176704,0.13989281358590508,0.061024258151387484,0.01178027889443547,-0.02449034925319603,0.03350621194207945,0.010338639332762143,0.009799037445034617,0.06649555726075398,0.04152216673062187,-0.027579870963962114,-0.0062646388028077425,-0.10631342449620543,-0.0019375072428104057,-0.05456869485733249,-0.05183790935206737,-0.027586614751498113,0.002540768753395621,-0.016767209983173777,-0.09498390030178684,0.013815653950736643,0.045964261165918514,0.013976358875380492,-0.03865542503924333,0.05573987769706161,0.055606059418462375,-0.0032754962981788247,-0.056598859112939805,0.025220888602217238,0.03733314969945603,0.030177080505884774,-0.07226271010458485,0.06928941468876983,-0.04529454569961941,0.013061740902174433,-0.044862483007584816,-0.06411885768232206,-0.04834602072728171,0.06847956915112333,0.005288794077249012,-0.09258342653916832,-0.06058931969582889,0.0785988032201795,0.06031259203835189,-0.049683678941396414,-0.04292092874839037,0.026596902669725815
127.6803970336914,1.2985000610351562,0.033797371527711145,-0.0410787378402466,-0.022300151075995183,0.004753679852138329,0.09684144452897413,-0.01769367675689284,0.06523282412179515,-0.03704310328056094,-9.651597862262383e-05,0.03327117548747468,0.007037965677418673,0.024115667358741016,0.031013893435697864,0.09678705068702874,0.04119876312343435,0.012796576459392209,0.23566567549301168,-0.08006520532980574,0.03763477360064563,-0.07931064225371134,0.18583894921754004,0.1969359139148799,0.017537775008716307,0.13167527229307205,-0.2527155493912587,0.14109176124632963,-0.17555827952196296,-0.0020178938736383385,-0.049193122385638444,0.4285095856335488,0.37344383879728243,0.026621875300337994,0.021632832641223843,0.18565174142623256,-0.30419123762094885,0.002953502622439458,0.2713453521478088,-0.01120816595840405,-0.42644060000082046,-0.16863513911371544,0.5010343234733827,-0.35295180918185315,0.11790440932119343,-0.4013118392864803,-0.30694172848061235,0.36957935641157447,0.2847976899952641,0.40057070895371855,-0.16182290482167205,-0.5371159142752286,0.5380518057262447,0.07310095738094977,0.01663661017203473,-0.07247125146693693,0.009696583751663336,-0.04266799591879828,-0.058567117717159334,0.0009113948747287645,-0.09095345220951392,-0.06717398779851935,0.12425142193132396,-0.0092701298915666,-0.013038759575308548,0.006117424660968862,0.0238721954151221,0.038558726749869265,0.05457172075648123,0.04870925730770449,0.010816704842613517,0.02108582743193273,-0.07934889793056123,-0.04614441053943646,0.004787973903468938,0.006257668104357272,0.032303091355522034,0.010231674219776648,0.10301966276059983,-0.008190142229701236,0.007873222424373666,-0.06319697938511451,0.06764635571489079,0.08568788358747338,-0.14795491544822606,-0.07833296407478796,0.04415525363365362,0.02026864265560802,0.010802934818123208,-0.08373686891769384,-0.051816166179474314,-0.06710879198693455,0.03627894453705844,-0.073076050902194,-0.04038038958440715,0.2754225997117165,0.12024751148128413,-0.6190299776233219,0.018570876220636523,1.4463325419020874,1.6370308159083748,0.5231059117907675
128.97889709472656,1.1088104248046875,-0.28332358976224437,1.087836800146395,3.2658112400927863,2.1395990045829447,0.8933075309437184,0.7911565499305632,-0.029181149468997872,-0.00991560519987774,0.12926664208637462,-0.31772688095799917,0.4295838959464207,-0.6708058614479624,-0.0697614219874358,0.045498173777087175,0.15135352886374073,0.044857598391752684,0.20197771280649165,0.22044718608244662,-0.22314104406944857,-0.6888207101565468,-0.6112864583783623,-0.07355641781559791,-0.38493693487958625,-0.06905666016783493,0.5489748984510814,0.11337470894253635,0.07464885198954176,0.645475906437638,0.0077325519982224256,0.01999854896258693,-0.4310356163434884,0.7891418391436311,1.682946965472166,0.1504058050647122,0.15072618669181623,-0.2794644746990071,-1.0845283675341146,-0.8963026032699832,-0.15503723651278026,0.09847958490272646,-0.37557792462616824,0.33289194850685494,-0.18021307656662855,0.7527105145500776,0.8316487119330466,-0.48185784231643897,-0.08093739155740945,0.31701702788451536,0.4014024215239286,-0.4643132364682968,-0.06629727405315158,0.38363985106163606,-0.38608556547966494,0.40097646339736076,0.11020566942499446,0.014819773709819684,0.058112795804819976,-0.02400848572424118,0.02113721281939755,0.014954998380494793,0.020592046842246817,-0.019751836271992174,-0.03834097412906699,-0.21432582848717377,0.011263570477431957,-0.008539222558454858,-0.04583976272734755,0.0010340448760867453,0.0463614783576494,-0.04021335996418635,0.052981088048935455,0.07648258822032615,0.014778669890255627,-0.0262501176293905,-0.011263497594278641,0.10170997341078376,-0.00746576193070526,0.041110539905074024,0.03667484801380164,-0.0803924670305498,0.1067102548498998,-0.04869818498134126,-0.01853449198682199,-0.00331716013991664,0.025795319617810383,-0.004404046239294484,0.044836460094771616,0.055436342199732216,-0.006841097513913582,-0.0005221882399115106,0.004123523329150737,0.02925495741723996,-0.13472339911672807,0.028595063212512525,0.025186654859013054,-0.00731983322588243,0.040329031314847115,0.03451283873469356,0.017434821514704782,-0.062248099089219786
130.08770751953125,1.048797607421875,-0.06299176375819758,0.02282156620814827,-0.04090371403399014,0.04312440718341122,-0.03659804635663793,-0.14891996464600793,-0.04213020061258241,-0.009088532599415068,0.0006452744565816054,0.057115149404188145,-0.07340174022084024,-0.03478747260606368,-0.026455726077693465,-0.02088568646621173,0.09111327290893535,0.3749240754461904,0.06417710312915918,0.44239449173082473,0.12791026889949308,0.4578126120938392,0.01770772736410442,-0.22732064659559575,0.3522576621688997,0.3197706793262336,0.5169072306819036,0.0551303946800377,-0.15429575272496174,0.29997706647533157,-0.00030107129678928627,-0.17815086978273653,-0.12417530034054719,0.21986613164034524,0.29445441101413217,-0.4937024871505904,-0.3590878723734474,0.5830418448465294,0.22737193779133774,0.37728528377129583,0.5218391216187097,-0.4061104665475562,-0.9418152011368528,-0.4922563726686795,-0.7658694544235058,0.3767141429457561,0.07221111268600952,0.04176611104708508,0.2731259871758954,0.20047476799684952,-0.18783040398363005,0.35382920070189033,0.11806386386814934,-0.37128649160275107,0.05609507478136044,0.07002113794226121,0.07118352938014844,0.017155212782973377,0.07993003820410387,0.013255243296757332,0.040176559269653946,-0.034972064259510806,0.0006508454401741514,0.07359030616617987,-0.13766158087247313,-0.09809717430248667,-0.03946897597092241,-0.0071432601329517375,0.012209782365919158,0.02423906899574375,-0.0379239270721075,-0.02482664319242188,0.03445872474665835,-0.09183070318265102,-0.009800861505761062,0.05563173342132123,0.012068480785451915,-0.06164065647270478,0.028816200644539564,-0.0014426555608106073,-0.021557374413987224,0.007657704654943567,0.006931862943706443,-0.054950124730266676,-0.03503826512857151,0.022209716492449336,-0.02082525465815001,0.010731060042048976,-0.031516722312678686,-0.028164623330227543,-0.008514968357639836,-0.0240026863207451,-0.07659655180028867,-0.046581840327188824,0.0031484922246067105,-0.024762163793523136,-0.031552942147403375,-0.016688140219928302,0.11777605301053438,0.021689543477482486,0.08386982394226669,-0.08004701060424278
131.13650512695312,1.04840087890625,0.06090081438190222,0.036661570824121616,-0.04835593889939389,-0.07831213012050674,-0.01178909861309573,0.07247250066378738,-0.03513637008598626,0.023555779970639634,0.04588810024753269,0.10136183311152372,-0.05259070574920665,-0.004966984698867485,-0.1170145868427045,-0.23900438595772644,0.22033987935467728,0.09740867305592733,0.1791000262139577,0.2516027738980604,0.034502618748205635,0.13221241516923068,0.17727029460955973,0.04429808672224382,0.2378442023080207,0.005101509590925271,-0.022923550344660516,0.5483190857566174,0.0038368110850298953,0.007012923117042977,0.29885008588576856,0.27367786390113913,0.3530620018743031,-0.5454472535793233,0.03106868041036402,0.06086188742909833,-0.4146569419855928,0.03600323031625313,-0.1910985268820515,0.11283279762571644,-0.4879967675106142,-0.2127816689396669,-0.3242100413971616,0.09599597329182227,-0.014905583771415612,0.3450026446510063,0.20806860482370382,0.1979976795427876,-0.09650707481300366,-0.0759832812737366,-0.20846383294267967,-0.25101763316681514,-0.0024859681790713184,0.09183945531423116,0.1608419383741036,-0.10614050740035502,0.010289063483269197,-0.0019035656536007391,0.012410905393431666,-0.04532504697702995,0.012082299077430692,-0.0537570906292314,-0.00019563649399315444,0.0901994913075881,0.026267202838393164,-0.026172499799952842,0.015106414311884904,-0.04446845453270468,-0.00010357216812105063,-0.02915018464637473,-0.02022595659942346,-0.08445844005986687,0.015179622448089942,0.0608864512656703,0.048854768394780715,0.14195672339716334,-0.005731824943630011,-0.07190506374280915,-0.04346045560609592,-0.004619455659648099,0.018259311326207277,0.03279772726648918,0.04404663884381298,0.003917127156226573,-0.020338762894116718,-0.019496245368345034,0.10781619910878906,-0.01749266808820881,-0.09604099618621717,0.10103003613988906,-0.03741243002514084,0.000850897344184602,-0.07955073477946077,-0.05943417681782957,-0.08523345799594229,-0.017510562651617004,0.0362860766214067,0.0775303204329498,-0.018013061987493445,0.026928619447918148,0.06008050212639356,0.07828902860061943
132.18490600585938,1.0490875244140625,0.07931778537512016,-0.013399326800447846,0.00438068913172638,-0.03720786432531867,0.10839056721694118,0.04640314662684157,-0.002420543480022755,-0.011704286389978488,0.004886054826797243,-0.10837504065528138,0.023565856896068674,0.11612437837553478,0.0018113192796905646,0.013372276740265636,0.002711952305547969,0.08422914119908152,-0.01555322998238168,0.10210676834064561,0.16940380103877664,-0.11202130431106268,0.13111871634581163,-0.02763341694251285,0.06613117854848216,0.07626297963182495,-0.03394018037546993,-0.18297011317153106,-0.18486375465505514,0.018103076016935928,-0.05731286976906175,0.5327604118506402,0.060240349895087884,0.352585862123037,-0.7924471844615293,-0.4579178856026798,0.29657259477595205,-0.30621991047395075,-0.662736922808662,-0.11444246922876763,-0.34111251128248804,0.21229878446186737,0.04335135955320624,0.00906323948196519,0.08586414546134097,0.3354082267788556,-0.2188433352151506,-0.47108687537556315,-0.14655051961727197,-0.5468856150099769,0.015762185084201408,-0.19997155820695645,0.1101465754402941,-0.08410755339140337,0.11293913063335691,0.0264773142370548,-0.005968376117830822,-0.006153363669913042,0.031123065963532412,-0.003694132511978281,-0.0018757313595434792,-0.07691748211122515,0.04410872312487047,-0.07168303651325555,-0.011507412749044849,-0.06975393964014737,-0.01611774088668967,-0.02077978835140199,0.03266763617384686,-0.04495617104854526,-0.10440221277788451,0.015246605764422175,-0.046464928498677935,-0.053404973134044575,-0.04153986790388965,0.005073265546280296,-0.019297533071532775,-0.06391849006108276,-0.03606286882730612,0.029870602406182008,0.0366739907752487,-0.10611966932243302,-0.026795629584958573,0.014592697271555174,0.0055255408201972216,0.09019431115977745,0.05730571313368776,-0.014865184931799776,-0.0513152294181067,0.0671963357374333,-0.05105479653116391,-0.02425076486384623,0.03196153640378903,-0.04415419291408422,0.07458638478968678,-0.000543301523557162,-0.021124959837229836,-0.0006007354816109237,-0.012604268153148163,0.06905708373711533,0.07953616387855819,0.06075368103397327
133.23399353027344,1.0290069580078125,0.05604013473817811,-0.015769674287113615,-0.05969018963820375,-0.03135410360225098,0.026631058894906613,-0.044062469172922746,0.017132353135062547,0.04868917080952818,0.048293679041335386,-0.0033266172250586944,0.04574033706222987,-0.1051381086834202,0.0329460510414194,-0.03391693354841707,-0.013701571436597823,0.03642378489834394,-0.16607552061577827,-0.1380332999149092,0.2731517047541482,-0.15750221199983666,-0.012074890709529336,-0.13571115720887778,-0.24173817101867523,-0.19381758896112264,0.30925892265631894,0.07115025482858645,-0.11198541465079873,0.017754640535819835,-0.19857582140524127,-0.01885595940144033,0.2656631038692374,-0.4015859633010637,-0.22540175657736677,-0.052546261603845124,0.16612322752636227,-0.45757346804248783,-0.26814583270491027,0.19198488466230343,0.09400527660711486,0.12608684436144793,-0.09375084942764181,0.0938112251539891,0.31428687218039775,0.10913401122199334,0.40879823602928406,0.2901199815766589,-0.04171488431364558,0.1507040846027361,0.14031557546462098,-0.035125955959890307,-0.10011295814296503,-0.1330135574181795,0.40346904821787183,-0.1675866071068915,0.09573307254086591,-0.04921099555490298,0.006855098701085721,0.03340544770825121,0.024450603218616397,0.07562540703405204,0.00948713717834897,-0.07900431240350736,-0.006192011775845656,0.01648558181861209,0.07404098935816641,0.009075873714771344,0.07951110562368825,0.0942879103679875,0.1068720723683776,-0.007690629396036304,0.05748598951665972,-0.015416672453381299,-0.04952109963174123,-0.07762023698265318,0.11655980654004747,-0.003950991114058024,0.021592791960158703,-0.03879075186784471,-0.038690845622184326,-0.08460192379420071,0.021325713291777383,0.008519619647044611,0.0017222639951010974,-0.012647269277323188,0.09534290720645662,0.013141448120187556,0.08620768940023257,-0.008840813395929403,-0.06813457845976786,0.03775671477360554,0.06519608881682493,0.058322910979152,0.06394078106574991,-0.08315296073842568,-0.018382930923952125,-0.04946374375297921,-0.035816719403836655,-0.12853074790964575,-0.0013307008479612331,0.004617658519109072
134.26300048828125,0.919097900390625,0.0025957845927799036,-0.016171844161743477,-0.07973638560776251,0.026399137358111863,-0.011111475994662138,-0.04936548631962709,0.1569708727033664,-0.07548839636720492,-0.045108407025889655,0.03350965906553979,0.02150552758927784,-0.00018842487242917705,0.05334426709190454,0.015554115401794853,-0.02744353869971538,0.1874170980208085,-0.019941062106601223,0.07682114914426227,-0.2031228883300549,-0.09032596988280162,0.10602334287646892,0.018963343840729605,-0.22851115307293285,0.21856702217935492,-0.09110500157597701,-0.04577174823935977,0.41752448429396477,0.1976065662982614,0.44138207428899845,-0.29739092124159594,-0.20818231954391175,-0.45978778367350537,0.2559738382990583,0.18550180713398007,0.6330084698376368,0.6155582403678374,0.28633429776290664,-0.0650933046824219,0.13907842000819143,-0.6983081482709913,-0.7380949952899699,0.08957927594537501,-0.06426286407520213,0.18730231259384467,0.04254035982602966,-0.03293224021992239,0.10676902380480988,0.04050201577163608,-0.003962210523059416,-0.04509850747320826,-0.0025693378422020885,0.051092940506470425,0.015253883531690448,-0.14829309963464057,-0.03136094766591979,-0.014392529569416427,0.01882174055865365,0.007592352991817198,0.08631453782069845,0.03672146341561323,0.018553007617595617,0.08104826536913873,0.035946326158570394,0.045828988772686666,-0.006900748928574827,0.06003475178054629,-0.04320176325258478,0.014076315502506778,0.03412475214748122,-0.02130679526838443,-0.04902564044287014,0.03722354326414906,-0.05150503430775982,-0.0032872390344893874,0.08833383894077598,-0.02712546446978409,0.00587572002894963,-0.0536577201267225,-0.02166752745799469,0.022797251021383774,-0.007193868661264858,-0.05550872903694327,-0.026944012881297497,-0.04616237399283027,-0.03884620930691062,0.011876651161930055,0.07850411260068915,0.005457472931567151,0.054708423083834806,-0.00982932995373312,-0.018356005549158262,0.0537785908040225,-0.1060780523567367,-0.19084805728437973,0.014638681281522781,0.02312526961677127,0.013680219679516398,-0.05240360365092093,-0.00537997276045319,0.024302680392627757
138.5084991455078,1.068695068359375,0.010617463351840502,-0.02503916550005921,-0.060329974910636665,0.04657351704934139,-0.08495267805706722,0.0658917047802364,0.037688792771401185,-0.055272907478019835,0.05204327862401685,-0.027142169196761996,-0.07489727574235819,0.030288483246334777,-0.007824990247944186,0.0005244634137332735,-0.0039662582846089565,-0.004777576706738668,0.07358485451332507,0.010190514553490466,-0.06832388732898319,-0.009909782601336486,0.09971847743507094,0.12472181159126938,-0.0220780590815255,-0.07113837824209747,0.0182359125571152,0.07480537857781418,-0.06888353553426896,0.17494170814544585,0.038773643335845535,-0.27673576443683384,-0.1312008911279179,0.27981711462157755,-0.5792198756743716,-0.16537639141383742,-0.5521856331069156,0.3235409366455192,-0.12096909201326211,0.07066257286955784,0.25359416489465847,0.8011629968239112,-0.32230075239695183,0.7085772477197096,0.5531445470996498,-0.17471827043249455,-0.07049181719810155,0.040440349781415294,0.12582312683916042,-0.6037735546673635,-0.4948460615979833,0.38891484146799715,0.08223473404815619,0.01179489424526201,0.18460547739926786,-0.15921392846630514,0.04712720254813314,0.04494063290343624,0.0008706611247563945,-0.0420704700775143,-0.08859029170057178,-0.06170015917356387,-0.05250813973994814,0.016564548200193548,-0.0317964680143629,-0.11096497059950489,0.03184398410194242,-0.07127044244235349,0.03364496201412287,-0.0119624573833947,-0.026197752993767,0.020506831639937474,0.06629496445714725,0.07294366965811673,0.00018836957879141895,0.019378837482145653,-0.04204079960622171,0.11069119650698042,-0.01179337750391064,0.06977439899107424,0.03899604118413072,-0.11996562625437848,-0.10494356978978805,-0.028969807596947707,-0.03181634575961368,0.02274090216135765,-0.10818983901835788,0.0694196579006845,0.013776267321320063,0.05946706770194851,-0.013858495064516195,0.026830009380502715,-0.0832841750715667,0.10926416909734493,0.050776616296730484,0.01678012291592495,-0.06421943422182279,-0.01832781082786253,-0.010302716970703077,0.11111182854391735,0.1490262628993644,-0.004229796370321937
139.5771942138672,1.038909912109375,-0.0009947205440993014,0.07082048027093911,0.010821456106696211,0.031965165523273144,0.09069572147055346,-0.035397655540428494,0.11303329633283424,-0.012336899218292424,-0.0229395696308529,-0.027620700358198035,0.060980403453064505,0.041961594848848774,-0.06114407509473077,0.031151648945581843,-0.04493918513329279,-0.07554487929012475,-0.006127172595190335,-0.03472947358130942,-0.2669409055819444,-0.1259346240394477,-0.14715173597404665,0.2550118401200016,0.07791297047738834,0.08747180964415077,-0.0809369285857872,-0.11327543182248588,-0.07642571639162286,-0.18737591049056368,-0.11759052991118327,-0.13935388876243335,-0.008241780769163362,0.40623959583797387,-0.17135378914241461,0.057597257929164036,-0.4160604061886076,-0.2745877663249006,0.388758209589251,0.5465123705500209,0.35179605611269643,0.4814861750000163,-0.006454903752045515,-0.7192959895918282,0.2020209537029037,0.18903516453748326,-0.04337586932055996,0.2887525422540775,0.18251092444778624,0.14833704750608243,-0.16894813411202383,0.16389517845583637,-0.27321301514017193,0.07505877119726255,-0.20201612334000807,0.12276199527239239,0.19743053975005406,0.011410685769919226,0.006167118043595585,-0.03709489693275859,-0.0525012698564999,0.018185003863420084,0.0073324089426471395,0.06541632035869929,0.011255003194491894,-0.00732974319601503,-0.011133284963067081,0.05991745670152059,0.12567353694970707,-0.03998422781336358,0.031586145273694334,-0.06622880638518232,-0.025582011199513068,0.007210975948540536,-0.001476056999533371,0.05598788195877573,0.04483192977900362,0.02790140606034916,0.03610775436545341,0.030887939616028624,0.03831982924265258,0.012292932465015692,0.054658907249672484,-0.03800661110644236,-0.08979765092621377,0.007849349880388719,-0.06831705573888355,-0.02684458580685963,0.005552547916813043,0.014430177497303397,0.037483992288057044,0.0042094304079419035,0.021855410557417163,0.07540971387534924,0.0009124495903743567,-0.024658963527837578,0.03159029270260848,-0.025593976483264815,-0.028142513018269828,0.1097661560550543,-0.06742556374964134,-0.05316790862301157
140.61610412597656,1.0587005615234375,0.09426400401226245,-0.01818021946112151,-0.009012477823987943,-0.017288097853975434,0.01921204330462835,-0.045819157779123584,-0.035183631151107744,0.033058410679715974,0.025503087958711944,-0.08488348979818028,-0.10936628132019904,-0.012226340095046428,-0.05491755190391316,-0.042442397620081576,0.3682189149171559,-0.19510288406823761,-0.07612011152771124,0.06618852730816788,0.18187821061900478,-0.11153150113877407,-0.020644518411665157,0.3200216011349198,0.0054445773445608615,-0.1166720017503202,-0.3565167554709085,-0.22761691897973713,-0.24881596797309344,0.24787762605125474,-0.17865189105861704,0.005116324155277463,0.08425247056123918,0.26234028822747796,0.18306872366032742,-0.2026992702126742,0.6443489768722195,0.5473056537337629,0.024103530659011066,0.33550546040011753,-0.03132798964913223,0.036842981081795394,0.3114103379231466,-0.048993777725590666,0.3279489472267437,-0.09725130212260863,0.3263356525101754,-0.6662915137117521,-0.1819779482212957,-0.08888139267539982,-0.25696898459099354,0.042238682566744484,-0.0371875778572458,-0.004303979259710836,-0.2722502658241247,0.06894290396583083,-0.10344600609811923,0.028721567531966224,0.02340028692613063,0.0017325227449682457,-0.013638114372245706,0.02732531217809516,-0.06393922657160145,0.06394811874366277,-0.05652944328592576,-0.025315347328094966,-0.05798772176743558,0.11161873499828678,-0.059736077127790575,0.06511496846215768,-0.05846328422710182,-0.1277927241736157,0.04213399399452971,0.03476862241096256,0.006273575454958077,0.09886424226237009,0.11175063258979749,0.00012776246685153943,-0.035869859561693494,0.015294113239269274,0.03455760475815666,-0.060614231609758124,-0.05608914942941852,-0.017783202352316063,0.0011822916499658403,0.05418665917668644,0.03705318307889215,-0.012324743487342318,0.021730851583042925,-0.00851345244557121,-0.002189316885753909,0.009927026653145002,-0.047968921487489165,-0.05805310349514733,0.016006983708667093,0.09624944461072124,-0.02030524361439287,-0.00019668998941249106,0.05099306331109933,0.03928284509127968,0.040727259866252315,-0.026763816222001025
141.6748046875,0.99859619140625,-0.029501800962441267,-0.01387023188924129,-0.028889433970286264,0.06194315210260573,0.078076684511413,-0.053947454243489436,0.011519386054900896,0.04341528524868982,-0.03506125127339713,0.020811443997767166,0.04651525493786872,-0.10149746421440423,0.012185863056508137,-0.20191611865376569,-0.33928904706694984,-0.04660429514960321,0.10989504052882106,0.16028964143597574,0.06836510682416255,0.0866877199227504,-0.004747690667056645,-0.05441332582733609,-0.3982686787119757,-0.099727840326389,0.0023307298159328214,0.09559677969120318,0.44581242421419176,0.00605448405684339,-0.9541781789481654,0.4301285305065206,-0.2378953224582555,-0.6187644908810777,-0.2562442348357505,0.977714475617592,0.02246427886815398,-0.1230368724982818,0.19433373325957393,-0.004098703514238064,0.17605697753675986,0.37206384327783915,-0.14479582477155706,0.33911342222344104,0.20580006932410178,-0.20149869481676802,0.07165463406447406,-0.08804305920535435,0.12255817629769393,-0.0030995833113907634,-0.20764910004274317,-0.03597064921718849,-0.019216149069617647,-0.12947739320383342,-0.05136844789625062,0.049511219630499696,0.042713854290439196,0.027342836085550555,0.0010427809235287583,-0.0391737007348035,-0.0077063891389806466,-0.001780850035475557,-0.0037017277977793453,-0.025094200551441865,-0.0548206129325688,0.011491602299861653,0.03421371464438885,0.085539352413988,0.014946432524040331,-0.017128225853725913,-0.012912872976778119,-0.003416179513317603,0.004557269145199161,0.017813002106170355,0.031885471687745554,-0.026915759241186023,-0.013720702673507066,-0.11682048714085577,-0.0786420381132186,-0.06393803085070802,0.06216874012800557,0.012479695726080967,-0.002494180757898756,0.008351372873537098,-0.006814093948342103,-0.04170825092435461,0.08719292265436293,0.08493837236616299,-0.0067815703299899215,0.04425894773810764,0.06648839950692109,0.0644054053969166,-0.05052919366470757,-0.06451234799911656,0.00976313117194938,-0.02776262181231328,0.043803566012054714,0.03450911164424051,0.00010768866741554448,0.02257350424233992,0.041027985933140235,0.0883236890452784
142.67340087890625,0.96929931640625,0.10489938334885068,-0.003941973578933186,-0.02324417075186675,-0.09872995928901492,-0.1299477233503682,0.0577544613920018,-0.003791888527236366,0.060821327987725576,-0.006342384004914103,-0.033243600394811446,0.06383940342215211,0.32684544360892587,0.1788790529156019,0.09074057153581927,0.19475684872812565,-0.4618847812930438,0.22301242724429385,0.06075802327777373,-0.04280455291315283,0.24893194418949052,-0.2522779222370463,0.08690635051650543,-0.02861093845745246,-0.32999994790791803,0.16200327186472047,-0.0018434575175403471,-0.6943500601824956,0.055785562433371995,0.24532970938101975,0.11386320541669487,-0.009258794440098491,-0.08450235602474489,-0.15871211576549699,-0.19447491441388243,0.1770752100394324,0.14459160874034793,0.26650370473028906,-0.09493706194333945,-0.6682424645010463,-0.13889204671312363,-0.394673352910606,0.2274595817223244,-0.25191845990874995,-0.2216975255376681,-0.06250158159071512,-0.3918775400918796,0.05559426710323728,0.06168512260648964,-0.008968004449046788,0.055604226726897354,-0.04396947406224465,0.28230367617550195,-0.12048320296512235,0.02783981527895607,0.04112927251043988,-0.013481508670072969,-0.007819718912186443,0.023190277258832437,0.04059530266892965,0.09716806805421,0.03177377653518749,-0.01910381522006102,-0.1002163238459114,-0.07261973288760432,0.0020954186672819753,0.015208772256129759,0.06849685458274722,0.03783204349671301,-0.028876907782580334,-0.06515697263024224,0.0255883943145869,-0.015515251131718876,-0.059166082539248335,0.029878904567754,-0.011841110442391804,-0.057815775852305885,-0.028129026456742635,0.012451184498017395,-0.0370039053556594,-0.07628214858812012,-0.11558414667751696,-0.014494509907699486,0.028774985079576106,-0.023179492456480134,0.009014321311794237,-0.0016881923835422746,-0.04901873647980505,-0.08568864939888238,-0.010746300326391692,0.02308826436191983,0.09513905763417758,0.06514400967556074,0.002165965315551001,0.0637604429231223,0.014535916778349523,0.018544697853410466,-0.016174462370697834,-0.011202588353116605,-0.06398407236367579,0.09955600876713619
146.94850158691406,1.069305419921875,-0.01049775986644249,0.10951941003098715,0.11882379369592264,-0.08805609771363705,-0.059335369415969196,-0.060443741593511846,0.007483041037559909,-0.047961094984222394,-0.015810579849274087,-0.016390342912926407,0.050447841352336396,0.0962143401383595,0.043846486161098736,-0.12187652217991722,-0.12385700842929734,0.16596139737433335,0.1652218977852241,0.0034739811275745353,0.40234875931103237,-0.08439457740801978,-0.06187431164164595,0.31062472424029336,-0.04395700912966033,0.011155920822555197,0.07322474306675271,0.5131896125975677,-0.13951600855844754,-0.33380187855166055,0.3918864844907386,0.05041305753289639,-0.036420420886837286,-0.12022564536318411,-0.3011952039305342,-0.07755474597492035,0.7500498479108015,0.33427580425369346,0.08821292296973443,0.28186525833984705,0.5430440869689065,-0.9662378763115729,-0.420153206312171,0.411462107987505,-0.07167715051641221,-1.0340560487674157,-0.3705148500156763,0.3300651626644359,0.6518574799209442,0.5992376982327094,-0.23891469361132883,0.1467975857760657,-0.2527987955076251,0.36108764979994307,-0.12833381141458777,0.010834177903673414,-0.016052082014547255,0.02863914188897406,0.0073598738546877375,0.0017045697096456597,-0.027687530036055,0.024979181648114822,0.03952032576726507,-0.05541835601645672,-0.02414690780522005,-0.018305922472961773,-0.030078255928450367,-0.0498088220859166,0.018981573480008316,0.06738300245882933,-0.0005382245073086828,-0.005540118917807715,-0.08099514467008365,-0.06610615940482846,-0.021076345723056583,-0.09815837033937555,-0.03612128509743332,-0.005508094763620033,-0.026632973757581533,-0.010983195052945054,0.12284820901446404,-0.054776479320798946,0.02693234430225898,-0.018886617149156206,-0.07398918538447799,-0.07004705117000716,0.047349283060778395,-0.015274971593579087,-0.060867227334139316,0.06587855620579997,0.012322152544170573,0.0021252316573781233,0.053679421432588,-0.0023481041005656506,-0.0404979826562626,0.10156259622427243,0.04342707448364986,-0.005236354976717593,0.009191617102663535,0.02589487574509647,0.06217780607626176,0.00861396937385539
148.01780700683594,1.0685882568359375,0.01179617592636728,-0.031237018300383508,-0.03299511495644132,-0.023882062174048885,0.016981980716143284,0.030676605825767027,-0.11595522625301383,0.002940050393019377,-0.0682164225757025,-0.02552231563050087,0.022208314401146144,0.05968637698958415,0.03942772038656941,0.025370070699258097,0.07228580136181995,-6.095549151635682e-05,-0.18343072505962268,-0.04893289553627092,0.2690144801241581,0.0012114815885777563,0.020366506634744166,0.23342059742160606,0.13203080444626397,0.035993902909145156,-0.41806883520819604,0.1792121952476343,0.05637862643215367,-0.13394693006645908,-0.013853880544014444,0.006103485375081832,0.1990609130080416,-0.008168694209451842,0.25347521153178665,-0.012112866058948586,-0.27797376124162415,-0.738111328140185,-0.1384120946212402,0.3044452382151549,-0.27598522228472666,0.9686924221195872,-0.4371204945967458,-0.0308983437194386,-0.1901909807417448,-0.39584564084982965,0.298032677479345,-0.24467847263632825,-0.07276946874105317,0.21534638606335654,0.19752509978132435,0.08953614171658805,0.0059501931774763525,-0.09712523273689225,-0.050633146890490394,-0.04275383353261425,0.25722338499020975,-0.0046159040242712245,-0.0233555291076429,-0.010480327215108722,-0.01637481979665696,-0.01267545272702097,0.004829817639613071,0.05744281564493418,0.016096899355050806,-0.06457532488174642,0.1055894639141477,0.051986811430258094,0.02018705616009413,0.07906123941695424,-0.05870502395760917,-0.0024758676545461253,-0.09386869255250692,-0.062227916305059104,0.017525068467317217,-0.02532374922475973,-0.009170656281346482,-0.0348669532376331,0.06568179686610283,0.0027516741503184677,-0.0009089611389357184,-0.020444137319003353,0.04874128662044621,-0.003365714151500915,-0.01951730675678223,-0.010193677468905683,0.007219185591584454,-0.005767209742383771,-0.013280637509852831,0.029151749131145294,0.0691518496542901,-0.041263653204588566,0.07146969418535168,0.012085097131580205,0.03909335195841847,0.12517273481811236,0.05087260977136538,-0.0944944026660387,-0.021932525253487597,0.054541215622821854,0.0789206971729452,-0.036378925700244646
149.08639526367188,1.0792083740234375,-0.03366222883328308,0.048796692979832794,-0.033956997688411976,0.10722922317083751,0.03099890705148957,0.015000924369274214,-0.03242242939078363,0.013275932946947134,-0.026616932141353914,-0.054731988412069485,0.06432435194899942,0.05783767422013871,0.0015181189569329397,0.07822291189639526,-0.21405619182853092,-0.45778046717958415,0.24152741721644647,0.6114644975902568,0.09303911760003546,-0.24387313954056933,-0.06143838136186623,-0.25362208097110395,-0.01661788261717367,0.12579070721306304,-0.07237334225633876,0.19034745455144259,0.2747076581949749,0.47859940288437475,-0.25860135107960264,0.19527562444122576,-0.08401208161036508,0.07259707781177034,0.15301871428556607,0.5890625259488639,-0.16890338167015478,-0.6693685476941039,-0.716835347300278,-0.415588139783911,0.3873199274729172,-0.2963666187891836,1.145975125699732,0.08792591572708769,0.14075597807708745,0.1628857250801111,0.3055999976845478,0.34733520185154454,-0.03301121463089468,-0.10170565755252686,-0.17630716117319176,-0.02458181535201097,-0.1049033228674843,0.1546548131001049,-0.34300645212071534,0.1924173724885343,-0.1418890650407737,-0.030986269956316457,0.08483104719402715,-0.01183970344962056,-0.02341156921641529,-0.06856565947350608,0.033235778665920264,0.05718836709762555,-0.005036756825295067,-0.08468314375847338,0.016737712933114435,0.08026360363896676,-0.06254748416764731,-0.0227201122115223,0.08376981059433983,0.01219404563442707,-0.0010467464414983252,-0.03327617925685717,0.07037049450605608,0.05598536959148827,0.04679868970390893,-0.02204606846137465,0.07404125583857016,0.013524419204323877,0.006614158929940346,0.012231475136209119,0.07561851596961063,-0.009286439987235431,-0.047317940333596153,-0.004147375660212157,0.10671781674944535,0.012806229353783354,-0.004591369158045804,0.045099614951060345,0.039943551395420794,0.06467602674400268,0.017882228231007637,-0.018188736311563362,0.02231075587021856,0.025997400568803297,0.02609381898177398,0.0003986393050496428,-0.019028970104302455,-0.03726640067330962,0.0365404486603252,0.13975625660302832
150.1656036376953,1.0486907958984375,0.12494731245988852,-0.04370560706789747,-0.00736728445548287,-0.035689682781815835,-0.08627995761096782,-0.058540136118037475,0.02313002929393384,-0.07552879597665123,0.001073612342394347,0.013378251138508435,-0.01200304036960388,0.04859659024842796,0.04642336921290647,-0.08489957919653957,-0.13626480543738714,0.03016923085725945,0.0016217088495864146,-0.28458665623333645,-0.10535137286833866,0.2995636686662929,0.1159653761970696,0.1602797831303551,0.015342007613503374,-0.07088128912121094,-0.4209993216477933,0.32980752053347384,0.15901164449175062,-0.030584386082479903,-0.002095597428645707,-0.1314955725527917,-0.24175092714677351,-0.8495728252631805,-0.5149086706585474,-0.2652881301985351,-0.15810830175725396,-0.4760885930311039,-0.9384507462296626,0.568416920541754,0.24175519879259957,0.2899525255260563,0.3772969287206358,-0.5027663360220215,0.08226150067825304,0.4587991785018606,-0.25776278432639854,0.019206515360081722,0.26689028492754807,0.02065066864597052,0.03624074189630286,-0.10987939448038059,-0.2923806748855789,-0.08311937664611663,-0.11319906936742352,-0.0030132331243024908,0.13843182784683786,0.017112715574496222,0.04735876838432942,-0.005285051309134398,0.01760702522970751,-0.052923165783553536,-0.10145561922523329,-0.11440205125422266,-0.009736773552137153,0.08976794867046815,-0.02487668310691361,-0.0036003549895589327,-0.005427645568670603,-0.09806129842839656,-0.09092180561441748,-0.06213394296663453,0.06505142383467545,-0.0850644666286682,0.023474941636982573,0.04824252848355236,-0.05015336805928776,-0.038335628977383324,-0.011046573340160312,0.022000748832066208,-0.00857034973395164,0.015305473393815813,-0.028647998341169215,0.05625052341261,0.04032670039849594,-0.046191566902885756,-0.049641612655861395,0.031226601134443706,-0.008142186666197575,-0.021466178462147836,0.016085782532151472,0.040176119242034423,0.021867970422545364,-0.041442095909344716,-0.02769383783271941,-0.03124733619926543,0.004068123363726235,0.10852168182019632,-0.030467204287972362,-0.05710917821315835,0.028828936501061143,0.008529583945014393
151.21429443359375,1.06890869140625,0.007202663103575424,0.028238116918248193,0.14133210973895186,0.04915489602334779,-0.05675628862109502,-0.016080607319252288,-0.06532751081786405,-0.003959100248894634,-0.08660938501606491,0.028231618672289044,0.019945213461931326,0.030486262402077607,0.026832389598192494,0.03657767295552192,-0.035379589409261065,-0.029242686814171602,0.04660269092365962,-0.02200553269286601,0.12722118585678233,0.24387314399848642,-0.0017489813200259026,0.08372901490451383,-0.045414520262114635,-0.07400995763180818,0.2463768053018629,0.1337146589727069,-0.08385442433231931,0.15453818326702945,0.6096174794164688,-0.15920171619308862,0.014483009496942277,0.1923230763433017,0.35414160975303244,-0.04764907323643247,-0.0028081303292754704,0.2256412376358719,0.056720247302520566,-0.18721445556205354,-0.4019022964843963,0.004180690460019768,-0.005656320133495062,0.40666780880514686,0.1306849128138841,0.07656408841167103,0.18385399940419103,-0.6269518522822373,0.020527906751345883,0.06325238439699847,0.04895536430782828,-0.36311154832123205,-0.11070559332900122,-0.11682176375265113,0.1715678492494724,-0.08098761043285445,0.0892715276828387,-0.1960105171783178,-0.10273066967059294,-0.023908051939417085,0.05865243270638334,0.008226272376508918,0.04312073257937565,0.025342588936779608,0.07062566144791724,-0.039529402365321265,-0.007778689346089766,0.027393189025221656,-0.0002035466629524644,-0.0032917738049287742,0.047515964946060724,-0.002435930195234425,-0.0733273948485788,-0.006949535566806265,-0.05399692317806448,-0.1124108533391176,0.09833904073307509,0.01760321844702052,0.01202595811623747,-0.0024305378312423406,0.01980695897484302,0.06843029664654551,0.0025526927319173207,0.05021115424128027,0.0052787395216260845,-0.007005812966457161,0.016989839175733906,-0.14117956890369876,0.016675372228912473,-0.07826389344922707,-0.14395657500649692,-0.30065396656835097,-0.30406870216180915,-0.6726397215685611,-0.31254544921584404,0.45826943009068033,-0.06934225658100854,-0.1410995576738256,-0.04811161503614281,0.022392687305631268,-0.0444194890680024,0.05151127229443696
155.67979431152344,1.1083984375,-0.14318675866825673,-0.021938568351419257,-0.0073955952369022734,0.02650081258157272,0.038500758881729366,-0.03160607336409438,-0.04403179869116597,-0.036234822119583183,-0.04298170482645381,-0.03763784024403786,0.12484331820970015,-0.054494117829334526,-0.00019135600936824593,0.00422402678737472,0.036292443892760914,0.06130919583290295,0.044858606293785096,0.15036358385311205,0.05781493173327515,0.29123584005856473,-0.11024464998207324,0.14937633459123983,-0.0416916284478362,0.19546183423553576,0.1094773753762518,-0.17526814558190415,-0.2447388824292062,-0.011549895549277489,-0.05766607194321691,0.4925802778662674,0.09016814609052423,0.31154773084514953,0.00402102443543452,-0.16185210027180716,0.23760721627482428,0.2786320492102817,0.21470488098351484,0.36257571987787207,0.0874256884563798,-0.04772039149899575,0.38323734178261876,-0.12730665692308388,-0.8907730004316197,-0.1635437580556504,-0.5238539441886443,0.028046277894352656,0.033771968511184164,-0.23314164123285883,-0.38676769696201196,0.02604344352404337,0.061429368728865764,0.41390032522852654,-0.08658704186574503,-0.11100348894392371,-0.049638006552361974,-0.1639263190385669,-0.03993000307815826,0.07412171628420318,0.023210816716394245,-0.0076484435435021335,-0.011645180618738189,0.01289711990225531,0.06561484740849925,-0.020645495958783015,-0.01693251752714529,-0.040739311221136894,-0.10034459180935164,-0.05647142624922046,-0.0028075927092553942,-0.06489313318732176,-0.021392073372598037,0.035289335867029044,0.07190638366151618,0.005953804849850508,-0.006886982765779525,0.036823079397740384,-0.010290636267932154,-0.119416654626933,0.04520278989555003,-0.061298123647138644,-0.05023583303586688,-0.04635730541846209,-0.07052703613134396,-0.05113866320160505,0.03613123716852585,-0.016702034591745733,-0.0012204236669422649,-0.024660388121452985,-0.058798787521781144,-0.034487276203844,0.07484394692875122,0.07872561916594056,0.0249563379660705,0.06441828225183795,0.05027424069081773,0.05640342340303172,-0.046361507988325716,0.034578536094862895,0.019305646828738,-0.08989786956211562
156.78819274902344,1.1088104248046875,-0.09912220060066665,-0.0043763137228552615,0.018482463076362574,0.032294905984915974,-0.028561265460806742,0.02430593069360983,0.15389280486596993,-0.023627580263521856,0.08461548933987596,-0.048510463739937754,-0.01257609594112652,-0.03176411850261643,0.11047010745701716,0.40286312780895317,0.344730350120308,-0.3396395101846503,-0.08693876675929961,-0.27768294757619194,0.15545343770063863,-0.5139498889595231,0.5371859547534135,0.237929930835532,-0.38199420329134465,-0.617042495240341,0.11132891788069436,-0.4319765512978061,-0.3502858867963936,0.014218324681883124,0.22757796049643994,0.10877952548360052,0.35783139603640113,-0.11469190679304027,0.32426855051240205,-0.32178128605128475,-0.18463655845399796,0.15944788973800414,-0.19787262626475655,-0.22145906306826357,-0.23205944278299923,-0.20960686500043751,0.5338571174653277,0.2971937355415093,0.3662834377755825,-0.21915676111649238,-0.4142566292267984,0.7396398444677732,0.205756999851165,-0.18577286061961493,0.18498891684039903,0.2821930000356079,-0.0039196437657023344,0.07780020839963293,-0.48386089069941174,0.010646413913557935,-0.08053999555525292,0.019856797784838287,0.015196474208550378,0.030922325741744926,-0.04635889504258147,0.09027142900811079,0.12078495067790242,-0.054269482088423956,0.019763484112772737,-0.040989081598906865,-0.08067310323329606,-0.034123522333034506,0.023762391961903537,-0.027576780087602903,-0.025054280622048206,-0.0180565646101189,0.05977349943936997,0.0003589199807477717,-0.0337053085123867,-0.032762462635413436,0.05112361609948444,0.02625018621987068,-0.02680455057898412,0.004012889295674709,-0.03230426133864038,-0.03998996993305259,-0.1066639301576636,-0.084080346218738,-0.008703380626762944,0.06376989024250333,0.11601983249938416,-0.051102278272510196,-0.0012517513674369651,0.02015777860050746,0.08372436900693611,0.002606908266286165,0.07573203893096313,0.02153505400983902,-0.06009375464419149,0.05410297153062858,-0.035631292929337505,-0.008012663548861623,-0.037577465367034164,-0.05746723168663225,-0.014123399841774839,0.07587474020411585
157.89700317382812,1.0587921142578125,-0.07491295984222032,-0.04446288300419821,0.042490113251004935,-0.044780786876367405,0.023804186944796343,0.005705153584884541,0.011158382657314087,0.10979295361838917,0.02573403462584796,0.05974257600023494,0.05383856858805421,0.1307996441268624,0.12981784488508086,-0.1287469364962249,-0.25197293622059874,-0.1321291971323339,0.2407669522263713,-0.1800332291804727,0.28501239468332284,-0.5401021436860338,-0.09834768795746343,-0.015559803738361494,0.30463554347961885,-0.07478901996488503,0.02916035062075545,0.00016184381145090132,-0.28540885168812474,0.002038021183537367,0.6745018237908533,-0.21357107038759718,0.1018855697982078,0.3107844900900548,-0.3621552326942341,-0.20820317888417264,-0.19361228272138012,-0.4060960485521608,-0.5261834017424222,0.024697467282746716,-0.0332256681030937,0.19340811422955173,0.5316246897771453,0.3111655851908117,0.23126832589194923,-0.2302340707206107,-0.019212500948006334,0.23911188018148455,-0.38774437638629544,0.05818319266762334,0.06696900608459008,0.3351434817046553,-0.027032512696349917,-0.056267451341783854,-0.3410074587482205,0.18175355277724853,-0.08726251929648432,0.08513528715356004,0.0008388675746730107,0.019500037123862977,-0.02979949553175196,0.055390136494410075,0.09849523613905642,-0.02087918836765723,0.0031124701572941655,-0.06509549652925174,-0.05344692606056808,0.01612655853457342,-0.048257021691283694,-0.018215854002215877,0.02376949461869473,-0.017529681293840506,0.08611019992843885,0.045965795531146734,-0.033778651403061674,0.07946980739109634,0.02713840038038909,0.006605061550227855,-0.04310654132417299,-0.047817310098130575,0.020168687339128903,0.04152374900852552,-0.001584803187160008,-0.008967023723539008,0.08210624442238158,0.008591634059469956,0.07916823044561158,0.014203836026361384,-0.04567958839426774,0.013693024219659865,-0.04948117211057577,0.015416163760432297,0.051782272055572315,0.0318477787333145,0.0033521303922735505,-0.0958129661743192,-0.027708401330546577,0.0007792552672584532,0.00834954826005798,-0.007073121088618862,-0.0789088066246434,-0.011161528088397056
158.95579528808594,1.0185089111328125,-0.011939719155510568,-0.011495223291802774,0.02897897739573526,-0.008958851714555776,0.0017142574938361875,-0.022821040755197947,0.06542844312706486,-0.024642056846909052,-0.012062821890553067,-0.043172127909956545,-0.07649360022513374,-0.0497604434338718,0.24419470496634374,0.47855635241052,-0.44122417045043166,0.35604774143782786,0.1801013603947498,-0.11395849370674813,0.14838957461743144,-0.07937220722200526,0.07166972314850815,0.2453458747934125,0.3751415552725373,0.13948136741625344,-0.2242491389236025,0.06180627331513591,0.18735077350459742,0.18861345520822775,0.128181000000893,-0.06460366896387404,0.26217576706128837,-0.1712087872611619,-0.16991902099066541,-0.14330419138078773,-0.19019420262774464,0.32717895737005476,-0.1469428267879744,-0.2504856761574356,0.10196451827624871,-0.225102366495318,-0.4466588166636088,0.44071979175112636,-0.09536246959951898,-0.06728557299353746,-0.26929743143509444,0.07894128865188041,-0.05964233112157771,0.2888076561529961,0.19340555687259978,0.24590020377209176,0.030902067022132503,-0.05273638568092188,0.04331323059776723,-0.012480039416247169,0.06374906176451828,-0.000510366310185096,0.04798868546091803,0.0315957951364638,0.04821100634383908,0.0755354857582613,-0.005825002299037497,-0.010415905650799532,-0.1291970743522749,0.003903274440041785,0.00776687431190491,0.023495175866918513,-0.030913405619948778,-0.010546500310666866,0.04999910195102995,-0.007359083480622546,0.045681476051357625,0.10461652519505565,-0.006726622596259177,-0.016463030207088124,-0.002117972203883347,0.022137186146587683,-0.030348216522735196,-0.03503639327577738,-0.04699166377058945,-0.012074888564213446,0.07313688973590875,0.014055694516639922,-0.003161003150860259,-0.02084454034543841,-0.02080631972510628,-0.022283019002582373,-0.050371337473648574,0.041790255090938595,-0.04375048997548195,-0.05754546057484687,-0.021682918771364818,-0.008989470174399094,0.025974142748226778,-0.014200440513144329,0.0014696917604514687,0.02172769149900971,0.07996925616587114,0.023799569358822992,0.03148688660102386,0.004870559549702828
163.48080444335938,1.0984954833984375,0.01483576809674355,-0.027684708257711653,-0.017877692669453465,0.014579896412964626,0.01890472659070251,0.047257051570744744,-0.04755217031752939,0.015555325214625191,0.04028523107993597,-0.012286604073041434,-0.0008772326905528288,0.03000787000626625,-0.014468625081303269,0.04670018646286363,0.1470077511271746,0.14831358127095523,0.2676579182711487,0.13215290977255464,0.11367004668034371,0.058396057142946545,-0.015614941272076702,-0.04676514675836023,-0.2053921516424286,-0.1791582624628129,0.09935171685646216,-0.040965895041344125,-0.05858217305317778,-0.13225601344090157,0.10512675900379453,0.08878702837145243,0.06131672546434616,0.5994443040865045,-0.13160048583631953,-0.6381214934120433,-0.0695268040010005,-0.0019311711581611185,-0.08441644319679763,0.5694803886377934,0.079301150524339,-0.33522797738121984,0.18626422111694163,0.6066910735991347,-0.26242931149834375,-0.03599765804009038,0.002050053651399694,0.12277919540132316,0.08240320888297263,0.22105044530590137,0.1247984250862754,-0.25774386403944205,0.24897451005291585,0.3680061626165374,0.13909627744145808,-0.06792711139486758,-0.03275312966168582,-0.08373983691947397,0.00210680127704051,0.10089911429938858,-0.054550300540062345,-0.0013236864288649738,-0.0014297309008628814,-0.08999297333767702,0.021115744133775982,-0.01970460976705908,-0.0595203414712918,0.0962991153360805,0.03583293300370473,0.0391780995748591,0.08381576697417817,-0.04832753037958004,0.00796622581536324,0.03216564265218087,-0.08114939212359407,-0.09375621314463309,-0.000652638267205108,0.10739213865857129,0.040974974970560595,0.03944737512445814,0.03601044742300654,0.01301201067161913,0.037706391039523154,-0.01895340261889173,-0.07974241902087158,0.01996183331529779,-0.031280256247060066,-0.009856246384526493,0.041735800496319954,0.033640534518291805,0.03913494500522194,-0.01308324252084779,-0.13010977899776333,-0.0635419910678985,-0.04691279983298516,0.00952047104323469,-0.03814446307184705,-0.06227353543320997,0.04142480625265063,-0.06863979653361266,-0.010808526818268351,-0.04613300753525028
164.5792999267578,1.0886993408203125,-0.04637672456785258,0.008950603742535082,0.04803720308335397,0.0818912015491921,-0.09388392306520016,-0.05112863314931296,0.06099224793107267,-0.033311563551625754,-0.03940897719526086,-0.12515584661551094,-0.01245011782426917,-0.01039787540807464,-0.036801682423409365,-0.011326775495826646,-0.09048419900601487,-0.10020404415005292,0.17562031891144558,-0.06011977298922787,-0.6151306102834291,-0.6546815332332812,-0.0831100315566777,-0.008467639934790938,-0.033745457480336666,0.054898030117945834,-0.24039105871857167,0.297886808837368,0.8219749189270791,0.15941709496263778,0.0072187870786131845,0.05084500355069533,0.2641892147312393,0.7328479121031488,0.17463213883847284,0.7110620281510358,0.1319948991474177,-0.034555778714720126,0.0997237279110925,-0.03546908582285513,0.3338762931607286,-0.29772509991823576,0.31658246279889113,-0.03974488739773621,-0.23762154213154046,0.3420423622756027,0.3586831144533785,0.37043089530260276,0.6031019004160091,0.42075044563996417,0.2588256560580793,-0.058791656938716914,-0.15570341597798923,-0.306321535121542,0.16891601952834576,0.011732138020228211,-0.3514043558179069,0.0895452525657864,-0.016457498483312533,0.005996635938791747,-0.036344880411183535,0.026795725439387352,0.019924769295354205,-0.04712058320805876,-0.0457610714853634,-0.03664025503735729,-0.05044536654305737,-0.003124066090552125,0.02129011070394456,-0.03887957143654341,-0.0060196252856457065,0.01171383400115868,-0.010520022819171502,-0.10596068744510488,-0.13516610456888392,0.05354694221044609,-0.033104372575875174,-0.0076418410555655625,0.04538265566197075,0.025499309230278704,0.05114888459367278,0.08297173029684488,0.05839496374924172,-0.0426666553191904,-0.06808352311384541,-0.0576105774927497,-0.026418901337007104,-0.009523661864555345,0.01449761258100525,0.005423521329965219,0.051956861060636766,-0.049367872825491765,-0.06811608792227956,0.007625795185360159,0.01654425870151724,0.07087664895622142,0.005122728975396756,-0.02372466031247,0.03680293703987645,0.012375375757329206,0.04154808242539942,0.04439925346449532
165.66799926757812,1.0688934326171875,0.029111948427155587,-0.08562815736479831,-0.05925111103957996,0.0773130602356914,-0.027677971444141955,-0.005299180795464256,0.03710026581017502,0.01633263491152581,-0.08564604095583458,-0.056476565696007536,-0.05800878072435983,0.02452354721560448,-0.032364541755284346,0.10312370291041226,0.47256392977098033,0.04393120423105808,0.19583758802258355,0.2308152892018406,0.15378437681071014,-0.030187463866589298,-0.0167561452423914,0.10884938873127327,-0.08186984153830498,0.029169164834052876,0.041908360628143876,0.028816344998434107,-0.1221843708531011,0.3453749579599728,-0.3464128748785538,0.11012060873201167,-0.1965891330057671,-0.02478788396194684,0.2128615337179194,0.09030077068958847,0.38047268792341044,-0.3812361629145111,-0.5456383591682774,0.5069793907734494,-0.003057088062433433,-0.766044899414777,0.19462536410113454,0.5371246736066257,-0.00882058507890765,0.4051758345724755,0.5115801004832964,-0.007793642769012406,-0.3041642447619014,0.17043572851584549,-0.00948785898128049,-0.03354881360029489,-0.26232309952634625,0.09208488695707258,-0.19688465083371182,0.02887985339261137,0.09142112693781279,-0.01944221730735601,0.01270969866906422,0.0753714486378887,-0.10179059308919608,-0.07408950022156302,-0.021250687362426416,-0.0037661067688728586,-0.026561638249287083,0.16338586181539907,0.06785248568700586,-0.06362180036069193,-0.03717857073742412,-0.05314832864274902,-0.10555416789569665,0.00631984514256162,0.09894464974732739,0.10296669503021126,-0.042589393888333146,-0.04332955072263616,-0.09048798090699799,0.04325510575284043,-0.030049425345980377,-0.07924945484167992,-0.037440188201217695,-0.039705985687305594,0.13366839517005735,0.03462640534536911,0.018027448542587643,0.036021763406857074,0.005550965257784697,-0.019892019630818502,0.05368892127755254,-0.09774754900508045,0.023377779750009556,0.009796689622049909,0.03525062561572715,-0.0028057389780857178,-0.01705818115230041,-0.05748848737395591,0.030558502460133967,-0.0658806717915709,0.0022319631180033874,0.016561812391160474,-0.011542647283908114,-0.0009943014388517288
166.7368927001953,1.1193084716796875,0.0011852903227133334,-0.07814619804307657,-0.03656342902445428,-0.042839261005498626,0.07951582296005279,0.041482680942996716,0.06488954943953124,-0.008931291001522401,-0.017923524600847406,-0.09376227893567818,-0.05179707906196318,0.022668162461571044,0.05623714502614649,-0.1584074162983405,0.29808643781994054,0.6460010364169998,0.34327285343144,-0.041152819423989434,-0.06703486991846588,-0.2287440596260829,-0.20326535526649292,-0.23765546914287977,0.2445250704066889,-0.07761929669167277,0.22446806808489755,-0.043666709533744276,0.02528213459778808,-0.17761107685806574,0.03680040450108652,0.05804193771010047,0.4295570953314113,0.3055655429827772,0.050999446310088944,-0.20067480301179252,-0.10140572541341261,0.3072960114088173,0.2474841293064165,-0.018788000867429072,0.15428063029568617,-0.4299633131158449,-0.09378648961945256,-0.10476733444121293,0.22733691651932703,0.0765666406164831,0.18614074286135632,0.24021266705763075,0.08357329198003367,-0.3093787026171523,-0.09579265237147691,-0.17186841669863515,0.058367083726453654,-0.03815712664068384,0.17730024776540082,0.344839809308795,-0.017941314311079176,-0.015566161895086276,-0.020661700813620686,-0.09600760209130905,-0.06339289160408461,-0.0835288980756916,-0.0305952142516595,-0.09108675400027313,0.07232495545427203,-0.0013307886983647212,0.11336398683846718,-0.04151826712853329,0.008378575284991334,0.05400304520843927,0.06770088793230575,0.03976928766484965,-0.04552351182868322,-0.03560831987579016,-0.059903950211876784,0.024585423176169557,0.029894914283509495,0.08542960133382806,0.07964932887921998,0.005722094163891947,-0.001188494580776439,0.022203409218378947,0.0475388180638585,-0.005744226708588778,0.002820967082037344,0.0066222211096652345,0.012522547086758989,-0.00029195242803948564,0.03493550079777964,0.09050798167548453,0.012082033190292794,-0.11022705417858292,0.00407814040295531,0.025302049877550047,0.049368683044601416,-0.014033909128409634,-0.020149394395735553,-0.010806801589764409,-0.05251570763617651,0.03552872484664279,0.005101050275721733,-0.011824076392471454
167.856201171875,2.177398681640625,-0.01673621970638836,0.004673270918496994,-0.011920395660980857,-0.04242599120272812,0.015741908216108838,-0.07489529611677731,-0.012033727965124362,0.00372442435352853,-0.024062941649692644,-0.030149302210963833,-0.0018416188249200452,0.021437555580665933,-0.1053014157199865,-0.03888394091999591,0.06164166693314339,-0.15551972850208773,-0.1826872845688924,0.15223541516264366,-0.11961971859092331,-0.0399090882362423,-0.051562468233616904,-0.3380185946738216,0.02787206418801172,0.06228602221435434,0.20895409443415397,0.3411485009392347,0.13919011137324508,0.20492518403880575,0.14153479986314285,0.20405825443306272,0.2533411855213237,-0.2363244917524403,-0.4620952224854482,0.015735113900637004,0.13454847351172794,-0.19035366626323358,-0.058171959627822636,0.33574205306846255,0.06105300450235526,0.4365235783264254,-0.098849823631537,0.10434606112820231,0.022288858487258936,-0.13861263084536635,0.019647172932032927,-0.06417865002054957,-0.1267946341634811,-0.125740449315028,-0.049791713296334764,-0.05528011659391878,0.008411066160643584,0.04780794487639931,0.02215185495685008,-0.07325882052268261,-0.10712452896121856,-0.1564674981875824,-0.04365988961882272,-0.06423069688873266,0.055043904399671884,-0.015894724568777396,0.04212279837435692,0.022410605815732326,0.08610377529203224,-0.012607927472937612,-0.04004834366503042,-0.053312979315325464,0.041450509569873784,0.12297975213456679,-0.03037122637752437,-0.0467930775198277,-0.001244631881879607,0.10225890717054435,0.09063587438286222,0.07418213704889556,0.012557214450311327,0.018808876138880305,-0.06351391456634363,0.06758403802621007,-0.024327253070615458,0.018387279650534376,-0.05002683229081846,-0.05304148755665429,0.00586295158731542,-0.016350212500102615,0.1077722207612035,-0.08623588826676461,0.0015108967150196805,-0.010520414509983393,0.008736722596577852,0.04393276431010218,0.11837073407167024,-0.0032807878896337073,-0.131606595966207,-0.06665455388077039,0.05753970929144291,-0.37961684059909484,0.025173213711934237,0.26417578027158006,0.23359655549256256,-0.13816352988493835
