elapsed_s,lhl,lhm,lgm,lgl,lpl,lrf,lta,lvl
1.7084501,474,-676,-397,272,-477,125,797,-294
1.70895,475,-676,-396,272,-477,125,797,-294
1.70945,474,-676,-396,272,-476,124,797,-294
1.7099501,474,-677,-396,271,-476,125,796,-294
1.71045,474,-677,-396,271,-476,124,796,-294
1.71095,474,-676,-397,272,-476,125,796,-294
1.71145,474,-676,-396,272,-476,125,796,-294
1.7119501,474,-676,-396,272,-476,125,796,-293
1.71245,474,-677,-397,272,-476,125,796,-293
1.71295,474,-676,-397,272,-476,125,796,-293
1.7134501,474,-676,-397,272,-476,125,797,-293
1.71405,474,-676,-397,272,-477,125,797,-293
1.71455,474,-676,-397,272,-477,125,797,-293
1.71505,474,-676,-397,272,-477,125,797,-294
1.7155501,474,-676,-396,272,-477,124,797,-294
1.71605,474,-676,-396,271,-476,125,798,-294
1.71655,474,-676,-396,271,-476,125,798,-294
1.7170501,474,-676,-396,271,-476,125,798,-294
1.71755,474,-676,-395,271,-476,125,798,-293
1.71805,474,-676,-396,271,-475,125,797,-293
1.7185501,473,-676,-396,271,-475,125,797,-293
1.71905,473,-675,-396,272,-476,125,797,-294
1.71955,474,-676,-397,272,-476,125,797,-294
1.7200501,474,-676,-397,273,-476,124,797,-295
1.7205501,474,-676,-398,273,-476,125,797,-294
1.72105,474,-675,-397,273,-477,125,797,-294
1.72155,474,-676,-397,273,-477,125,797,-294
1.7220501,474,-676,-397,272,-476,125,797,-294
1.72255,474,-676,-397,273,-476,125,796,-293
1.72305,474,-676,-397,272,-476,125,796,-294
1.7235501,474,-676,-397,272,-476,125,797,-294
1.72405,474,-676,-397,272,-477,124,796,-294
1.72455,474,-675,-396,272,-477,125,797,-295
1.7250501,473,-675,-396,272,-477,124,796,-295
1.72555,473,-675,-396,272,-477,124,797,-295
1.72605,473,-676,-396,272,-477,125,797,-295
1.72655,474,-676,-396,272,-477,125,797,-295
1.7270501,474,-676,-397,273,-477,125,798,-295
1.72755,473,-676,-397,273,-477,124,798,-295
1.72805,474,-676,-397,273,-478,125,798,-295
1.7285501,474,-676,-397,272,-477,124,798,-295
1.72905,473,-676,-397,272,-477,125,798,-294
1.72955,473,-676,-398,272,-477,125,798,-294
1.7300501,473,-676,-398,272,-477,125,797,-295
1.73055,473,-676,-397,272,-477,125,797,-295
1.73105,473,-676,-398,273,-476,124,796,-295
1.7315501,473,-677,-398,272,-477,124,797,-295
1.7320501,474,-677,-397,272,-477,124,797,-295
1.73255,473,-677,-398,272,-477,124,797,-294
1.73305,473,-676,-397,272,-477,124,798,-294
1.7335501,474,-677,-396,273,-477,124,798,-294
1.73405,474,-676,-396,274,-477,125,798,-294
1.73455,474,-677,-396,273,-477,124,798,-295
1.7350501,475,-676,-396,271,-476,124,797,-294
1.73555,474,-676,-395,271,-474,124,797,-294
1.73605,474,-676,-395,270,-475,124,796,-295
1.7365501,475,-676,-395,270,-475,124,796,-294
1.73705,474,-676,-396,270,-475,125,796,-295
1.73755,474,-676,-396,271,-476,125,796,-294
1.73805,474,-676,-397,272,-476,125,796,-293
1.7385501,474,-676,-397,272,-476,125,796,-293
1.73905,473,-675,-397,272,-476,125,797,-293
1.73955,473,-675,-397,272,-477,125,798,-293
1.7400501,473,-675,-397,272,-476,125,798,-293
1.74055,473,-675,-396,272,-476,125,798,-293
1.74105,473,-676,-397,272,-476,125,797,-293
1.7415501,474,-676,-397,272,-477,125,798,-294
1.74205,474,-677,-397,272,-476,125,797,-294
1.74255,473,-677,-397,272,-476,124,797,-294
1.74305,473,-676,-396,271,-476,125,797,-294
1.7435501,473,-676,-396,270,-475,125,797,-294
1.74405,473,-676,-396,270,-476,125,797,-294
1.74455,473,-676,-396,271,-476,125,797,-294
1.7450501,473,-675,-396,271,-476,125,797,-294
1.74555,472,-675,-397,272,-476,126,797,-294
1.74605,473,-675,-396,271,-476,126,797,-294
1.7465501,473,-675,-396,271,-476,126,797,-293
1.74705,474,-675,-396,271,-476,125,796,-294
1.74755,474,-676,-396,271,-476,125,797,-294
1.7480501,474,-676,-397,272,-476,124,797,-294
1.74855,475,-676,-397,272,-476,125,797,-294
1.74905,475,-677,-396,271,-476,125,797,-294
1.74955,474,-676,-397,272,-476,125,797,-294
1.7500501,474,-676,-396,272,-477,124,797,-294
1.75055,474,-675,-397,272,-476,124,797,-294
1.75105,474,-676,-397,272,-476,124,797,-294
1.7515501,474,-675,-396,272,-476,125,797,-294
1.75205,474,-676,-397,272,-476,125,797,-294
1.75255,474,-676,-397,272,-476,125,797,-294
1.7530501,474,-676,-397,272,-476,125,797,-294
1.75355,474,-676,-396,272,-476,125,797,-294
1.75405,474,-676,-396,272,-476,125,797,-294
1.75455,475,-676,-396,272,-476,125,797,-295
1.7550501,474,-676,-396,272,-476,125,797,-294
1.75555,475,-676,-397,272,-476,125,797,-294
1.75605,475,-676,-397,272,-476,125,796,-293
1.7565501,475,-677,-398,273,-476,125,797,-293
1.75705,475,-677,-398,272,-476,125,797,-293
1.75755,475,-677,-398,273,-476,125,797,-294
1.75815,476,-677,-398,273,-477,125,797,-293
1.7586501,476,-677,-398,273,-476,125,797,-293
1.75915,476,-676,-399,273,-476,125,797,-293
1.75965,475,-676,-398,273,-476,125,797,-293
1.7601501,474,-676,-398,273,-476,125,797,-293
1.76065,474,-676,-397,272,-476,124,796,-292
1.76115,474,-676,-396,271,-476,125,796,-292
1.7616501,474,-677,-395,270,-476,125,796,-293
1.76215,474,-677,-395,270,-475,124,796,-293
1.76265,474,-677,-396,270,-476,125,797,-293
1.7631501,474,-677,-397,271,-476,125,797,-294
1.7636501,475,-677,-397,271,-476,125,797,-295
1.76415,474,-677,-396,271,-476,124,797,-296
1.76465,474,-676,-395,271,-476,124,797,-297
1.7651501,474,-676,-395,271,-477,124,797,-297
1.76565,473,-676,-396,272,-476,125,797,-297
1.76615,472,-675,-396,272,-477,125,797,-296
1.7666501,472,-675,-397,272,-477,125,797,-295
1.76715,472,-674,-397,272,-476,125,797,-294
1.76765,473,-675,-397,272,-476,125,797,-294
1.7681501,473,-675,-397,272,-477,126,797,-293
1.76865,473,-675,-397,272,-476,126,797,-293
1.76915,474,-676,-398,272,-476,126,797,-293
1.76965,474,-676,-397,272,-477,126,797,-293
1.7701501,474,-677,-398,273,-477,125,797,-293
1.77065,474,-677,-397,272,-477,125,797,-294
1.77115,474,-676,-397,272,-476,125,797,-294
1.7716501,473,-677,-397,272,-476,125,797,-294
1.77215,473,-676,-398,272,-475,125,796,-294
1.77265,473,-676,-398,271,-476,125,796,-294
1.7731501,474,-676,-398,271,-476,125,797,-294
1.77365,474,-676,-397,271,-476,125,797,-294
1.77415,474,-676,-397,271,-476,125,797,-294
1.7746501,474,-676,-397,271,-476,125,797,-294
1.7751501,474,-677,-396,271,-476,126,797,-294
1.77565,474,-676,-396,271,-476,125,797,-294
1.77615,475,-677,-395,272,-476,125,797,-293
1.7766501,475,-677,-395,272,-476,125,797,-294
1.77715,475,-678,-396,272,-476,125,797,-294
1.77765,476,-678,-396,272,-477,125,797,-294
1.7781501,475,-678,-396,272,-477,125,797,-294
1.77865,475,-678,-397,272,-477,125,797,-294
1.77915,475,-677,-397,272,-477,125,797,-294
1.7796501,475,-677,-397,272,-477,125,797,-294
1.78015,474,-676,-397,272,-477,125,797,-294
1.78065,473,-676,-396,272,-477,125,797,-294
1.78115,473,-676,-396,272,-477,124,797,-294
1.7816501,473,-675,-396,272,-476,124,797,-294
1.78215,473,-676,-396,272,-476,124,796,-294
1.78265,473,-676,-397,272,-476,124,796,-294
1.7831501,474,-676,-396,272,-476,124,797,-295
1.78365,474,-677,-396,272,-476,124,797,-294
1.78415,474,-676,-397,273,-476,124,797,-295
1.7846501,474,-676,-397,273,-476,125,797,-295
1.78515,474,-676,-397,273,-476,125,797,-294
1.78565,474,-676,-396,272,-476,126,797,-294
1.78615,474,-676,-397,271,-476,125,797,-294
1.7866501,474,-676,-396,272,-476,125,797,-295
1.78715,473,-676,-397,272,-476,124,796,-295
1.78765,474,-676,-397,271,-476,124,796,-295
1.7881501,474,-676,-397,272,-476,125,796,-295
1.78865,473,-676,-397,271,-476,124,797,-295
1.78915,473,-676,-397,272,-477,124,796,-295
1.7896501,473,-676,-396,272,-476,125,796,-295
1.79015,473,-675,-397,272,-476,125,797,-295
1.79065,472,-675,-397,272,-477,125,797,-294
1.7911501,472,-675,-397,272,-477,125,797,-294
1.79165,471,-675,-396,271,-477,125,797,-295
1.79215,471,-674,-397,271,-476,125,797,-294
1.79265,471,-674,-397,271,-476,125,797,-294
1.7931501,472,-674,-397,271,-476,125,797,-293
1.79365,471,-674,-397,271,-476,125,797,-293
1.79415,472,-674,-396,271,-475,125,797,-293
1.7946501,473,-675,-397,271,-476,125,797,-293
1.79515,474,-676,-397,272,-476,125,797,-294
1.79565,475,-677,-397,272,-476,125,796,-294
1.7961501,475,-677,-397,272,-476,125,797,-294
1.79665,475,-676,-397,272,-476,125,796,-294
1.79715,475,-676,-397,272,-476,125,797,-294
1.79765,474,-676,-397,272,-476,125,796,-294
1.7981501,475,-676,-397,273,-476,125,797,-294
1.79865,475,-677,-397,273,-476,125,797,-294
1.79915,475,-677,-397,272,-476,125,797,-294
1.7996501,475,-677,-396,271,-476,125,797,-294
1.80015,475,-677,-396,271,-476,125,797,-294
1.80065,474,-677,-396,271,-476,125,797,-294
1.8011501,475,-677,-396,271,-477,125,798,-294
1.80165,475,-676,-397,271,-476,125,797,-295
1.80215,474,-677,-397,272,-476,125,797,-294
1.80275,474,-677,-397,271,-476,125,797,-294
1.8032501,475,-677,-397,271,-476,124,797,-294
1.80375,475,-677,-397,271,-476,125,797,-294
1.80425,475,-677,-396,270,-476,125,797,-294
1.8047501,475,-677,-397,271,-476,125,797,-293
1.80525,474,-676,-397,271,-476,125,797,-294
1.80575,474,-676,-397,271,-476,125,796,-293
1.8062501,474,-677,-397,270,-476,125,796,-294
1.80675,474,-677,-396,270,-475,125,796,-294
1.80725,474,-677,-396,270,-476,125,796,-294
1.80775,474,-677,-396,270,-475,125,796,-294
1.8082501,474,-677,-396,271,-476,125,796,-294
1.80875,474,-677,-397,273,-476,125,796,-294
1.80925,474,-677,-397,273,-476,125,796,-294
1.8097501,474,-677,-397,273,-476,125,797,-294
1.81025,474,-676,-398,272,-476,125,797,-294
1.81075,473,-675,-397,273,-476,125,797,-295
1.8112501,474,-675,-396,272,-475,125,796,-295
1.81175,474,-675,-396,272,-476,124,796,-295
1.81225,474,-675,-396,272,-475,125,796,-294
1.81275,474,-675,-397,272,-476,124,796,-294
1.8132501,474,-675,-397,271,-476,124,796,-294
1.81375,473,-674,-397,272,-476,124,796,-294
1.81425,472,-673,-396,273,-476,124,797,-295
1.8147501,471,-673,-397,272,-477,124,798,-294
1.81525,470,-673,-396,272,-476,124,798,-295
1.81575,470,-673,-397,272,-477,124,798,-294
1.8162501,471,-674,-397,272,-476,125,797,-294
1.81675,474,-677,-397,272,-476,125,797,-294
1.81725,475,-678,-397,272,-476,126,797,-293
1.8177501,476,-679,-397,272,-476,126,797,-294
1.8182501,476,-679,-397,272,-476,125,797,-294
1.81875,475,-679,-397,272,-477,126,797,-294
1.81925,475,-678,-397,272,-476,125,797,-294
1.8197501,474,-677,-397,271,-476,126,797,-293
1.82025,474,-677,-396,271,-476,126,797,-293
1.82075,474,-677,-397,272,-476,126,797,-293
1.8212501,474,-677,-397,272,-477,125,797,-294
1.82175,474,-677,-397,273,-477,125,797,-295
1.82225,474,-677,-397,272,-477,125,797,-294
1.8227501,473,-676,-397,273,-477,125,797,-294
1.82325,474,-677,-398,274,-478,125,797,-294
1.82375,474,-676,-398,273,-476,124,797,-294
1.82425,475,-677,-397,272,-476,125,796,-295
1.8247501,474,-676,-397,272,-476,125,797,-295
1.82525,475,-676,-397,272,-476,125,796,-295
1.82575,474,-677,-397,272,-476,125,797,-294
1.8262501,475,-677,-397,272,-476,125,796,-294
1.82675,474,-677,-397,272,-477,125,797,-294
1.82725,474,-677,-397,272,-476,125,797,-294
1.8277501,474,-677,-397,272,-476,125,797,-294
1.82825,474,-677,-398,272,-477,125,797,-294
1.82875,474,-676,-398,272,-476,125,797,-295
1.8292501,474,-676,-398,273,-476,125,797,-294
1.8297501,473,-677,-397,273,-476,125,797,-295
1.83025,474,-676,-397,273,-476,125,797,-294
1.83075,473,-676,-396,271,-476,125,797,-294
1.8312501,473,-677,-396,271,-476,125,796,-294
1.83175,474,-677,-395,271,-475,125,796,-294
1.83225,473,-677,-396,271,-476,124,796,-294
1.8327501,474,-677,-396,272,-475,125,796,-294
1.83325,474,-677,-397,272,-475,125,796,-294
1.83375,473,-676,-397,272,-476,126,797,-293
1.8342501,473,-676,-397,272,-475,126,797,-293
1.83475,473,-676,-397,272,-476,126,797,-293
1.83525,474,-676,-397,272,-476,126,797,-293
1.83575,474,-676,-398,273,-476,126,797,-293
1.8362501,474,-677,-398,273,-476,126,797,-293
1.83675,475,-677,-398,272,-476,126,797,-293
1.83725,475,-677,-398,272,-477,125,797,-294
1.8377501,475,-677,-398,272,-477,125,797,-294
1.83825,475,-677,-398,272,-477,125,797,-294
1.83875,475,-677,-397,271,-476,125,797,-294
1.8392501,475,-677,-396,271,-476,125,797,-294
1.83975,475,-677,-396,271,-476,125,797,-294
1.84025,474,-677,-396,271,-476,125,797,-294
1.84075,475,-676,-397,270,-476,125,797,-294
1.8412501,475,-676,-397,271,-476,125,796,-294
1.84175,474,-676,-397,271,-476,125,796,-293
1.84225,474,-676,-397,271,-476,125,796,-293
1.8427501,474,-676,-397,271,-476,125,796,-293
1.84325,474,-676,-397,272,-477,125,797,-294
1.84375,474,-676,-397,272,-477,125,797,-294
1.8442501,475,-676,-397,272,-477,125,797,-294
1.84475,475,-676,-397,273,-477,125,797,-294
1.84525,474,-676,-396,272,-477,125,797,-294
1.8457501,475,-677,-396,272,-477,125,796,-294
1.84625,474,-676,-396,272,-477,125,797,-294
1.84685,474,-676,-396,272,-477,125,797,-294
1.84735,474,-676,-396,273,-477,125,797,-294
1.8478501,474,-676,-396,273,-477,125,797,-294
1.84835,474,-676,-397,273,-476,125,797,-294
1.84885,474,-677,-397,273,-476,125,797,-294
1.8493501,474,-676,-397,273,-476,125,797,-294
1.84985,474,-676,-397,272,-475,125,797,-294
1.85035,473,-676,-397,271,-475,125,796,-294
1.85085,473,-675,-397,271,-475,125,797,-294
1.8513501,473,-675,-397,271,-476,125,796,-293
1.85185,473,-675,-397,271,-476,125,797,-293
1.85235,472,-675,-398,271,-476,125,796,-292
1.8528501,473,-675,-397,271,-476,125,796,-292
1.85335,474,-676,-397,271,-476,125,797,-292
1.85385,474,-676,-397,271,-476,125,796,-292
1.8543501,474,-676,-396,271,-476,125,797,-293
1.85485,475,-677,-396,271,-476,125,797,-293
1.85535,475,-677,-396,272,-476,125,796,-292
1.85585,475,-677,-397,271,-476,125,796,-292
1.8563501,475,-677,-398,272,-476,125,796,-292
1.85685,474,-676,-398,272,-476,125,796,-293
1.85735,474,-676,-397,272,-476,125,796,-295
1.8578501,473,-676,-397,271,-476,124,796,-297
1.85835,473,-675,-397,271,-476,124,796,-297
1.85885,474,-676,-397,272,-476,124,796,-297
1.8593501,474,-676,-397,271,-476,124,796,-296
1.85985,474,-676,-397,272,-476,124,797,-295
1.86035,474,-676,-397,271,-476,124,796,-295
1.8608501,474,-676,-397,272,-475,124,796,-295
1.86135,474,-676,-397,271,-476,125,796,-295
1.86185,473,-676,-397,271,-476,125,796,-295
1.86235,473,-676,-397,271,-476,126,796,-293
1.8628501,473,-676,-397,271,-476,126,797,-294
1.86335,474,-676,-397,271,-476,126,797,-293
1.86385,474,-677,-397,272,-476,125,796,-294
1.8643501,474,-677,-397,272,-476,125,797,-295
1.86485,474,-677,-398,273,-476,124,796,-294
1.86535,474,-676,-398,272,-476,124,796,-295
1.8658501,473,-676,-398,272,-476,124,796,-295
1.86635,473,-676,-398,272,-475,124,796,-295
1.86685,473,-675,-398,272,-476,124,796,-295
1.86735,474,-676,-398,271,-476,124,796,-294
1.8678501,474,-677,-398,271,-476,124,796,-294
1.86835,475,-678,-398,271,-476,125,796,-294
1.86885,476,-677,-396,270,-475,124,796,-294
1.8693501,475,-678,-395,270,-476,125,796,-293
1.86985,474,-677,-395,271,-475,125,797,-293
1.87035,474,-677,-396,271,-476,125,797,-293
1.8708501,473,-676,-396,272,-476,125,797,-293
1.87135,473,-675,-397,272,-476,125,796,-293
1.87185,473,-675,-397,272,-476,125,797,-293
1.8723501,472,-675,-397,272,-476,125,797,-292
1.8728501,473,-675,-397,272,-476,125,797,-293
1.87335,473,-675,-397,272,-476,125,796,-293
1.87385,474,-675,-397,272,-476,125,797,-293
1.8743501,474,-676,-397,272,-476,125,797,-293
1.87485,474,-676,-397,271,-476,125,796,-293
1.87535,475,-676,-397,272,-476,125,797,-294
1.8758501,474,-676,-397,271,-476,125,796,-294
1.87635,475,-676,-396,272,-476,125,797,-295
1.87685,475,-677,-397,271,-476,125,797,-295
1.8773501,475,-677,-397,272,-476,125,797,-294
1.87785,474,-676,-397,272,-477,125,797,-294
1.87835,474,-676,-397,272,-477,125,796,-295
1.87885,474,-676,-397,272,-476,125,796,-295
1.8793501,474,-676,-397,272,-476,125,797,-295
1.87985,474,-676,-397,272,-476,125,796,-295
1.88035,474,-676,-397,272,-476,124,796,-295
1.8808501,474,-676,-397,272,-476,125,796,-294
1.88135,474,-676,-398,272,-477,125,796,-295
1.88185,474,-676,-398,273,-476,124,795,-294
1.8823501,474,-677,-398,273,-476,125,795,-294
1.88285,474,-676,-398,273,-477,125,795,-294
1.88335,474,-676,-397,273,-476,125,794,-294
1.8838501,474,-676,-397,273,-476,125,794,-294
1.8843501,474,-676,-397,272,-476,125,794,-294
1.88485,474,-675,-397,273,-476,124,795,-294
1.88535,474,-676,-397,273,-476,125,796,-294
1.8858501,474,-676,-397,272,-476,125,796,-294
1.88635,474,-676,-396,271,-476,125,798,-294
1.88685,474,-676,-396,271,-476,125,798,-294
1.8873501,474,-676,-396,271,-475,125,798,-294
1.88785,473,-676,-397,271,-476,125,798,-294
1.88835,474,-676,-397,271,-476,125,797,-294
1.8888501,474,-676,-397,271,-476,125,797,-294
1.88935,474,-676,-397,272,-476,125,796,-294
1.88985,474,-677,-397,272,-476,124,797,-295
1.89045,474,-677,-397,271,-475,124,797,-295
1.8909501,474,-676,-397,271,-475,125,797,-295
1.89145,473,-675,-397,271,-475,125,797,-294
1.89195,472,-675,-397,271,-476,125,797,-294
1.8924501,472,-675,-397,271,-476,125,796,-293
1.89295,472,-675,-397,271,-475,125,796,-294
1.89345,472,-675,-397,271,-475,125,797,-293
1.89395,473,-675,-397,271,-476,125,797,-294
1.8944501,474,-675,-397,271,-476,125,797,-294
1.89495,475,-677,-397,271,-476,125,797,-294
1.89545,475,-677,-397,272,-476,125,797,-294
1.8959501,475,-678,-396,271,-476,125,796,-293
1.89645,474,-677,-397,271,-476,125,796,-294
1.89695,474,-677,-397,271,-476,124,796,-294
1.8974501,474,-676,-397,271,-476,124,796,-294
1.89795,474,-676,-397,271,-476,124,796,-295
1.89845,473,-676,-397,271,-476,124,796,-294
1.89895,474,-677,-397,272,-476,124,797,-294
1.8994501,473,-676,-397,272,-476,125,797,-294
1.89995,474,-677,-397,271,-476,125,797,-294
1.90045,474,-676,-397,272,-477,124,797,-294
1.9009501,473,-676,-398,272,-476,125,798,-294
1.90145,473,-676,-398,272,-476,125,797,-294
1.90195,473,-675,-398,272,-476,125,797,-294
1.9024501,472,-675,-398,272,-476,125,797,-293
1.90295,473,-675,-398,271,-476,125,797,-294
1.90345,473,-675,-397,272,-476,125,797,-294
1.9039501,473,-674,-397,272,-476,125,797,-294
1.90445,473,-674,-396,272,-476,125,797,-294
1.90495,473,-674,-396,272,-476,126,797,-293
1.90545,473,-675,-397,272,-476,126,798,-293
1.9059501,473,-675,-397,272,-476,126,797,-293
1.90645,474,-676,-398,272,-476,125,797,-293
1.90695,475,-678,-398,273,-476,125,797,-293
1.9074501,476,-678,-397,272,-476,125,796,-293
1.90795,476,-678,-397,271,-476,125,796,-293
1.90845,476,-678,-397,270,-476,125,796,-293
1.9089501,475,-677,-397,270,-476,125,796,-294
1.90945,475,-677,-397,271,-476,125,796,-294
1.90995,475,-676,-397,271,-476,125,796,-294
1.91045,475,-677,-397,272,-476,124,797,-295
1.9109501,475,-677,-397,272,-476,124,797,-294
1.91145,475,-677,-397,271,-476,124,797,-295
1.91195,475,-677,-398,271,-476,125,796,-294
1.9124501,476,-677,-398,272,-476,124,796,-294
1.91295,476,-678,-398,272,-477,125,797,-294
1.91345,476,-678,-398,271,-476,124,797,-294
1.9139501,476,-677,-398,272,-476,124,797,-294
1.91445,475,-676,-398,272,-476,125,797,-295
1.91495,475,-676,-398,272,-476,125,797,-294
1.9154501,474,-676,-397,271,-476,125,797,-295
1.9159501,473,-676,-397,272,-476,125,798,-294
1.91645,473,-676,-396,272,-476,125,797,-294
1.91695,473,-676,-396,271,-476,125,797,-294
1.9174501,473,-676,-397,271,-476,125,796,-294
1.91795,474,-677,-397,271,-476,125,795,-294
1.91845,474,-677,-397,272,-476,125,796,-294
1.9189501,474,-677,-397,271,-476,125,797,-295
1.91945,475,-677,-398,271,-476,124,796,-295
1.91995,475,-677,-397,271,-476,124,797,-294
1.9204501,475,-677,-397,271,-476,124,796,-295
1.92095,475,-677,-397,271,-476,124,796,-295
1.92145,475,-677,-397,271,-476,124,797,-295
1.92195,474,-677,-396,272,-476,124,796,-294
1.9224501,473,-676,-397,272,-477,125,797,-294
1.92295,473,-676,-397,272,-477,125,797,-294
1.92345,474,-677,-397,272,-476,125,796,-294
1.9239501,474,-677,-397,271,-476,124,796,-294
1.92445,474,-677,-398,272,-476,125,797,-294
1.92495,474,-677,-397,272,-476,125,797,-294
1.9254501,474,-677,-397,272,-476,125,797,-294
1.92595,475,-676,-398,272,-476,125,796,-294
1.92645,474,-676,-397,272,-476,125,797,-294
1.9269501,474,-676,-397,272,-476,125,796,-294
1.9274501,474,-676,-397,272,-476,125,796,-294
1.92795,474,-676,-397,272,-476,124,797,-294
1.92845,474,-676,-397,271,-476,125,796,-294
1.9289501,474,-676,-397,271,-475,125,797,-294
1.92945,474,-676,-397,271,-476,125,797,-294
1.92995,474,-676,-397,272,-476,125,797,-294
1.9304501,474,-675,-397,272,-476,125,797,-294
1.93095,474,-676,-397,272,-476,125,796,-293
1.93145,474,-676,-398,272,-477,125,796,-293
1.9319501,474,-676,-398,273,-477,126,796,-293
1.93245,474,-676,-398,273,-477,125,796,-293
1.93295,474,-676,-398,273,-477,125,797,-293
1.93345,473,-675,-398,272,-476,125,797,-293
1.9340501,473,-675,-397,271,-476,126,796,-293
1.93455,472,-675,-397,271,-475,125,796,-294
1.93505,472,-674,-397,271,-476,125,797,-294
1.9355501,472,-674,-397,271,-476,125,796,-294
1.93605,472,-674,-398,271,-476,125,796,-294
1.93655,472,-674,-398,271,-477,125,797,-294
1.93705,472,-674,-398,272,-476,125,797,-294
1.9375501,472,-675,-399,272,-477,125,797,-294
1.93805,473,-675,-399,273,-477,125,797,-294
1.93855,475,-677,-399,273,-477,125,797,-294
1.9390501,475,-678,-399,274,-477,125,797,-294
1.93955,476,-678,-400,274,-477,125,796,-293
1.94005,475,-678,-400,274,-477,125,797,-294
1.9405501,475,-678,-399,273,-476,125,796,-294
1.94105,475,-677,-398,272,-476,125,796,-293
1.94155,474,-677,-397,272,-475,125,797,-294
1.94205,474,-677,-396,271,-475,125,796,-293
1.9425501,474,-677,-395,270,-475,125,796,-294
1.94305,474,-677,-395,269,-475,125,796,-294
1.94355,475,-677,-395,270,-476,125,796,-294
1.9440501,475,-677,-396,270,-476,125,796,-294
1.94455,475,-677,-396,271,-475,125,797,-294
1.94505,475,-677,-397,271,-476,125,796,-294
1.9455501,474,-676,-397,272,-476,125,797,-294
1.94605,474,-676,-398,272,-476,125,797,-294
1.94655,474,-676,-398,272,-476,125,796,-294
1.9470501,474,-676,-397,271,-476,125,796,-294
1.94755,474,-676,-397,271,-476,125,796,-294
1.94805,474,-676,-397,271,-476,125,796,-294
1.94855,474,-677,-397,270,-475,124,796,-294
1.9490501,474,-676,-397,270,-475,125,797,-294
1.94955,474,-677,-397,270,-475,124,797,-294
1.95005,475,-677,-397,270,-475,125,796,-294
1.9505501,475,-677,-397,270,-475,125,797,-294
1.95105,474,-677,-397,270,-475,125,796,-294
1.95155,474,-676,-397,271,-476,125,797,-294
1.9520501,473,-676,-397,272,-475,125,796,-294
1.95255,474,-676,-397,273,-476,125,796,-294
1.95305,474,-677,-398,272,-475,125,796,-294
1.95355,474,-677,-397,272,-475,125,796,-294
1.9540501,475,-677,-397,272,-475,124,796,-295
1.95455,475,-677,-397,272,-475,125,795,-294
1.95505,474,-677,-398,272,-475,125,796,-294
1.9555501,474,-676,-398,272,-476,124,796,-294
1.95605,474,-676,-398,272,-476,125,796,-294
1.95655,474,-676,-397,272,-476,125,797,-294
1.9570501,474,-676,-398,272,-476,125,796,-294
1.95755,474,-676,-397,272,-476,125,797,-294
1.95805,474,-676,-397,272,-476,125,797,-294
1.9585501,474,-676,-398,271,-476,125,797,-293
1.95905,474,-676,-398,271,-475,125,797,-294
1.95955,474,-677,-398,271,-475,125,797,-294
1.96005,474,-677,-398,271,-476,125,797,-294
1.9605501,474,-676,-397,272,-475,125,796,-294
1.96105,473,-676,-398,271,-475,124,796,-294
1.96155,473,-676,-398,272,-476,124,797,-294
1.9620501,473,-676,-398,272,-476,124,797,-293
1.96255,473,-676,-397,272,-475,125,796,-294
1.96305,474,-677,-397,272,-476,124,797,-294
1.9635501,475,-677,-397,272,-476,124,797,-294
1.96405,475,-677,-397,272,-476,124,797,-295
1.96455,475,-677,-397,273,-475,124,797,-295
1.96505,474,-677,-398,272,-475,124,796,-295
1.9655501,475,-677,-398,272,-475,124,796,-295
1.96605,474,-676,-397,272,-475,124,796,-295
1.96655,473,-675,-398,272,-475,124,796,-294
1.9670501,474,-675,-397,271,-475,124,795,-295
1.96755,473,-676,-397,271,-475,125,796,-294
1.96805,473,-675,-396,271,-475,125,795,-294
1.9685501,473,-675,-397,271,-476,126,797,-293
1.96905,473,-675,-397,272,-476,125,797,-294
1.96955,473,-676,-398,272,-476,125,798,-294
1.9700501,474,-676,-397,272,-476,125,797,-294
1.9705501,474,-676,-398,271,-476,124,797,-294
1.97105,475,-676,-398,271,-476,124,797,-294
1.97155,474,-677,-397,271,-476,124,797,-294
1.9720501,474,-677,-398,271,-476,124,796,-293
1.97255,474,-677,-398,271,-476,124,797,-293
1.97305,475,-676,-398,271,-476,124,796,-293
1.9735501,474,-676,-398,271,-476,124,796,-293
1.97405,474,-676,-397,271,-476,125,797,-293
1.97455,474,-676,-397,271,-476,126,796,-293
1.9750501,474,-676,-397,271,-475,126,796,-292
1.97555,474,-676,-397,272,-476,126,796,-292
1.97605,474,-676,-397,272,-476,125,797,-293
1.97655,474,-676,-397,272,-476,125,796,-293
1.9770501,474,-676,-397,271,-476,124,797,-293
1.97755,474,-677,-397,271,-476,125,797,-293
1.97815,474,-677,-397,271,-476,125,796,-293
1.9786501,475,-678,-397,272,-476,125,796,-294
1.97915,475,-678,-397,272,-476,125,796,-296
1.97965,475,-678,-397,272,-476,125,795,-296
1.98015,475,-678,-397,272,-476,125,796,-295
1.9806501,474,-678,-397,272,-476,125,796,-295
1.98115,474,-677,-397,273,-475,125,796,-295
1.98165,474,-677,-398,272,-476,125,796,-294
1.9821501,473,-676,-398,272,-476,125,796,-294
1.98265,473,-676,-398,272,-476,125,796,-294
1.98315,473,-676,-398,272,-475,125,797,-294
1.9836501,474,-676,-397,272,-476,125,797,-294
1.98415,474,-676,-397,271,-476,124,798,-295
1.98465,474,-676,-397,271,-476,125,797,-295
1.98515,474,-677,-397,271,-475,124,797,-295
1.9856501,474,-677,-397,271,-476,124,797,-295
1.98615,474,-676,-397,272,-476,124,797,-295
1.98665,474,-677,-397,271,-476,124,797,-295
1.9871501,474,-676,-398,272,-476,125,797,-294
1.98765,474,-676,-398,272,-476,125,797,-294
1.98815,474,-676,-398,272,-476,125,796,-294
1.9886501,473,-675,-399,272,-476,125,797,-294
1.98915,474,-675,-399,272,-476,125,796,-294
1.98965,474,-675,-399,272,-476,125,797,-295
1.9901501,474,-675,-398,271,-476,124,797,-295
1.99065,474,-675,-398,271,-476,125,797,-294
1.99115,474,-675,-397,272,-476,125,797,-294
1.99165,474,-676,-397,271,-476,125,796,-294
1.9921501,474,-676,-398,271,-476,125,796,-294
1.99265,474,-677,-398,271,-476,125,796,-293
1.99315,474,-677,-397,271,-475,125,797,-294
1.9936501,474,-676,-397,271,-476,125,796,-294
1.99415,475,-677,-396,271,-476,124,796,-295
1.99465,474,-677,-396,270,-475,124,796,-294
1.9951501,474,-677,-397,271,-475,124,796,-294
1.99565,474,-677,-397,271,-476,125,796,-294
1.99615,473,-676,-397,271,-476,125,796,-295
1.99665,474,-676,-397,272,-476,125,796,-294
1.9971501,473,-675,-397,272,-476,125,796,-294
1.99765,474,-676,-397,273,-476,125,796,-294
1.99815,474,-676,-397,272,-476,125,797,-294
1.9986501,474,-675,-398,272,-476,125,797,-294
1.99915,474,-675,-398,273,-476,125,797,-294
1.99965,474,-675,-398,273,-476,125,797,-294
2.00015,474,-676,-398,273,-476,125,797,-294
2.00065,475,-676,-398,273,-476,124,796,-294
2.0011501,474,-676,-398,272,-476,124,797,-295
2.00165,474,-676,-398,272,-476,124,797,-295
2.00215,474,-676,-399,272,-476,124,796,-294
2.00265,474,-676,-398,272,-475,124,796,-295
2.00315,474,-676,-397,271,-476,124,797,-294
2.00365,474,-676,-397,271,-476,124,796,-295
2.0041502,474,-676,-397,270,-476,124,796,-294
2.00465,474,-676,-397,270,-475,125,796,-294
2.00515,474,-676,-397,270,-475,126,796,-293
2.00565,474,-676,-397,271,-475,126,796,-293
2.00615,474,-676,-397,271,-475,126,796,-293
2.00665,474,-676,-398,271,-475,125,796,-294
2.00715,474,-676,-398,271,-476,125,797,-294
2.0076501,474,-676,-399,272,-476,125,796,-294
2.00815,474,-676,-398,272,-476,125,796,-294
2.00865,474,-677,-399,272,-476,125,796,-294
2.00915,474,-677,-399,272,-475,124,796,-295
2.00965,474,-677,-398,272,-476,124,796,-295
2.01015,474,-676,-398,272,-476,124,796,-295
2.01065,474,-676,-398,272,-476,124,796,-295
2.0111501,474,-676,-397,271,-476,124,797,-294
2.01165,474,-676,-396,271,-476,124,796,-294
2.01215,473,-676,-396,270,-476,124,796,-293
2.01265,474,-676,-396,270,-476,125,796,-294
2.01315,475,-676,-397,271,-476,124,796,-294
2.01365,475,-676,-397,271,-476,125,797,-294
2.0141501,475,-676,-397,271,-476,125,797,-294
2.01465,475,-676,-397,272,-476,124,796,-294
2.01515,475,-676,-397,272,-475,124,796,-295
2.01565,475,-676,-397,272,-475,124,796,-295
2.01615,474,-675,-397,271,-475,124,796,-295
2.01665,473,-675,-397,271,-475,124,796,-295
2.01715,473,-674,-397,271,-475,124,796,-295
2.0176501,472,-674,-397,271,-475,124,796,-294
2.01815,472,-675,-397,271,-476,124,797,-294
2.01865,473,-675,-397,271,-476,124,796,-294
2.01915,473,-675,-397,272,-475,124,796,-294
2.01965,474,-676,-397,272,-475,124,797,-294
2.02015,475,-677,-397,271,-475,124,796,-294
2.0206501,475,-677,-397,271,-475,125,796,-294
2.02115,474,-677,-398,271,-476,125,796,-294
2.02175,473,-677,-398,271,-475,125,796,-294
2.02225,473,-676,-398,272,-476,125,796,-293
2.0227501,473,-676,-398,272,-476,125,796,-293
2.02325,473,-676,-398,272,-476,125,796,-294
2.02375,474,-677,-397,272,-475,124,796,-294
2.02425,475,-677,-398,272,-475,125,796,-294
2.02475,475,-677,-397,272,-476,124,796,-294
2.02525,475,-677,-398,272,-476,124,796,-294
2.02575,474,-677,-398,272,-476,124,796,-294
2.0262501,475,-677,-398,272,-475,124,796,-295
2.02675,475,-677,-398,271,-475,124,796,-294
2.02725,475,-677,-398,271,-475,124,796,-294
2.02775,474,-676,-397,271,-476,124,796,-294
2.02825,474,-676,-397,271,-476,124,796,-294
2.02875,474,-675,-397,271,-476,124,796,-294
2.0292501,474,-675,-397,271,-475,124,796,-295
2.02975,473,-675,-397,271,-476,125,796,-294
2.03025,473,-675,-397,272,-475,125,796,-294
2.03075,473,-675,-397,272,-476,124,797,-294
2.03125,473,-675,-397,271,-476,125,797,-295
2.03175,473,-675,-398,271,-475,124,797,-294
2.03225,474,-676,-398,271,-475,124,797,-294
2.0327501,475,-677,-398,271,-476,125,797,-293
2.03325,475,-677,-398,272,-475,125,796,-293
2.03375,475,-678,-398,272,-475,125,796,-294
2.03425,475,-677,-398,272,-476,125,796,-294
2.03475,475,-677,-398,272,-476,124,796,-294
2.03525,474,-676,-398,272,-476,125,796,-294
2.0357502,474,-676,-398,272,-475,124,797,-294
2.03625,474,-677,-398,272,-476,125,796,-294
2.03675,474,-677,-397,271,-476,125,796,-294
2.03725,474,-677,-397,270,-476,124,796,-294
2.03775,474,-677,-397,270,-476,125,796,-294
2.03825,474,-677,-397,270,-476,125,796,-294
2.03875,474,-677,-398,271,-476,124,797,-294
2.0392501,473,-676,-398,271,-476,125,796,-294
2.03975,473,-676,-398,272,-476,124,796,-294
2.04025,474,-676,-398,272,-476,125,796,-294
2.04075,474,-677,-397,271,-476,125,796,-294
2.04125,474,-676,-397,272,-476,124,796,-294
2.04175,473,-675,-397,271,-476,125,796,-294
2.0422502,473,-675,-398,271,-476,124,797,-294
2.0427501,473,-675,-398,271,-476,124,796,-294
2.04325,473,-675,-398,272,-476,125,796,-294
2.04375,473,-675,-398,272,-476,124,796,-294
2.04425,474,-676,-398,271,-476,124,796,-295
2.04475,475,-677,-397,271,-475,125,796,-295
2.04525,475,-677,-397,271,-475,125,795,-294
2.0457501,475,-677,-398,271,-475,124,794,-294
2.04625,475,-677,-397,271,-476,125,795,-294
2.04675,475,-677,-398,271,-475,124,795,-294
2.04725,475,-677,-398,272,-476,125,795,-294
2.04775,475,-677,-397,271,-475,124,796,-294
2.04825,475,-677,-397,271,-475,124,796,-294
2.04875,475,-677,-397,271,-476,125,797,-294
2.0492501,475,-677,-397,271,-476,124,798,-294
2.04975,475,-677,-397,271,-476,124,798,-294
2.05025,474,-676,-398,271,-476,124,797,-294
2.05075,474,-677,-397,271,-476,125,797,-294
2.05125,474,-677,-397,272,-476,125,797,-294
2.05175,474,-676,-398,272,-476,125,796,-294
2.0522501,473,-676,-398,271,-476,125,796,-293
2.05275,474,-675,-398,271,-475,125,796,-293
2.05325,474,-675,-397,270,-475,125,796,-292
2.05375,474,-676,-397,271,-476,126,796,-293
2.05425,474,-676,-397,271,-475,126,796,-293
2.05475,473,-675,-397,271,-475,126,796,-293
2.05525,472,-675,-397,271,-475,126,796,-294
2.0557501,473,-675,-397,271,-475,125,796,-294
2.05625,473,-676,-397,271,-476,124,796,-294
2.05675,474,-676,-397,271,-475,124,796,-295
2.05725,474,-677,-397,271,-475,124,796,-294
2.05775,474,-678,-398,271,-475,124,797,-294
2.05825,475,-678,-398,271,-476,124,797,-295
2.0587502,475,-678,-398,271,-475,124,797,-295
2.05925,475,-678,-398,270,-475,124,797,-295
2.05975,475,-677,-397,270,-475,124,797,-295
2.06025,474,-677,-398,270,-476,124,797,-294
2.06075,474,-676,-398,271,-476,125,796,-294
2.06125,473,-675,-398,271,-476,125,797,-294
2.06175,473,-675,-399,271,-476,126,796,-293
2.0622501,473,-675,-398,271,-476,126,796,-293
2.06275,473,-675,-397,270,-475,126,796,-293
2.06325,473,-675,-397,271,-475,125,796,-294
2.06375,473,-675,-397,271,-476,125,796,-294
2.06425,474,-675,-397,272,-476,124,796,-295
2.06475,474,-675,-398,272,-475,124,796,-294
2.06525,473,-675,-398,272,-475,124,796,-294
2.06585,474,-676,-398,272,-476,125,797,-295
2.06635,475,-677,-398,272,-475,124,797,-294
2.06685,476,-677,-398,272,-476,125,796,-294
2.0673501,476,-678,-398,272,-476,124,797,-293
2.06785,475,-678,-398,272,-475,125,796,-293
2.06835,475,-677,-397,271,-475,125,796,-293
2.06885,475,-677,-397,271,-475,125,795,-293
2.06935,475,-677,-397,271,-475,125,796,-293
2.06985,474,-677,-397,271,-475,125,796,-292
2.07035,475,-676,-397,271,-475,125,796,-292
2.0708501,474,-676,-397,271,-475,125,796,-292
2.07135,474,-676,-397,271,-475,125,796,-293
2.07185,473,-676,-397,271,-475,125,796,-293
2.07235,474,-676,-398,272,-474,124,796,-293
2.07285,474,-677,-398,271,-475,125,796,-294
2.07335,475,-676,-398,271,-475,124,797,-296
2.0738502,475,-676,-397,271,-475,124,797,-297
2.07435,475,-676,-397,271,-475,124,797,-297
2.07485,475,-676,-397,271,-475,125,797,-296
2.07535,475,-676,-397,271,-475,125,796,-295
2.07585,474,-676,-397,271,-476,124,796,-295
2.07635,474,-676,-398,271,-475,125,796,-295
2.07685,474,-676,-398,271,-476,124,797,-295
2.0773501,474,-675,-398,272,-476,125,797,-295
2.07785,474,-676,-398,272,-476,125,796,-295
2.07835,474,-676,-398,272,-476,125,797,-295
2.07885,474,-676,-398,272,-476,125,797,-295
2.07935,474,-677,-398,272,-476,125,796,-295
2.07985,475,-677,-398,271,-476,125,796,-294
2.08035,475,-677,-399,271,-476,125,796,-294
2.0808501,475,-676,-398,271,-476,125,796,-294
2.08135,474,-675,-398,271,-475,125,796,-294
2.08185,473,-676,-398,270,-475,125,796,-294
2.08235,473,-675,-397,271,-475,124,796,-294
2.08285,473,-676,-398,271,-475,125,796,-294
2.08335,473,-676,-398,272,-476,125,797,-294
2.0838501,474,-676,-397,271,-476,124,797,-294
2.08435,474,-676,-397,271,-476,124,796,-295
2.08485,474,-676,-397,271,-476,125,796,-294
2.08535,474,-676,-398,272,-475,125,796,-295
2.08585,474,-676,-398,271,-476,124,796,-294
2.08635,474,-676,-398,272,-475,124,796,-295
2.08685,474,-676,-398,272,-476,124,796,-295
2.0873501,474,-676,-397,272,-475,124,796,-295
2.08785,474,-676,-397,272,-475,124,796,-295
2.08835,474,-676,-397,272,-476,124,796,-295
2.08885,473,-676,-397,272,-476,124,796,-295
2.08935,474,-676,-397,272,-476,124,796,-295
2.08985,473,-676,-397,272,-476,124,796,-295
2.0903502,474,-676,-397,271,-476,124,796,-295
2.09085,474,-676,-398,271,-475,125,797,-294
2.09135,474,-676,-398,271,-476,125,796,-294
2.09185,474,-676,-398,271,-476,124,796,-294
2.09235,474,-676,-398,271,-476,124,796,-294
2.09285,474,-676,-398,271,-476,125,796,-294
2.09335,474,-676,-398,272,-475,124,796,-295
2.0938501,475,-676,-397,272,-476,124,796,-295
2.09435,475,-676,-397,272,-476,124,797,-295
2.09485,474,-676,-398,272,-476,124,796,-295
2.09535,474,-676,-397,272,-476,124,796,-295
2.09585,474,-676,-398,272,-476,125,796,-294
2.09635,474,-676,-399,272,-476,125,796,-294
2.0968502,474,-676,-399,272,-475,125,796,-295
2.0973501,474,-676,-398,271,-475,124,796,-295
2.09785,474,-676,-398,270,-475,125,796,-295
2.09835,474,-676,-398,270,-475,124,797,-295
2.09885,474,-676,-398,271,-475,125,797,-294
2.09935,474,-676,-398,270,-475,125,796,-294
2.09985,475,-676,-398,271,-476,124,797,-294
2.1003501,474,-676,-398,271,-476,125,796,-294
2.10085,475,-676,-398,271,-476,124,796,-294
2.10135,474,-676,-398,272,-476,125,796,-294
2.10185,474,-677,-399,271,-475,125,796,-293
2.10235,474,-676,-398,271,-476,125,796,-293
2.10285,474,-677,-397,271,-475,125,796,-293
2.10335,475,-676,-397,271,-476,125,796,-293
2.1038501,475,-676,-397,270,-475,125,796,-294
2.10435,475,-676,-397,270,-475,125,796,-294
2.10485,474,-676,-398,271,-476,125,796,-294
2.10535,474,-676,-398,271,-475,125,796,-294
2.10585,474,-676,-397,270,-475,125,796,-294
2.10635,474,-676,-397,270,-475,124,796,-294
2.1068501,474,-676,-396,269,-474,125,795,-294
2.10735,474,-676,-396,270,-475,124,795,-294
2.10785,474,-676,-397,270,-475,125,795,-294
2.10835,474,-676,-397,271,-475,124,796,-295
2.10885,473,-676,-397,270,-474,125,795,-294
2.10945,473,-676,-397,271,-475,124,795,-294
2.10995,473,-676,-398,271,-476,125,796,-294
2.11045,473,-676,-397,271,-476,124,797,-294
2.11095,473,-676,-397,271,-475,124,797,-294
2.11145,474,-677,-398,271,-475,124,797,-294
2.11195,473,-677,-398,271,-475,124,796,-294
2.1124501,474,-677,-398,271,-475,124,796,-294
2.11295,474,-676,-398,271,-475,125,795,-294
2.11345,474,-677,-398,271,-476,125,796,-294
2.11395,474,-677,-398,271,-475,125,795,-293
2.11445,475,-677,-398,272,-475,125,796,-293
2.11495,474,-677,-398,271,-475,125,796,-293
2.1154501,475,-676,-399,271,-475,125,797,-294
2.11595,475,-677,-398,271,-476,125,797,-294
2.11645,475,-677,-397,271,-476,125,797,-294
2.11695,475,-676,-397,271,-475,125,796,-294
2.11745,474,-676,-397,271,-476,125,796,-295
2.11795,474,-675,-397,271,-475,125,796,-295
2.11845,474,-675,-398,271,-475,124,796,-295
2.1189501,474,-676,-398,271,-475,125,796,-295
2.11945,474,-676,-398,271,-475,124,796,-295
2.11995,474,-676,-397,271,-475,124,796,-295
2.12045,475,-676,-397,271,-475,124,796,-295
2.12095,475,-676,-397,271,-475,124,796,-295
2.12145,474,-676,-397,271,-475,124,796,-294
2.1219501,474,-676,-398,272,-476,124,796,-294
2.12245,474,-676,-398,271,-476,125,796,-294
2.12295,474,-677,-398,271,-476,124,796,-294
2.12345,475,-676,-398,271,-476,124,796,-294
2.12395,475,-677,-398,271,-476,125,796,-294
2.12445,475,-677,-398,271,-476,125,796,-294
2.12495,474,-678,-399,271,-476,125,796,-294
2.1254501,475,-678,-398,272,-476,125,796,-294
2.12595,475,-678,-398,271,-475,125,797,-294
2.12645,475,-678,-398,271,-476,125,796,-294
2.12695,475,-678,-397,270,-475,125,796,-294
2.12745,475,-678,-397,270,-475,125,796,-294
2.12795,474,-678,-397,269,-475,125,796,-294
2.1284502,473,-677,-397,270,-475,125,796,-294
2.12895,473,-676,-397,270,-475,124,796,-294
2.12945,472,-676,-397,270,-476,124,796,-294
2.12995,472,-675,-397,270,-476,124,796,-295
2.13045,472,-675,-397,270,-475,124,796,-295
2.13095,471,-674,-397,271,-475,125,796,-295
2.13145,471,-674,-398,272,-476,124,796,-294
2.1319501,471,-674,-399,273,-476,125,796,-294
2.13245,472,-674,-398,273,-476,125,797,-294
2.13295,473,-675,-398,272,-476,125,796,-294
2.13345,474,-676,-398,271,-476,125,796,-294
2.13395,475,-676,-397,271,-476,125,797,-294
2.13445,475,-677,-398,271,-476,125,796,-293
2.13495,476,-678,-398,271,-476,125,796,-294
2.1354501,476,-678,-398,271,-476,125,796,-293
2.13595,475,-678,-398,271,-476,125,796,-294
2.13645,475,-677,-398,271,-476,126,796,-293
2.13695,474,-676,-398,271,-476,125,796,-294
2.13745,474,-675,-398,271,-475,125,796,-294
2.13795,473,-675,-397,271,-476,125,796,-294
2.1384501,473,-675,-397,271,-475,124,796,-295
2.13895,474,-675,-397,271,-475,125,796,-295
2.13945,474,-676,-398,271,-475,124,796,-294
2.13995,474,-676,-397,271,-475,124,796,-295
2.14045,475,-677,-397,271,-475,125,795,-295
2.14095,476,-677,-398,271,-474,124,796,-294
2.14145,475,-677,-397,271,-475,125,796,-295
2.1419501,475,-677,-398,271,-475,124,795,-294
2.14245,476,-677,-398,271,-475,124,795,-294
2.14295,475,-677,-397,271,-476,124,796,-294
2.14345,475,-676,-398,270,-475,124,796,-295
2.14395,475,-676,-398,271,-475,124,796,-294
2.14445,475,-676,-398,271,-475,125,796,-294
2.1449502,474,-676,-398,271,-476,125,796,-294
2.14545,474,-676,-398,271,-476,125,796,-293
2.14595,474,-676,-398,271,-476,126,796,-293
2.14645,474,-676,-397,271,-475,126,796,-294
2.14695,474,-676,-398,271,-476,125,795,-294
2.14745,474,-676,-397,271,-475,125,796,-294
2.14795,474,-676,-397,271,-475,125,796,-294
2.1484501,474,-676,-397,271,-475,125,796,-294
2.14895,475,-676,-398,271,-476,124,796,-294
2.14945,475,-677,-398,272,-476,124,797,-294
2.14995,475,-676,-398,271,-475,124,796,-295
2.15045,475,-677,-398,271,-475,125,796,-294
2.15095,475,-676,-398,271,-475,124,796,-294
2.1514502,474,-676,-398,271,-475,125,796,-294
2.1519501,475,-677,-398,270,-475,124,796,-294
2.15245,474,-677,-398,270,-475,124,797,-294
2.15295,475,-677,-398,270,-475,125,796,-294
2.1535501,475,-676,-397,270,-475,124,797,-294
2.15405,475,-676,-397,271,-475,125,796,-294
2.15455,474,-676,-397,270,-475,125,796,-294
2.15505,474,-676,-397,270,-475,126,796,-294
2.15555,474,-676,-398,271,-475,125,796,-294
2.15605,474,-676,-398,271,-475,125,796,-294
2.15655,474,-677,-398,271,-475,125,796,-295
2.1570501,474,-677,-398,271,-475,124,796,-295
2.15755,474,-677,-398,271,-475,124,796,-295
2.15805,474,-677,-399,272,-475,125,796,-295
2.15855,474,-677,-398,272,-475,124,796,-295
2.15905,474,-676,-398,271,-475,124,796,-295
2.15955,474,-676,-398,270,-475,125,796,-295
2.1600502,473,-676,-398,270,-475,124,796,-295
2.16055,473,-675,-397,271,-476,124,796,-295
2.16105,473,-675,-398,271,-476,125,796,-294
2.16155,473,-675,-398,271,-475,124,796,-294
2.16205,473,-676,-398,271,-476,125,796,-293
2.16255,473,-676,-398,271,-475,125,796,-293
2.16305,473,-676,-398,271,-475,125,796,-293
2.1635501,473,-675,-398,271,-475,125,796,-294
2.16405,473,-675,-397,271,-476,125,796,-294
2.16455,474,-675,-398,271,-476,125,797,-295
2.16505,473,-676,-398,271,-475,124,796,-295
2.16555,474,-676,-398,270,-475,124,796,-295
2.16605,474,-676,-397,271,-475,124,796,-295
2.16655,475,-676,-397,271,-476,124,797,-294
2.1670501,475,-677,-398,271,-475,124,796,-295
2.16755,475,-677,-398,271,-475,125,796,-295
2.16805,475,-677,-398,271,-475,124,796,-295
2.16855,475,-677,-398,271,-475,125,796,-295
2.16905,476,-677,-398,271,-475,124,796,-295
2.16955,475,-677,-397,271,-476,124,796,-294
2.1700501,475,-677,-398,271,-476,124,796,-295
2.17055,475,-677,-398,271,-476,124,796,-294
2.17105,475,-677,-398,270,-475,124,796,-294
2.17155,475,-677,-398,271,-476,125,796,-294
2.17205,475,-677,-397,270,-475,124,795,-294
2.17255,475,-676,-398,270,-475,125,795,-294
2.17305,474,-676,-398,270,-476,125,795,-294
2.1735501,474,-676,-398,270,-475,125,795,-294
2.17405,474,-675,-398,270,-475,125,796,-294
2.17455,473,-675,-398,271,-475,125,796,-294
2.17505,473,-675,-398,271,-475,124,796,-294
2.17555,473,-675,-398,271,-475,125,795,-294
2.17605,473,-675,-398,271,-475,125,796,-294
2.1765501,474,-676,-398,271,-475,125,796,-294
2.17705,475,-676,-398,271,-475,125,796,-294
2.17755,474,-676,-398,271,-475,125,797,-294
2.17805,474,-676,-398,270,-475,125,797,-293
2.17855,474,-677,-398,270,-475,124,797,-293
2.17905,474,-677,-398,270,-475,125,796,-293
2.17955,474,-677,-398,271,-476,125,796,-294
2.1800501,474,-677,-398,271,-475,124,796,-293
2.18055,474,-676,-398,271,-476,125,797,-294
2.18105,474,-676,-398,271,-475,125,797,-293
2.18155,473,-676,-399,271,-476,125,796,-293
2.18205,473,-676,-398,271,-475,124,796,-293
2.18255,474,-676,-398,271,-475,125,796,-293
2.1830502,474,-676,-398,272,-475,125,796,-293
2.1835501,474,-676,-398,271,-475,125,796,-294
2.18405,475,-676,-398,272,-476,124,797,-295
2.18455,474,-677,-397,271,-475,124,796,-297
2.18505,474,-677,-397,270,-475,124,796,-298
2.18555,475,-677,-397,270,-476,124,796,-297
2.18605,475,-677,-397,270,-476,124,796,-296
2.1865501,474,-676,-398,270,-476,125,796,-295
2.18705,475,-676,-398,271,-476,125,796,-295
2.18755,474,-676,-398,271,-475,125,796,-294
2.18805,474,-677,-398,271,-476,126,796,-294
2.18855,474,-677,-398,272,-476,125,796,-294
2.18905,474,-676,-398,271,-475,125,796,-295
2.18955,474,-676,-398,271,-475,125,795,-295
2.1900501,474,-676,-398,271,-475,124,795,-295
2.19055,474,-676,-398,271,-475,124,795,-295
2.19105,474,-676,-398,271,-475,124,796,-295
2.19155,473,-676,-398,271,-476,124,797,-295
2.19205,474,-676,-398,270,-475,124,797,-295
2.19255,474,-676,-397,271,-475,124,797,-295
2.1930501,474,-677,-397,270,-475,124,796,-295
2.19355,474,-676,-397,270,-475,124,796,-295
2.19405,474,-676,-398,271,-475,124,796,-296
2.19455,474,-676,-398,271,-476,124,796,-296
2.19505,474,-676,-398,271,-476,124,796,-295
2.19555,474,-677,-398,270,-475,125,796,-294
2.19605,474,-677,-397,269,-475,125,796,-294
2.1965501,475,-678,-397,269,-476,125,796,-294
2.19715,475,-677,-397,270,-474,125,796,-294
2.19765,475,-678,-397,270,-475,125,796,-294
2.19815,475,-677,-398,270,-475,126,796,-293
2.1986501,474,-677,-397,270,-475,126,796,-293
2.19915,474,-676,-397,270,-475,126,797,-293
2.19965,473,-675,-398,271,-475,126,796,-294
2.20015,473,-676,-398,271,-475,125,796,-294
2.20065,473,-675,-398,271,-476,125,796,-294
2.20115,472,-674,-398,271,-476,124,797,-294
2.2016501,472,-674,-399,271,-476,124,796,-294
2.20215,472,-675,-398,271,-476,124,796,-294
2.20265,472,-675,-398,271,-475,124,796,-294
2.20315,473,-675,-398,270,-475,125,796,-294
2.20365,474,-676,-398,270,-476,125,797,-294
2.20415,474,-676,-398,270,-475,125,797,-294
2.20465,475,-677,-397,270,-476,125,796,-294
2.2051501,476,-677,-398,270,-475,125,796,-294
2.20565,476,-677,-397,270,-476,126,796,-294
2.20615,475,-677,-397,270,-475,125,796,-294
2.20665,475,-677,-398,270,-476,125,796,-294
2.20715,475,-677,-397,270,-476,125,796,-294
2.20765,475,-678,-398,270,-476,125,796,-294
2.2081501,476,-678,-397,270,-476,125,796,-294
2.20865,475,-678,-397,271,-475,125,796,-295
2.20915,475,-678,-398,270,-475,124,797,-295
2.20965,474,-677,-398,271,-475,125,796,-294
2.21015,474,-677,-398,270,-475,124,796,-294
2.21065,474,-677,-398,270,-475,124,796,-294
2.21115,474,-676,-397,270,-475,125,796,-294
2.2116501,473,-676,-398,270,-475,125,796,-294
2.21215,473,-675,-398,270,-475,125,796,-295
2.21265,473,-675,-398,270,-475,124,796,-295
2.21315,473,-675,-398,270,-475,125,796,-294
2.21365,473,-675,-398,271,-476,125,796,-295
2.21415,473,-675,-398,271,-475,125,796,-294
2.2146502,473,-675,-399,271,-476,126,796,-294
2.21515,474,-676,-398,271,-476,126,796,-293
2.21565,474,-677,-399,272,-475,125,796,-294
2.21615,475,-677,-399,272,-475,126,797,-293
2.21665,475,-677,-398,272,-476,126,796,-293
2.21715,474,-676,-398,271,-475,125,796,-293
2.21765,474,-676,-397,270,-475,125,796,-294
2.2181501,474,-675,-397,270,-475,125,796,-294
2.21865,474,-675,-396,269,-476,125,796,-294
2.21915,474,-676,-397,269,-475,125,796,-294
2.21965,474,-676,-397,270,-475,124,796,-295
2.22015,475,-677,-398,270,-475,125,796,-295
2.22065,475,-677,-398,270,-475,124,796,-295
2.22115,475,-677,-397,270,-475,124,796,-295
2.2216501,474,-677,-397,270,-475,124,796,-294
2.22215,474,-677,-397,270,-476,125,797,-293
2.22265,474,-677,-397,270,-475,125,797,-293
2.22315,474,-676,-397,271,-475,125,796,-293
2.22365,474,-676,-397,271,-475,125,796,-294
2.22415,474,-676,-397,270,-475,125,796,-294
2.2246501,474,-676,-397,270,-475,125,795,-295
2.22515,474,-677,-398,270,-475,125,795,-295
2.22565,475,-676,-398,270,-475,124,795,-295
2.22615,474,-677,-397,270,-476,124,796,-295
2.22665,474,-676,-398,271,-476,124,796,-295
2.22715,474,-676,-397,270,-476,124,796,-295
2.22765,474,-676,-398,270,-475,125,796,-295
2.2281501,474,-676,-397,270,-475,124,796,-294
2.22865,474,-676,-398,270,-475,125,796,-294
2.22915,474,-676,-397,270,-476,125,796,-294
2.22965,474,-677,-398,270,-475,125,796,-293
2.23015,474,-676,-397,270,-475,125,796,-294
2.23065,474,-676,-398,271,-475,125,796,-294
2.2311502,474,-676,-398,271,-476,125,796,-294
2.23165,473,-676,-398,270,-476,125,796,-293
2.23215,473,-676,-398,270,-475,125,796,-294
2.23265,474,-676,-398,271,-475,125,796,-294
2.23315,474,-676,-398,270,-475,125,796,-294
2.23365,474,-676,-397,270,-475,125,797,-295
2.23415,473,-675,-397,270,-475,125,796,-294
2.2346501,472,-674,-397,270,-475,125,796,-294
2.23515,472,-674,-397,270,-475,125,796,-294
2.23565,472,-675,-397,270,-475,125,796,-294
2.23615,474,-676,-397,270,-475,124,796,-294
2.23665,474,-677,-397,270,-475,125,796,-294
2.23715,475,-678,-397,270,-475,124,796,-294
2.2376502,476,-679,-397,270,-475,125,796,-295
2.2381501,477,-679,-397,270,-475,125,796,-294
2.23865,476,-680,-397,270,-475,124,796,-294
2.23915,475,-679,-398,270,-475,125,796,-294
2.23965,475,-678,-398,270,-475,124,796,-294
2.24015,473,-677,-398,270,-475,125,796,-294
2.24075,472,-675,-398,270,-475,125,796,-294
2.24125,471,-674,-398,270,-475,125,796,-294
2.24175,471,-675,-398,270,-475,124,796,-294
2.24225,472,-675,-397,270,-475,125,796,-294
2.24275,472,-675,-398,270,-475,125,796,-294
2.2432501,473,-674,-397,271,-475,125,796,-295
2.24375,473,-675,-398,271,-475,125,796,-294
2.24425,474,-676,-398,271,-475,125,796,-294
2.24475,476,-677,-398,271,-476,125,796,-294
2.24525,476,-678,-398,271,-475,125,796,-294
2.24575,477,-678,-398,270,-475,125,796,-294
2.2462502,476,-677,-397,270,-475,125,796,-294
2.24675,476,-676,-397,270,-475,124,796,-294
2.24725,475,-676,-397,269,-475,125,796,-294
2.24775,474,-676,-398,270,-475,124,796,-295
2.24825,474,-675,-398,270,-475,124,796,-295
2.24875,475,-675,-398,270,-475,124,796,-295
2.24925,474,-675,-398,270,-476,125,796,-294
2.2497501,475,-676,-398,271,-475,124,796,-294
2.25025,475,-677,-398,271,-476,124,796,-294
2.25075,476,-677,-398,270,-475,124,796,-294
2.25125,476,-677,-398,271,-475,124,796,-295
2.25175,475,-677,-399,271,-475,124,796,-295
2.25225,475,-677,-398,271,-475,124,796,-294
2.25275,475,-677,-398,271,-476,124,796,-295
2.2532501,475,-677,-398,271,-476,125,796,-294
2.25375,475,-676,-397,270,-475,125,795,-293
2.25425,476,-677,-396,270,-475,126,795,-294
2.25475,475,-677,-396,270,-475,125,796,-294
2.25525,475,-677,-397,270,-475,125,796,-294
2.25575,475,-677,-397,270,-475,125,796,-294
2.2562501,475,-676,-398,270,-475,125,796,-294
2.25675,475,-676,-397,270,-475,125,795,-294
2.25725,475,-677,-397,270,-474,125,796,-294
2.25775,475,-677,-397,270,-475,125,796,-294
2.25825,475,-677,-397,270,-475,125,796,-294
2.25875,475,-677,-397,270,-475,125,795,-294
2.25925,475,-676,-397,270,-475,125,795,-294
2.2597501,474,-677,-397,270,-475,125,796,-294
2.26025,474,-677,-397,270,-475,125,797,-294
2.26075,474,-676,-398,270,-475,125,797,-294
2.26125,474,-676,-398,270,-475,124,797,-294
2.26175,474,-676,-398,271,-475,125,796,-294
2.26225,475,-676,-398,270,-475,125,796,-294
2.2627501,475,-676,-397,270,-475,125,796,-294
2.26325,475,-677,-397,270,-475,124,796,-294
2.26375,475,-677,-397,270,-475,125,796,-294
2.26425,474,-677,-397,270,-475,125,796,-294
2.26475,475,-677,-397,270,-475,125,795,-295
2.26525,474,-677,-397,270,-475,124,795,-294
2.26575,474,-677,-397,270,-475,125,796,-295
2.2662501,474,-677,-398,270,-475,125,796,-294
2.26675,474,-677,-398,270,-475,125,796,-294
2.26725,474,-677,-398,270,-475,125,796,-294
2.26775,474,-676,-398,270,-475,125,796,-294
2.26825,474,-676,-398,270,-475,125,796,-294
2.26875,474,-676,-399,271,-475,124,797,-294
2.2692502,474,-676,-399,270,-475,124,797,-294
2.26975,474,-676,-399,271,-475,124,797,-294
2.27025,474,-676,-398,270,-475,124,797,-294
2.27075,475,-677,-398,270,-475,125,796,-294
2.27125,474,-677,-398,270,-475,125,796,-293
2.27175,475,-677,-397,270,-475,125,796,-293
2.27225,475,-676,-396,270,-475,125,796,-293
2.2727501,474,-676,-396,269,-475,125,796,-292
2.27325,474,-676,-396,270,-475,125,796,-293
2.27375,474,-676,-396,270,-475,125,796,-293
2.27425,475,-676,-397,270,-475,124,796,-294
2.27475,474,-676,-397,270,-475,125,796,-294
2.27525,474,-676,-397,270,-476,125,796,-294
2.27575,473,-675,-398,270,-475,124,796,-293
2.2762501,473,-675,-397,270,-475,125,795,-293
2.27675,473,-675,-398,270,-475,124,796,-293
2.27725,473,-675,-397,270,-475,125,796,-294
2.27775,473,-676,-397,270,-475,125,796,-294
2.27825,473,-676,-397,270,-475,124,796,-295
2.27875,474,-677,-397,270,-475,124,796,-297
2.2792501,474,-676,-397,270,-475,124,796,-298
2.27975,474,-677,-398,270,-476,124,796,-297
2.28025,474,-677,-398,270,-476,124,796,-297
2.28075,474,-677,-398,270,-475,124,797,-296
2.28125,473,-676,-398,270,-475,125,796,-295
2.28175,473,-675,-398,270,-475,125,796,-294
2.28225,472,-675,-397,270,-475,125,796,-294
2.2827501,473,-675,-397,269,-475,125,796,-293
2.28325,473,-675,-397,270,-475,125,796,-294
2.28375,473,-675,-396,270,-475,125,796,-294
2.28425,473,-675,-397,270,-476,125,795,-295
2.2848501,474,-676,-397,270,-475,125,796,-295
2.28535,475,-676,-397,270,-475,124,796,-295
2.28585,476,-678,-397,270,-475,124,796,-295
2.28635,476,-678,-398,270,-475,124,796,-295
2.28685,476,-678,-397,270,-476,125,796,-295
2.28735,475,-677,-397,270,-475,124,796,-295
2.2878501,475,-677,-397,270,-475,125,796,-295
2.28835,474,-676,-398,270,-475,125,796,-295
2.28885,474,-676,-397,270,-475,125,796,-295
2.28935,474,-676,-398,270,-475,124,796,-295
2.28985,474,-677,-398,270,-475,124,796,-295
2.29035,474,-676,-397,270,-475,124,796,-294
2.29085,474,-677,-397,270,-475,124,796,-294
2.2913501,474,-676,-397,270,-475,124,796,-294
2.29185,473,-676,-397,270,-474,124,796,-294
2.29235,474,-676,-397,270,-475,124,796,-294
2.29285,474,-676,-398,271,-475,124,796,-294
2.29335,475,-676,-397,271,-475,124,796,-295
2.29385,474,-676,-398,270,-475,125,796,-295
2.2943501,475,-676,-397,269,-475,124,796,-295
2.29485,474,-676,-397,269,-475,125,796,-295
2.29535,475,-677,-398,270,-475,125,796,-294
2.29585,476,-678,-398,270,-475,125,796,-295
2.29635,476,-678,-399,271,-476,125,796,-294
2.29685,476,-678,-399,271,-475,125,796,-294
2.29735,475,-678,-399,271,-476,124,796,-294
2.2978501,475,-677,-399,271,-475,125,796,-294
2.29835,474,-677,-399,270,-475,124,796,-294
2.29885,474,-677,-398,270,-475,125,796,-294
2.29935,474,-677,-398,270,-475,125,796,-295
2.29985,474,-677,-397,269,-475,125,796,-294
2.30035,474,-676,-396,268,-475,125,796,-294
2.3008502,474,-676,-395,268,-475,125,796,-294
2.30135,473,-676,-396,268,-475,125,796,-294
2.30185,473,-675,-397,269,-475,124,796,-294
2.30235,473,-676,-397,270,-475,124,796,-294
2.30285,474,-676,-397,269,-475,124,796,-295
2.30335,474,-675,-397,270,-475,125,796,-295
2.30385,474,-676,-397,270,-475,125,796,-295
2.3043501,474,-676,-397,269,-475,125,795,-294
2.30485,475,-676,-397,270,-475,125,796,-294
2.30535,475,-677,-397,269,-476,125,796,-294
2.30585,475,-677,-397,270,-475,125,796,-294
2.30635,475,-677,-397,270,-475,125,796,-293
2.30685,475,-676,-397,269,-475,125,796,-293
2.30735,474,-676,-397,270,-475,125,796,-293
2.3078501,475,-676,-397,269,-475,125,796,-294
2.30835,474,-677,-397,269,-475,125,796,-294
2.30885,474,-677,-397,269,-475,124,796,-294
2.30935,474,-676,-397,269,-475,124,796,-294
2.30985,474,-676,-398,269,-475,124,796,-294
2.31035,474,-677,-397,269,-475,124,796,-295
2.3108501,475,-677,-397,269,-474,124,796,-295
2.31135,473,-677,-397,270,-474,124,796,-294
2.31185,474,-677,-397,270,-475,124,796,-294
2.31235,474,-677,-397,270,-475,125,796,-294
2.31285,474,-677,-397,270,-475,124,796,-294
2.31335,474,-677,-397,270,-475,124,796,-294
2.31385,474,-677,-398,271,-475,125,797,-294
2.3143501,474,-677,-397,270,-475,125,796,-294
2.31485,474,-677,-398,270,-475,125,796,-294
2.31535,474,-676,-398,271,-475,125,796,-294
2.31585,473,-675,-397,271,-475,125,795,-294
2.31635,473,-675,-398,270,-475,125,796,-294
2.31685,474,-676,-398,271,-475,125,796,-294
2.3173501,473,-675,-398,270,-475,125,796,-294
2.31785,473,-675,-398,271,-475,125,797,-294
2.31835,473,-675,-398,270,-475,125,796,-294
2.31885,473,-675,-397,270,-475,125,797,-294
2.31935,473,-675,-397,269,-475,124,796,-294
2.31985,473,-675,-397,269,-475,125,796,-294
2.32035,473,-675,-397,269,-475,125,796,-294
2.3208501,474,-676,-397,269,-475,126,795,-294
2.32135,474,-676,-397,269,-475,126,795,-293
2.32185,475,-677,-396,269,-475,126,795,-293
2.32235,475,-677,-396,269,-474,126,795,-293
2.32285,475,-677,-396,268,-475,125,796,-294
2.32335,475,-677,-396,269,-475,125,796,-294
2.3238502,475,-677,-396,269,-475,125,796,-294
2.32435,475,-677,-397,269,-475,125,796,-294
2.32485,475,-677,-397,270,-475,124,796,-295
2.32535,476,-677,-398,271,-474,124,796,-294
2.32585,475,-677,-397,270,-474,125,796,-295
2.32635,475,-677,-397,270,-475,124,796,-294
2.32685,475,-677,-397,269,-475,125,796,-295
2.3273501,474,-677,-397,269,-476,124,796,-295
2.32785,474,-678,-397,270,-475,124,796,-295
2.32835,475,-677,-397,270,-475,124,796,-295
2.32895,475,-678,-397,270,-475,124,796,-295
2.3294501,475,-678,-397,270,-475,125,796,-294
2.32995,475,-678,-397,269,-475,125,796,-294
2.33045,474,-678,-397,269,-475,125,796,-295
2.33095,474,-677,-397,269,-474,125,795,-294
2.33145,474,-677,-397,269,-474,125,795,-294
2.33195,475,-677,-397,269,-475,125,795,-294
2.3324502,475,-677,-397,269,-475,125,795,-294
2.33295,475,-677,-397,269,-475,125,795,-294
2.33345,476,-676,-397,270,-475,125,795,-295
2.33395,475,-677,-397,269,-474,125,795,-295
2.33445,475,-677,-397,270,-474,125,795,-295
2.33495,475,-677,-397,270,-475,125,795,-294
2.33545,475,-677,-397,270,-476,125,796,-294
2.3359501,475,-677,-398,270,-475,125,796,-294
2.33645,474,-676,-397,270,-475,125,796,-294
2.33695,474,-676,-397,270,-475,125,797,-294
2.33745,474,-677,-397,269,-475,125,796,-295
2.33795,474,-676,-397,269,-474,125,796,-295
2.33845,474,-676,-398,269,-474,125,796,-294
2.3389502,474,-676,-398,269,-475,125,796,-294
2.3394501,474,-676,-397,269,-475,125,796,-294
2.33995,474,-676,-398,269,-475,124,796,-294
2.34045,473,-677,-397,269,-475,124,795,-294
2.34095,473,-676,-397,269,-474,124,795,-294
2.34145,473,-676,-397,270,-475,124,795,-294
2.34195,474,-676,-397,270,-474,125,795,-294
2.3424501,474,-677,-396,269,-475,125,794,-294
2.34295,474,-677,-396,269,-474,125,795,-294
2.34345,474,-676,-397,268,-475,124,795,-295
2.34395,475,-676,-397,268,-475,124,795,-295
2.34445,474,-676,-397,268,-474,125,796,-295
2.34495,474,-676,-397,269,-475,125,797,-295
2.34545,474,-676,-396,269,-476,125,797,-294
2.3459501,473,-675,-397,269,-476,125,797,-295
2.34645,473,-675,-396,269,-476,125,796,-294
2.34695,473,-675,-396,269,-475,125,796,-294
2.34745,474,-675,-396,270,-476,125,795,-293
2.34795,474,-676,-397,271,-475,125,796,-293
2.34845,474,-676,-397,272,-476,125,795,-294
2.3489501,475,-677,-397,272,-476,126,796,-293
2.34945,476,-677,-398,271,-476,125,796,-294
2.34995,476,-678,-399,271,-475,125,796,-294
2.35045,476,-678,-398,271,-476,125,797,-295
2.35095,476,-678,-398,270,-475,124,797,-295
2.35145,475,-677,-398,270,-475,125,796,-294
2.35195,475,-677,-397,269,-475,124,796,-294
2.3524501,475,-677,-397,269,-475,125,796,-295
2.35295,475,-677,-397,269,-474,124,796,-295
2.35345,475,-677,-397,270,-475,124,797,-295
2.35395,475,-677,-397,270,-474,124,797,-295
2.35445,475,-676,-398,270,-475,124,796,-295
2.35495,475,-676,-398,270,-475,125,796,-295
2.3554502,475,-677,-397,269,-475,125,796,-295
2.35595,475,-677,-397,269,-474,125,796,-295
2.35645,475,-676,-397,269,-474,125,796,-295
2.35695,475,-676,-397,269,-474,125,796,-294
2.35745,474,-677,-397,268,-475,125,795,-294
2.35795,475,-677,-397,269,-475,125,795,-293
2.35845,475,-677,-397,269,-474,124,796,-294
2.3589501,475,-677,-397,269,-475,124,796,-294
2.35945,475,-677,-397,269,-475,124,796,-294
2.35995,474,-677,-397,269,-475,124,796,-295
2.36045,474,-676,-397,269,-475,124,795,-295
2.36095,473,-676,-397,269,-475,124,796,-294
2.36145,473,-675,-397,269,-475,125,796,-293
2.36195,473,-675,-397,270,-475,126,796,-294
2.3624501,473,-675,-397,270,-475,126,796,-294
2.36295,473,-675,-397,269,-475,125,796,-294
2.36345,474,-675,-397,269,-474,125,796,-295
2.36395,474,-676,-397,269,-474,124,796,-295
2.36445,475,-676,-397,269,-474,124,796,-295
2.36495,475,-677,-397,269,-475,124,796,-295
2.3654501,476,-677,-397,269,-475,124,796,-295
2.36595,476,-678,-397,269,-475,124,796,-295
2.36645,476,-678,-397,269,-475,124,796,-295
2.36695,476,-678,-397,269,-475,124,796,-295
2.36745,476,-678,-397,269,-475,124,796,-295
2.36795,475,-678,-397,269,-475,125,796,-294
2.36845,476,-677,-397,269,-474,125,796,-294
2.3689501,476,-678,-397,269,-475,125,796,-294
2.36945,476,-678,-397,269,-474,125,796,-294
2.36995,476,-677,-397,270,-474,125,796,-294
2.37045,475,-677,-397,269,-475,125,796,-293
2.37095,475,-677,-398,269,-474,125,795,-293
2.37145,474,-676,-397,269,-474,125,795,-294
2.3719501,474,-676,-397,269,-475,125,795,-294
2.37245,475,-677,-397,269,-475,125,796,-294
2.37305,475,-677,-397,269,-475,125,796,-294
2.37355,475,-677,-397,270,-475,125,796,-295
2.3740501,476,-677,-397,270,-475,124,796,-295
2.37455,476,-677,-397,270,-475,124,796,-295
2.37505,475,-677,-397,270,-475,125,796,-295
2.37555,475,-677,-396,269,-475,125,796,-295
2.37605,475,-677,-397,270,-475,125,796,-295
2.37655,474,-676,-397,269,-475,125,796,-295
2.37705,474,-676,-397,269,-475,125,796,-295
2.3775501,474,-676,-397,269,-475,125,796,-295
2.37805,474,-676,-397,269,-475,125,796,-295
2.37855,474,-676,-397,269,-475,125,796,-295
2.37905,474,-676,-397,269,-475,125,795,-295
2.37955,475,-677,-397,269,-475,125,796,-295
2.38005,474,-677,-397,269,-474,125,796,-295
2.3805501,475,-677,-397,269,-475,125,796,-294
2.38105,474,-676,-397,270,-475,125,795,-294
2.38155,474,-676,-398,270,-475,125,796,-294
2.38205,474,-676,-398,270,-475,125,796,-294
2.38255,474,-676,-397,270,-475,125,796,-294
2.38305,475,-677,-397,269,-475,125,796,-294
2.38355,475,-677,-397,269,-475,125,796,-294
2.3840501,475,-677,-397,270,-475,125,796,-294
2.38455,475,-677,-397,269,-475,125,796,-295
2.38505,475,-676,-397,270,-475,125,796,-295
2.38555,475,-677,-397,269,-474,125,796,-294
2.38605,475,-677,-397,269,-475,125,796,-295
2.38655,475,-677,-397,269,-475,125,796,-295
2.3870502,476,-677,-397,269,-474,125,796,-294
2.38755,475,-677,-397,268,-475,125,796,-295
2.38805,475,-677,-397,269,-475,125,796,-294
2.38855,475,-676,-397,268,-474,125,796,-295
2.38905,474,-676,-397,269,-475,125,796,-294
2.38955,473,-675,-397,269,-474,125,796,-294
2.39005,473,-676,-397,269,-475,125,796,-295
2.3905501,473,-676,-397,269,-474,124,796,-295
2.39105,473,-676,-397,270,-474,125,796,-294
2.39155,473,-676,-397,270,-475,124,796,-294
2.39205,473,-676,-397,270,-475,124,796,-294
2.39255,474,-675,-397,270,-475,124,796,-295
2.39305,475,-676,-397,269,-475,125,796,-295
2.39355,475,-676,-397,270,-474,124,796,-295
2.3940501,474,-676,-397,269,-475,124,796,-295
2.39455,473,-675,-397,269,-475,124,796,-295
2.39505,472,-674,-397,269,-475,124,796,-295
2.39555,472,-674,-397,269,-475,124,796,-295
2.39605,472,-674,-397,269,-475,124,795,-295
2.39655,472,-675,-397,269,-475,124,795,-295
2.3970501,473,-675,-397,270,-475,124,795,-295
2.39755,474,-676,-397,269,-475,124,796,-295
2.39805,475,-677,-397,270,-475,124,796,-295
2.39855,475,-677,-397,269,-475,124,796,-295
2.39905,476,-678,-397,270,-475,124,796,-295
2.39955,475,-678,-397,269,-475,124,796,-295
2.40005,476,-678,-397,269,-475,125,796,-295
2.4005501,476,-678,-397,270,-475,125,796,-294
2.40105,476,-678,-397,270,-475,125,795,-293
2.40155,476,-679,-398,269,-475,126,796,-294
2.40205,476,-679,-397,269,-475,125,796,-294
2.40255,476,-678,-397,270,-475,125,795,-294
2.40305,475,-678,-397,270,-475,125,795,-294
2.4035501,475,-678,-397,269,-475,125,795,-294
2.40405,475,-677,-397,270,-475,125,795,-294
2.40455,475,-678,-397,270,-475,125,795,-294
2.40505,475,-677,-398,269,-475,125,795,-294
2.40555,475,-677,-397,270,-475,125,795,-294
2.40605,475,-677,-397,269,-475,125,795,-294
2.40655,474,-676,-397,269,-475,124,796,-294
2.4070501,474,-676,-397,269,-475,125,796,-294
2.40755,474,-676,-397,269,-475,125,797,-293
2.40805,474,-676,-397,269,-475,125,797,-293
2.40855,474,-676,-397,269,-475,126,797,-292
2.40905,474,-677,-397,269,-475,125,796,-292
2.40955,474,-676,-397,269,-475,125,796,-293
2.4100502,475,-677,-398,269,-475,125,795,-293
2.41055,475,-677,-398,269,-475,125,796,-293
2.41105,474,-677,-398,270,-475,125,795,-293
2.41155,475,-677,-399,270,-475,124,796,-292
2.41205,475,-677,-398,270,-475,125,796,-292
2.41255,474,-675,-398,270,-475,125,796,-292
2.41305,474,-675,-398,270,-475,126,796,-293
2.4135501,474,-675,-398,270,-475,125,796,-295
2.41405,474,-675,-398,270,-475,125,796,-296
2.41455,475,-676,-398,270,-475,125,796,-297
2.41505,475,-677,-397,269,-475,125,796,-297
2.41555,475,-677,-396,269,-474,125,795,-295
2.41605,475,-677,-395,269,-475,125,795,-295
2.41665,475,-676,-394,268,-474,125,795,-295
2.41715,474,-676,-394,268,-475,125,796,-295
2.41765,474,-676,-395,268,-475,125,796,-294
2.41815,475,-676,-396,269,-475,125,796,-294
2.4186502,475,-677,-396,269,-476,125,796,-294
2.41915,475,-677,-397,270,-475,125,796,-294
2.41965,475,-677,-397,270,-475,125,796,-294
2.42015,475,-677,-397,270,-475,125,796,-294
2.42065,475,-677,-398,270,-475,125,796,-294
2.42115,475,-677,-398,270,-475,125,795,-294
2.42165,475,-678,-398,270,-474,125,795,-294
2.4221501,475,-678,-398,270,-475,125,796,-294
2.42265,475,-679,-396,269,-475,125,796,-294
2.42315,476,-679,-395,267,-475,125,796,-295
2.42365,476,-679,-396,268,-475,125,796,-295
2.42415,475,-679,-397,268,-474,125,796,-295
2.42465,475,-678,-397,269,-475,125,796,-296
2.4251502,474,-677,-397,269,-475,125,796,-296
2.4256501,473,-676,-397,269,-475,125,796,-295
2.42615,473,-675,-397,268,-475,125,796,-295
2.42665,473,-674,-397,269,-474,125,795,-294
2.42715,473,-675,-397,269,-475,125,795,-294
2.42765,474,-676,-397,269,-475,125,796,-295
2.42815,475,-676,-397,269,-475,125,795,-295
2.4286501,476,-677,-397,269,-475,125,795,-295
2.42915,476,-678,-396,269,-475,124,795,-295
2.42965,477,-678,-396,269,-475,125,795,-296
2.43015,476,-678,-396,269,-475,125,794,-295
2.43065,476,-678,-397,270,-475,125,795,-295
2.43115,475,-677,-397,270,-474,125,795,-294
2.43165,474,-677,-397,270,-475,125,795,-294
2.4321501,474,-676,-397,269,-475,125,796,-294
2.43265,474,-676,-397,269,-475,125,796,-294
2.43315,475,-676,-396,269,-475,125,795,-294
2.43365,475,-675,-397,269,-475,125,796,-294
2.43415,475,-675,-397,269,-475,125,796,-294
2.43465,474,-675,-397,269,-475,125,796,-294
2.4351501,474,-675,-397,268,-474,125,796,-294
2.43565,475,-676,-396,268,-474,125,796,-295
2.43615,475,-676,-397,268,-474,125,796,-295
2.43665,475,-676,-397,269,-474,125,796,-295
2.43715,474,-677,-397,269,-475,125,795,-294
2.43765,474,-677,-397,269,-475,125,795,-294
2.43815,475,-677,-397,269,-475,125,795,-294
2.4386501,475,-677,-396,269,-475,125,796,-294
2.43915,475,-677,-397,269,-475,125,796,-294
2.43965,474,-677,-397,269,-475,124,795,-294
2.44015,474,-677,-397,269,-475,124,796,-295
2.44065,474,-676,-397,270,-475,124,796,-295
2.44115,474,-676,-397,270,-475,124,796,-294
2.4416502,474,-676,-397,270,-475,124,796,-294
2.44215,475,-676,-397,269,-475,124,796,-295
2.44265,475,-677,-397,270,-475,124,796,-295
2.44315,476,-677,-397,269,-475,124,796,-295
2.44365,475,-677,-397,269,-475,124,796,-295
2.44415,476,-677,-397,269,-475,124,796,-295
2.44465,475,-677,-397,269,-475,124,796,-295
2.4451501,475,-677,-397,269,-475,124,796,-295
2.44565,475,-677,-397,269,-475,125,796,-294
2.44615,475,-677,-397,269,-475,125,796,-294
2.44665,475,-676,-396,269,-476,125,796,-294
2.44715,474,-676,-397,269,-475,125,796,-295
2.44765,474,-676,-397,269,-475,125,796,-294
2.44815,474,-675,-397,269,-475,124,796,-294
2.4486501,474,-676,-397,269,-475,124,796,-295
2.44915,474,-676,-397,269,-474,124,796,-295
2.44965,474,-676,-397,269,-475,124,796,-295
2.45015,474,-676,-397,269,-475,124,796,-295
2.45065,474,-676,-397,269,-475,124,795,-295
2.45115,474,-676,-397,269,-475,124,796,-294
2.4516501,474,-677,-397,268,-475,124,796,-294
2.45215,474,-676,-397,269,-475,125,796,-294
2.45265,474,-675,-397,269,-475,125,796,-294
2.45315,474,-675,-396,269,-475,125,796,-294
2.45365,474,-676,-397,269,-475,125,796,-295
2.45415,473,-675,-397,270,-475,125,796,-294
2.45465,473,-676,-398,269,-474,125,796,-294
2.4551501,474,-676,-397,269,-475,125,796,-294
2.45565,475,-677,-397,269,-475,125,796,-294
2.45615,476,-678,-397,269,-474,125,796,-294
2.45665,476,-678,-398,269,-475,125,795,-294
2.45715,475,-678,-397,269,-475,125,795,-294
2.45765,475,-677,-397,269,-475,125,795,-294
2.4581501,475,-677,-397,269,-475,125,795,-294
2.45865,475,-677,-397,269,-474,125,795,-294
2.45915,475,-677,-397,268,-474,125,795,-295
2.45965,475,-677,-396,268,-474,125,796,-295
2.46015,475,-677,-396,268,-474,125,795,-295
2.46075,475,-677,-396,269,-474,125,796,-294
2.46125,475,-677,-396,269,-474,125,795,-294
2.46175,475,-677,-397,268,-475,125,795,-294
2.46225,475,-676,-396,269,-475,125,795,-294
2.46275,475,-676,-397,268,-475,125,795,-294
2.46325,475,-676,-397,269,-475,125,795,-295
2.4637501,475,-676,-397,269,-474,125,795,-295
2.46425,475,-676,-397,269,-474,125,795,-295
2.46475,475,-677,-398,269,-475,125,796,-295
2.46525,475,-676,-398,269,-475,124,796,-295
2.46575,475,-677,-397,269,-475,124,796,-295
2.46625,475,-677,-397,270,-475,125,795,-295
2.4667501,476,-677,-397,269,-475,124,796,-295
2.46725,475,-678,-397,270,-475,125,795,-294
2.46775,475,-677,-397,270,-475,125,795,-294
2.46825,475,-677,-397,269,-475,125,795,-295
2.46875,474,-676,-396,268,-474,125,795,-295
2.46925,474,-676,-396,268,-474,125,795,-294
2.46975,474,-676,-396,269,-475,125,795,-295
2.4702501,474,-676,-396,268,-475,125,796,-295
2.47075,474,-676,-397,269,-475,125,796,-294
2.47125,474,-676,-397,269,-475,125,796,-294
2.47175,474,-676,-397,269,-475,125,796,-294
2.47225,474,-677,-397,269,-475,125,796,-294
2.47275,475,-677,-397,269,-475,125,796,-295
2.4732502,476,-678,-397,269,-475,125,796,-295
2.47375,476,-678,-397,269,-474,125,796,-295
2.47425,476,-678,-398,270,-475,125,796,-295
2.47475,476,-678,-397,269,-475,125,796,-295
2.47525,476,-678,-397,269,-475,125,795,-295
2.47575,475,-677,-397,269,-475,125,795,-295
2.47625,475,-677,-397,269,-475,124,795,-295
2.4767501,475,-677,-397,269,-475,125,795,-295
2.47725,475,-676,-397,269,-475,124,795,-295
2.47775,475,-677,-397,269,-475,124,795,-295
2.47825,475,-677,-397,269,-475,124,796,-295
2.47875,475,-677,-397,269,-475,125,796,-295
2.47925,476,-677,-396,269,-475,125,796,-295
2.4797502,475,-677,-396,269,-475,125,796,-295
2.4802501,475,-677,-396,268,-474,125,795,-295
2.48075,475,-676,-396,268,-474,125,794,-294
2.48125,474,-676,-397,269,-474,124,793,-295
2.48175,474,-676,-397,268,-475,124,793,-295
2.48225,474,-676,-396,268,-474,124,793,-294
2.48275,475,-676,-397,268,-475,125,794,-295
2.4832501,475,-676,-397,269,-475,124,794,-295
2.48375,475,-677,-397,269,-474,125,795,-295
2.48425,475,-677,-397,269,-475,125,795,-295
2.48475,475,-677,-397,269,-475,125,796,-295
2.48525,475,-677,-397,269,-475,125,798,-295
2.48575,474,-677,-397,269,-475,125,797,-295
2.48625,474,-677,-397,269,-475,125,797,-295
2.4867501,474,-678,-397,269,-475,124,796,-295
2.48725,475,-677,-397,269,-475,125,796,-295
2.48775,474,-677,-397,269,-475,125,796,-294
2.48825,474,-676,-397,269,-475,125,796,-295
2.48875,474,-676,-396,269,-475,125,796,-294
2.48925,474,-677,-397,269,-475,125,796,-295
2.4897501,475,-677,-396,268,-475,125,796,-295
2.49025,475,-677,-396,268,-474,124,795,-295
2.49075,475,-677,-397,269,-475,124,795,-295
2.49125,475,-677,-397,269,-475,124,795,-295
2.49175,475,-677,-396,268,-475,125,795,-295
2.49225,474,-676,-396,269,-475,124,795,-295
2.49275,474,-676,-396,269,-475,124,795,-296
2.4932501,474,-675,-396,269,-475,124,796,-295
2.49375,474,-676,-397,269,-475,124,796,-295
2.49425,474,-676,-396,268,-474,125,796,-295
2.49475,474,-676,-396,269,-474,125,796,-294
2.49525,474,-677,-396,269,-475,125,796,-294
2.49575,474,-676,-397,269,-475,125,796,-294
2.4962502,474,-677,-397,269,-475,125,796,-295
2.49675,475,-677,-398,269,-475,124,796,-295
2.49725,475,-677,-398,270,-475,124,796,-295
2.49775,475,-677,-398,270,-475,125,796,-295
2.49825,474,-676,-398,270,-475,124,796,-295
2.49875,474,-675,-398,270,-475,124,795,-295
2.49925,473,-675,-398,270,-475,124,796,-295
2.4997501,473,-674,-399,270,-475,125,796,-294
2.50025,472,-674,-399,270,-475,125,796,-294
2.50075,472,-674,-398,269,-476,126,796,-293
2.50125,472,-675,-397,269,-475,125,796,-294
2.50175,473,-675,-396,268,-474,125,795,-294
2.50225,473,-675,-395,267,-475,125,795,-294
2.50275,475,-676,-394,267,-474,125,795,-294
2.5032501,477,-678,-395,267,-475,125,795,-294
2.50375,477,-679,-396,268,-474,125,796,-295
2.50435,478,-679,-396,268,-475,125,795,-294
2.5048501,476,-678,-396,268,-475,124,795,-295
2.50535,476,-679,-397,269,-475,125,796,-294
2.50585,476,-678,-396,269,-475,125,795,-295
2.50635,476,-679,-397,269,-475,125,795,-295
2.50685,476,-679,-397,268,-474,125,795,-295
2.50735,475,-679,-397,269,-475,125,796,-295
2.50785,475,-678,-397,269,-475,125,796,-295
2.5083501,475,-678,-397,269,-475,124,795,-295
2.50885,475,-677,-397,269,-475,125,796,-295
2.50935,475,-677,-397,268,-475,125,795,-295
2.50985,475,-677,-397,269,-475,124,795,-295
2.51035,475,-677,-397,269,-475,125,796,-295
2.51085,475,-677,-397,269,-475,125,796,-295
2.5113502,475,-677,-398,268,-475,125,795,-295
2.51185,475,-677,-397,269,-475,125,796,-294
2.51235,475,-677,-397,268,-475,125,795,-294
2.51285,475,-676,-397,269,-475,125,795,-293
2.51335,475,-676,-397,269,-474,126,795,-293
2.51385,475,-676,-396,269,-474,126,795,-292
2.51435,474,-677,-396,269,-475,126,795,-292
2.5148501,475,-677,-396,269,-475,126,795,-292
2.51535,474,-677,-397,269,-474,125,795,-292
2.51585,474,-677,-397,270,-475,125,795,-292
2.51635,474,-677,-397,270,-475,125,795,-292
2.51685,474,-677,-397,270,-475,125,795,-293
2.51735,474,-677,-397,269,-474,125,796,-293
2.51785,474,-676,-397,269,-475,125,795,-294
2.5183501,474,-677,-397,269,-475,125,796,-295
2.51885,475,-677,-397,269,-475,125,796,-297
2.51935,475,-677,-397,269,-475,124,796,-297
2.51985,475,-677,-397,268,-475,124,796,-297
2.52035,475,-677,-397,268,-475,125,795,-296
2.52085,474,-676,-397,268,-475,125,795,-295
2.5213501,474,-676,-396,268,-475,125,795,-295
2.52185,475,-677,-396,269,-474,125,794,-295
2.52235,475,-677,-396,268,-475,125,795,-295
2.52285,475,-678,-396,268,-475,125,795,-295
2.52335,475,-678,-397,269,-475,125,794,-295
2.52385,475,-678,-396,269,-475,125,795,-295
2.52435,475,-678,-396,269,-475,124,795,-295
2.5248501,476,-677,-396,268,-475,125,796,-295
2.52535,475,-676,-396,269,-475,125,796,-295
2.52585,474,-676,-396,269,-475,124,797,-296
2.52635,474,-676,-396,268,-475,124,797,-295
2.52685,474,-676,-396,269,-475,124,796,-296
2.52735,475,-677,-397,269,-474,124,796,-296
2.5278502,476,-677,-397,269,-475,124,796,-295
2.52835,476,-678,-397,270,-475,124,796,-296
2.52885,476,-678,-397,269,-475,124,796,-296
2.52935,476,-678,-397,269,-475,124,795,-295
2.52985,476,-678,-397,269,-474,125,795,-295
2.53035,474,-677,-397,268,-474,124,795,-295
2.53085,474,-677,-397,269,-474,125,795,-293
2.5313501,474,-677,-397,268,-475,125,795,-294
2.53185,474,-676,-397,268,-475,124,795,-294
2.53235,474,-676,-396,268,-475,124,795,-294
2.53285,474,-676,-396,268,-475,124,795,-295
2.53335,474,-677,-397,269,-474,124,795,-295
2.53385,475,-677,-397,270,-475,125,795,-294
2.5343502,475,-678,-398,270,-475,126,796,-295
2.5348501,475,-678,-398,269,-475,125,796,-294
2.53535,474,-677,-397,269,-475,125,795,-294
2.53585,474,-676,-397,269,-475,125,795,-294
2.53635,474,-676,-397,270,-475,125,795,-294
2.53685,474,-676,-397,269,-475,125,795,-294
2.53735,474,-676,-398,269,-475,125,795,-294
2.5378501,474,-676,-397,269,-475,125,795,-295
2.53835,474,-676,-397,269,-475,124,795,-295
2.53885,474,-676,-396,268,-474,124,795,-295
2.53935,474,-676,-396,267,-474,125,794,-295
2.53985,474,-676,-396,267,-475,125,795,-295
2.54035,475,-677,-396,267,-474,125,794,-295
2.54085,475,-678,-397,268,-475,125,794,-294
2.5413501,475,-678,-396,268,-475,125,794,-294
2.54185,475,-677,-397,269,-475,125,795,-294
2.54235,475,-677,-396,269,-475,125,795,-294
2.54285,475,-677,-397,270,-475,125,796,-295
2.54335,475,-677,-397,270,-475,124,796,-295
2.54385,475,-677,-397,269,-475,125,796,-295
2.5443501,475,-677,-397,268,-475,124,796,-295
2.54485,474,-676,-397,269,-475,124,796,-295
2.54535,474,-676,-397,269,-475,125,795,-295
2.54585,474,-676,-397,269,-475,124,795,-295
2.54635,475,-677,-397,269,-475,124,796,-295
2.54685,475,-677,-397,269,-475,124,795,-295
2.54735,475,-677,-398,269,-475,125,795,-295
2.54795,475,-677,-398,270,-475,124,796,-295
2.54845,475,-677,-397,269,-475,124,795,-295
2.54895,475,-677,-398,269,-475,125,795,-295
2.54945,475,-677,-397,269,-475,125,795,-294
2.5499501,474,-676,-397,269,-475,125,796,-295
2.55045,474,-676,-397,269,-475,124,795,-294
2.55095,473,-676,-396,268,-474,124,795,-295
2.55145,474,-676,-395,269,-475,124,795,-294
2.55195,474,-676,-396,269,-475,124,795,-294
2.55245,475,-676,-396,269,-475,124,795,-295
2.5529501,475,-676,-396,269,-475,124,795,-295
2.55345,475,-677,-397,269,-475,124,796,-295
2.55395,475,-677,-397,269,-475,126,796,-295
2.55445,474,-676,-397,269,-475,126,795,-294
2.55495,474,-675,-397,269,-475,125,796,-295
2.55545,473,-675,-397,268,-475,125,795,-295
2.55595,474,-675,-397,268,-475,125,795,-295
2.5564501,474,-676,-396,267,-475,125,796,-295
2.55695,474,-676,-396,268,-475,125,795,-295
2.55745,475,-677,-396,268,-475,124,795,-295
2.55795,475,-678,-396,268,-475,125,795,-295
2.55845,476,-678,-396,268,-475,124,796,-295
2.55895,477,-679,-396,268,-476,124,795,-295
2.5594501,477,-679,-396,268,-475,125,796,-295
2.55995,476,-679,-395,268,-475,124,795,-295
2.56045,475,-678,-396,269,-476,125,795,-295
2.56095,475,-677,-396,270,-475,125,795,-294
2.56145,475,-677,-396,270,-476,125,795,-295
2.56195,475,-677,-396,270,-475,125,795,-294
2.56245,475,-677,-397,270,-475,125,795,-294
2.5629501,475,-677,-397,269,-475,125,795,-294
2.56345,475,-677,-397,269,-475,125,795,-294
2.56395,475,-677,-397,269,-474,125,795,-295
2.56445,474,-677,-397,268,-474,125,795,-295
2.56495,474,-677,-397,269,-475,125,795,-295
2.56545,474,-677,-397,269,-475,125,795,-295
2.5659502,474,-677,-397,269,-475,125,795,-295
2.56645,474,-677,-396,269,-475,124,795,-295
2.56695,474,-677,-396,268,-475,125,795,-295
2.56745,474,-676,-396,269,-474,125,795,-295
2.56795,475,-677,-396,268,-475,125,795,-295
2.56845,475,-676,-396,268,-475,125,794,-295
2.56895,476,-678,-396,268,-474,124,795,-295
2.5694501,476,-678,-396,268,-474,125,795,-295
2.56995,476,-678,-397,268,-474,125,795,-295
2.57045,475,-677,-397,268,-474,125,795,-295
2.57095,475,-677,-397,269,-475,125,795,-294
2.57145,475,-677,-397,268,-475,124,795,-294
2.57195,475,-677,-396,268,-475,124,796,-295
2.57245,476,-677,-397,269,-475,124,796,-295
2.5729501,476,-677,-397,269,-474,125,796,-295
2.57345,476,-677,-396,268,-475,124,795,-295
2.57395,476,-677,-396,269,-474,125,796,-295
2.57445,475,-677,-397,268,-474,124,795,-295
2.57495,476,-677,-397,269,-474,124,795,-295
2.57545,475,-677,-397,269,-474,125,795,-295
2.5759501,475,-677,-397,269,-474,124,795,-295
2.57645,475,-677,-397,269,-474,125,795,-294
2.57695,474,-676,-396,269,-474,125,795,-295
2.57745,474,-676,-397,269,-475,126,795,-294
2.57795,474,-676,-397,269,-474,126,795,-294
2.57845,473,-676,-397,269,-475,125,795,-294
2.57895,473,-675,-397,269,-475,125,795,-294
2.5794501,472,-675,-397,269,-475,125,795,-294
2.57995,472,-674,-397,269,-475,125,796,-294
2.58045,472,-674,-397,268,-474,125,795,-294
2.58095,472,-674,-396,269,-475,125,795,-294
2.58145,473,-675,-395,268,-475,125,795,-294
2.58195,473,-675,-395,268,-475,124,795,-294
2.5824502,474,-676,-396,269,-474,125,796,-295
2.58295,476,-678,-396,269,-474,124,795,-295
2.58345,477,-680,-397,269,-475,125,796,-295
2.58395,478,-681,-397,269,-475,124,795,-295
2.58445,478,-680,-397,269,-474,124,795,-295
2.58495,478,-680,-397,269,-475,124,795,-296
2.58545,477,-679,-397,269,-475,124,795,-296
2.5859501,476,-679,-397,269,-475,124,795,-296
2.58645,476,-678,-398,270,-475,124,795,-296
2.58695,476,-677,-398,269,-475,124,795,-296
2.58745,475,-677,-398,269,-475,125,795,-295
2.58795,475,-677,-397,269,-475,124,795,-295
2.58845,475,-677,-397,269,-475,125,795,-295
2.5889502,475,-676,-396,269,-475,125,795,-294
2.5894501,475,-676,-395,268,-475,125,795,-294
2.58995,475,-677,-395,268,-475,125,795,-294
2.59045,474,-677,-396,268,-475,125,795,-293
2.59095,474,-677,-396,268,-474,125,795,-294
2.59145,474,-677,-396,268,-475,125,795,-294
2.59205,474,-676,-396,269,-475,126,795,-294
2.59255,474,-676,-396,268,-475,125,795,-294
2.59305,474,-676,-396,268,-474,125,795,-295
2.59355,474,-676,-396,268,-474,125,794,-295
2.59405,475,-676,-397,268,-473,125,794,-295
2.5945501,475,-676,-397,268,-474,125,794,-295
2.59505,475,-676,-396,268,-474,125,794,-294
2.59555,475,-676,-397,268,-474,125,794,-294
2.59605,475,-676,-396,268,-475,125,795,-295
2.59655,475,-676,-396,268,-474,125,795,-295
2.59705,475,-676,-396,268,-474,125,796,-295
2.5975502,475,-677,-396,268,-474,125,796,-294
2.59805,474,-676,-396,268,-475,124,796,-295
2.59855,475,-676,-396,269,-475,124,796,-294
2.59905,475,-676,-396,269,-474,125,796,-295
2.59955,475,-677,-396,269,-474,125,795,-295
2.60005,476,-677,-396,268,-474,125,795,-295
2.60055,475,-677,-397,268,-474,125,795,-295
2.6010501,475,-677,-397,269,-475,125,795,-295
2.60155,475,-677,-396,268,-475,124,796,-295
2.60205,475,-677,-396,269,-474,124,796,-295
2.60255,475,-677,-396,268,-475,124,796,-296
2.60305,475,-677,-397,269,-475,124,795,-296
2.60355,475,-677,-397,268,-475,124,795,-296
2.60405,475,-677,-397,269,-474,124,795,-295
2.6045501,475,-677,-397,268,-474,124,795,-296
2.60505,475,-678,-397,268,-474,124,795,-296
2.60555,475,-677,-397,268,-475,124,795,-295
2.60605,475,-677,-397,269,-474,124,795,-295
2.60655,475,-677,-397,268,-474,125,795,-295
2.60705,475,-676,-396,268,-474,124,795,-294
2.6075501,474,-676,-396,268,-475,125,795,-294
2.60805,474,-676,-397,268,-475,125,795,-294
2.60855,474,-676,-397,268,-475,125,795,-294
2.60905,474,-676,-397,268,-474,125,795,-294
2.60955,475,-677,-397,269,-475,125,795,-294
2.61005,476,-677,-397,268,-475,125,795,-294
2.61055,476,-678,-397,269,-474,125,795,-294
2.6110501,476,-678,-396,268,-474,125,794,-294
2.61155,476,-678,-396,268,-474,125,794,-294
2.61205,476,-678,-396,268,-474,125,794,-295
2.61255,476,-678,-396,268,-474,125,793,-295
2.61305,475,-677,-396,268,-474,125,794,-295
2.61355,475,-677,-397,269,-475,125,795,-295
2.6140501,475,-677,-397,269,-475,125,796,-295
2.61455,475,-676,-397,269,-475,125,796,-294
2.61505,475,-677,-397,269,-475,125,796,-294
2.61555,474,-675,-397,269,-475,124,796,-294
2.61605,474,-676,-397,269,-475,125,795,-293
2.61655,474,-677,-396,269,-475,125,796,-293
2.61705,474,-677,-397,269,-474,126,796,-292
2.6175501,475,-677,-397,269,-476,126,796,-292
2.61805,475,-678,-397,268,-475,125,795,-293
2.61855,475,-677,-396,268,-474,125,795,-293
2.61905,475,-677,-397,268,-474,125,795,-294
2.61955,475,-677,-396,268,-474,125,795,-294
2.62005,474,-677,-397,268,-475,125,795,-294
2.6205502,474,-677,-397,269,-474,125,795,-293
2.6210501,475,-677,-397,268,-474,125,795,-294
2.62155,475,-677,-397,268,-474,125,795,-295
2.62205,475,-677,-396,268,-475,124,795,-296
2.62255,476,-677,-397,269,-474,124,795,-298
2.62305,476,-677,-397,268,-475,124,795,-297
2.62355,475,-677,-396,269,-474,124,794,-297
2.6240501,475,-677,-397,269,-475,124,795,-296
2.62455,476,-677,-397,269,-475,125,795,-296
2.62505,475,-677,-397,268,-475,125,795,-296
2.62555,476,-677,-396,268,-475,125,795,-295
2.62605,475,-676,-396,268,-474,125,795,-295
2.62655,475,-677,-396,268,-475,125,795,-295
2.62705,475,-677,-397,268,-474,125,795,-295
2.6275501,475,-677,-397,268,-475,125,795,-295
2.62805,475,-678,-397,269,-475,125,795,-295
2.62855,474,-677,-397,269,-475,125,796,-295
2.62905,474,-677,-397,268,-475,125,795,-295
2.62955,474,-677,-397,269,-475,125,795,-295
2.63005,474,-676,-397,268,-475,125,795,-295
2.6305501,474,-675,-397,269,-475,124,795,-295
2.63105,475,-676,-397,268,-474,124,794,-295
2.63155,475,-676,-396,268,-475,124,795,-296
2.63205,476,-676,-396,268,-475,125,794,-295
2.63255,476,-676,-396,268,-475,124,795,-295
2.63305,476,-677,-396,268,-474,124,795,-295
2.63355,475,-677,-397,269,-475,125,795,-295
2.6340501,475,-677,-397,269,-475,125,795,-295
2.63455,475,-677,-397,269,-475,125,796,-295
2.63505,475,-677,-397,269,-475,125,795,-295
2.63565,475,-677,-397,268,-475,125,795,-295
2.6361501,475,-677,-396,268,-475,125,795,-295
2.63665,475,-677,-396,268,-474,125,795,-295
2.63715,475,-677,-397,268,-475,125,795,-295
2.63765,475,-677,-397,268,-475,125,795,-295
2.63815,475,-677,-397,268,-475,125,795,-295
2.63865,475,-677,-396,268,-475,125,795,-295
2.6391501,475,-677,-396,268,-475,125,795,-295
2.63965,475,-677,-396,268,-474,124,795,-295
2.64015,475,-677,-396,268,-475,125,795,-295
2.64065,475,-677,-397,269,-475,124,795,-295
2.64115,475,-677,-396,268,-475,125,795,-295
2.64165,475,-677,-397,269,-474,125,795,-295
2.64215,475,-677,-396,268,-475,124,795,-295
2.6426501,475,-677,-396,268,-474,125,795,-295
2.64315,475,-677,-397,268,-475,124,795,-295
2.64365,474,-677,-396,268,-475,125,795,-295
2.64415,475,-677,-396,268,-475,125,795,-295
2.64465,475,-677,-396,268,-474,124,795,-295
2.64515,475,-677,-396,268,-474,125,795,-295
2.6456501,475,-677,-396,268,-474,124,795,-295
2.64615,475,-677,-397,268,-475,124,795,-295
2.64665,475,-677,-397,269,-475,125,795,-295
2.64715,475,-677,-397,269,-475,124,795,-296
2.64765,475,-677,-397,269,-475,124,796,-295
2.64815,474,-677,-398,270,-475,124,795,-295
2.64865,474,-677,-397,270,-474,125,795,-295
2.6491501,474,-676,-397,269,-475,125,795,-296
2.64965,475,-676,-397,269,-475,124,795,-295
2.65015,475,-677,-397,269,-475,125,795,-295
2.65065,474,-677,-396,268,-474,125,795,-295
2.65115,475,-677,-396,268,-474,125,794,-295
2.65165,475,-677,-395,267,-474,125,794,-295
2.6521502,475,-677,-396,267,-474,125,795,-295
2.65265,475,-677,-396,268,-474,124,795,-295
2.65315,475,-677,-396,268,-474,124,795,-296
2.65365,475,-677,-396,268,-474,124,795,-295
2.65415,475,-677,-396,268,-475,124,795,-296
2.65465,475,-677,-396,268,-474,125,795,-296
2.65515,475,-677,-397,268,-475,125,795,-296
2.6556501,475,-677,-396,268,-475,125,795,-296
2.65615,474,-677,-396,268,-475,125,795,-295
2.65665,474,-676,-397,268,-475,124,795,-295
2.65715,474,-677,-397,268,-474,124,795,-295
2.65765,474,-676,-396,268,-475,124,795,-295
2.65815,475,-677,-397,268,-474,124,795,-295
2.65865,475,-677,-397,268,-474,124,795,-296
2.6591501,476,-677,-396,268,-474,124,795,-296
2.65965,475,-677,-396,268,-475,124,795,-296
2.66015,475,-677,-397,268,-474,124,795,-296
2.66065,475,-677,-397,269,-474,124,795,-295
2.66115,475,-677,-397,269,-474,124,795,-295
2.66165,475,-677,-397,269,-474,125,795,-295
2.6621501,475,-677,-397,269,-475,125,795,-295
2.66265,476,-677,-397,269,-475,125,795,-295
2.66315,475,-677,-397,269,-474,124,795,-295
2.66365,475,-677,-397,269,-475,125,795,-295
2.66415,475,-677,-398,269,-475,125,795,-295
2.66465,475,-677,-398,269,-475,125,795,-295
2.66515,475,-677,-397,268,-474,125,795,-294
2.6656501,475,-678,-397,267,-475,126,795,-294
2.66615,475,-677,-397,267,-475,125,795,-295
2.66665,474,-676,-396,268,-474,125,795,-295
2.66715,474,-676,-396,268,-474,125,795,-295
2.66765,474,-675,-396,268,-474,125,795,-295
2.66815,474,-675,-396,268,-475,125,795,-295
2.6686502,474,-676,-396,268,-474,125,795,-295
2.66915,474,-676,-396,267,-474,125,795,-296
2.66965,475,-676,-396,268,-475,124,795,-295
2.67015,474,-676,-397,268,-475,125,794,-295
2.67065,475,-677,-398,269,-474,125,794,-295
2.67115,475,-677,-399,269,-475,125,795,-295
2.67165,476,-678,-399,269,-474,125,795,-295
2.6721501,476,-678,-398,269,-475,125,794,-295
2.67265,476,-677,-398,269,-475,124,795,-295
2.67315,475,-677,-397,269,-474,125,794,-295
2.67365,475,-677,-396,268,-475,125,794,-295
2.67415,475,-677,-395,267,-475,125,794,-295
2.67465,474,-677,-395,267,-474,125,794,-295
2.6751502,475,-677,-395,267,-474,125,794,-294
2.6756501,475,-678,-395,268,-475,125,794,-295
2.67615,476,-678,-395,268,-474,125,795,-295
2.67665,476,-678,-395,268,-474,124,795,-295
2.67715,476,-678,-396,268,-474,124,795,-296
2.67765,476,-677,-396,268,-475,124,795,-295
2.67815,475,-677,-396,268,-475,124,795,-295
2.6786501,474,-677,-396,268,-474,124,795,-295
2.67915,474,-677,-396,268,-474,124,795,-295
2.67975,474,-678,-396,268,-474,124,795,-295
2.68025,475,-678,-397,269,-475,124,795,-295
2.6807501,474,-679,-398,269,-475,125,795,-294
2.68125,475,-679,-398,269,-474,124,794,-294
2.68175,477,-680,-398,269,-475,125,794,-294
2.68225,478,-681,-398,268,-474,125,794,-295
2.68275,477,-680,-396,268,-474,125,794,-295
2.68325,476,-679,-395,268,-474,125,794,-295
2.6837502,475,-678,-395,267,-474,124,794,-295
2.68425,475,-677,-395,268,-474,124,794,-295
2.68475,475,-676,-395,268,-474,125,794,-295
2.68525,475,-676,-396,268,-474,124,795,-296
2.68575,475,-676,-396,268,-475,125,796,-295
2.68625,476,-676,-397,269,-475,125,796,-295
2.68675,475,-676,-397,269,-474,125,796,-295
2.6872501,475,-677,-397,269,-475,125,796,-295
2.68775,475,-676,-397,268,-475,125,795,-295
2.68825,475,-676,-396,268,-474,126,795,-295
2.68875,475,-676,-396,268,-475,125,795,-294
2.68925,474,-676,-396,268,-474,125,795,-294
2.68975,474,-676,-396,268,-475,125,795,-295
2.69025,474,-676,-396,269,-474,125,794,-294
2.6907501,474,-676,-397,269,-474,125,794,-294
2.69125,475,-676,-397,269,-475,124,794,-295
2.69175,475,-677,-397,270,-475,124,795,-295
2.69225,476,-677,-397,269,-474,124,795,-296
2.69275,476,-678,-397,270,-475,125,795,-295
2.69325,476,-678,-398,269,-475,124,795,-295
2.6937501,476,-678,-398,269,-474,124,795,-296
2.69425,476,-678,-398,269,-475,124,795,-295
2.69475,476,-678,-397,268,-475,124,795,-296
2.69525,476,-677,-397,268,-474,124,795,-295
2.69575,475,-678,-397,268,-474,125,795,-295
2.69625,475,-677,-396,268,-474,124,794,-295
2.69675,475,-677,-396,267,-474,124,794,-295
2.6972501,475,-677,-395,267,-474,124,795,-295
2.69775,476,-677,-396,267,-474,124,795,-295
2.69825,475,-677,-396,268,-474,125,795,-295
2.69875,475,-677,-396,267,-474,124,795,-295
2.69925,476,-677,-396,267,-474,124,795,-295
2.69975,475,-677,-396,267,-474,124,795,-295
2.7002501,476,-677,-396,268,-474,124,795,-295
2.70075,476,-678,-396,267,-474,124,795,-295
2.70125,476,-678,-396,268,-474,124,795,-295
2.70175,476,-678,-397,268,-474,124,794,-295
2.70225,476,-677,-396,268,-474,124,795,-295
2.70275,475,-677,-397,268,-474,124,795,-296
2.70325,475,-677,-396,268,-474,124,795,-296
2.7037501,475,-677,-396,268,-474,124,795,-296
2.70425,475,-677,-396,268,-474,124,795,-296
2.70475,474,-676,-396,268,-474,124,795,-296
2.70525,475,-677,-396,268,-474,124,795,-296
2.70575,475,-677,-396,268,-474,124,795,-296
2.70625,475,-677,-396,268,-474,125,795,-295
2.7067502,475,-678,-396,269,-475,125,795,-295
2.70725,475,-678,-397,269,-474,125,795,-295
2.70775,475,-677,-397,269,-474,125,795,-295
2.70825,475,-678,-397,268,-474,124,795,-295
2.70875,475,-678,-397,267,-474,124,795,-295
2.70925,475,-677,-396,267,-474,125,795,-295
2.70975,475,-677,-397,267,-474,125,795,-294
2.7102501,474,-677,-397,268,-474,125,794,-294
2.71075,474,-676,-397,267,-474,124,795,-294
2.71125,474,-676,-397,267,-474,124,795,-295
2.71175,474,-676,-396,267,-474,124,795,-295
2.71225,474,-676,-396,267,-474,124,795,-295
2.71275,474,-675,-396,268,-474,124,795,-295
2.71325,474,-675,-396,268,-474,124,795,-295
2.7137501,474,-676,-396,269,-474,125,795,-295
2.71425,474,-676,-397,269,-475,125,795,-295
2.71475,474,-676,-397,269,-474,125,795,-295
2.71525,475,-677,-396,268,-474,125,794,-295
2.71575,476,-678,-396,269,-474,124,794,-295
2.71625,477,-679,-396,269,-475,125,795,-295
2.7167501,477,-679,-397,268,-475,125,795,-295
2.71725,476,-678,-397,268,-475,125,795,-295
2.71775,476,-678,-397,268,-474,124,795,-296
2.71825,476,-678,-397,268,-474,125,794,-295
2.71875,476,-678,-396,267,-474,124,795,-295
2.71925,475,-678,-396,268,-474,124,795,-295
2.71975,476,-678,-396,268,-474,124,795,-295
2.7202501,475,-678,-396,268,-474,124,794,-295
2.72075,475,-678,-397,268,-475,124,794,-295
2.72125,475,-678,-397,268,-474,124,795,-295
2.72175,475,-678,-397,268,-474,124,795,-295
2.72225,475,-677,-397,268,-474,124,795,-296
2.72275,475,-676,-397,268,-475,124,795,-296
2.72335,474,-676,-397,268,-474,124,795,-296
2.72385,474,-675,-397,268,-474,124,795,-296
2.72435,474,-676,-397,268,-474,124,795,-295
2.72485,474,-676,-397,267,-474,124,795,-295
2.7253501,475,-676,-396,267,-474,124,794,-295
2.72585,475,-676,-396,267,-474,124,795,-295
2.72635,474,-676,-396,267,-474,125,795,-295
2.72685,474,-676,-396,267,-474,124,795,-295
2.72735,475,-676,-396,268,-474,124,795,-295
2.72785,476,-677,-396,268,-474,124,795,-296
2.72835,476,-678,-396,269,-474,124,795,-296
2.7288501,476,-678,-396,269,-475,124,795,-295
2.72935,476,-678,-396,268,-474,124,795,-295
2.72985,476,-678,-396,268,-474,124,795,-295
2.73035,475,-678,-397,268,-474,125,794,-295
2.73085,476,-678,-397,268,-474,125,794,-295
2.73135,476,-677,-397,268,-473,125,794,-295
2.7318501,476,-677,-396,268,-474,124,794,-295
2.73235,475,-677,-396,268,-474,125,794,-295
2.73285,475,-677,-397,268,-474,125,794,-295
2.73335,475,-677,-397,268,-474,124,794,-295
2.73385,476,-677,-397,268,-475,125,795,-295
2.73435,475,-677,-397,268,-474,125,795,-295
2.73485,475,-677,-397,268,-475,124,795,-295
2.7353501,475,-677,-397,268,-474,124,795,-295
2.73585,475,-677,-396,268,-474,124,795,-295
2.73635,475,-677,-397,268,-474,125,795,-296
2.73685,476,-678,-396,268,-474,124,795,-296
2.73735,475,-677,-396,268,-474,124,795,-296
2.73785,476,-677,-396,268,-474,124,795,-296
2.7383502,476,-677,-396,268,-474,124,795,-296
2.73885,476,-678,-396,268,-474,124,795,-295
2.73935,476,-677,-396,268,-474,124,795,-295
2.73985,476,-677,-396,269,-474,124,794,-295
2.74035,475,-677,-397,268,-474,124,795,-295
2.74085,476,-677,-397,268,-474,124,795,-296
2.74135,475,-677,-397,268,-474,124,795,-296
2.7418501,476,-677,-397,268,-474,124,795,-295
2.74235,476,-677,-396,268,-474,124,795,-295
2.74285,476,-677,-397,268,-473,124,795,-295
2.74335,476,-678,-397,268,-474,125,794,-295
2.74385,475,-678,-397,268,-474,124,795,-294
2.74435,475,-677,-396,268,-474,124,795,-295
2.74485,475,-677,-397,268,-474,124,795,-295
2.7453501,475,-677,-397,268,-474,124,795,-295
2.74585,475,-677,-397,268,-474,125,794,-295
2.74635,475,-678,-397,268,-474,125,795,-295
2.74685,475,-677,-396,268,-474,125,794,-294
2.74735,475,-677,-396,267,-474,125,795,-294
2.74785,475,-677,-396,268,-474,124,794,-294
2.7483501,476,-677,-396,268,-474,125,794,-294
2.74885,476,-677,-397,268,-474,125,795,-294
2.74935,476,-677,-396,268,-474,125,795,-294
2.74985,476,-677,-396,267,-474,125,794,-294
2.75035,475,-677,-396,268,-474,125,794,-293
2.75085,475,-678,-396,268,-474,124,794,-293
2.75135,475,-678,-396,268,-474,125,795,-294
2.7518501,476,-678,-396,268,-474,125,794,-294
2.75235,476,-678,-396,268,-474,125,794,-295
2.75285,476,-678,-397,268,-474,125,794,-295
2.75335,475,-678,-396,269,-474,125,795,-297
2.75385,476,-678,-397,269,-474,124,794,-297
2.75435,476,-678,-397,269,-474,125,795,-297
2.7548501,476,-678,-397,268,-474,124,795,-297
2.75535,476,-678,-397,268,-474,124,795,-296
2.75585,476,-678,-397,268,-474,124,795,-296
2.75635,475,-678,-396,268,-474,124,795,-296
2.75685,476,-678,-397,267,-474,124,794,-296
2.75735,476,-678,-396,267,-474,124,795,-296
2.75785,475,-677,-396,267,-473,124,794,-296
2.7583501,475,-677,-396,267,-473,124,794,-295
2.75885,474,-677,-396,267,-473,124,794,-295
2.75935,474,-677,-396,267,-473,124,795,-296
2.75985,474,-677,-396,268,-474,124,794,-296
2.76035,475,-677,-397,268,-474,125,794,-295
2.76085,474,-677,-397,268,-473,125,794,-295
2.7613502,475,-677,-396,268,-473,124,794,-295
2.76185,475,-677,-396,268,-474,124,794,-295
2.76235,475,-677,-396,268,-474,125,795,-296
2.76285,475,-677,-396,268,-474,124,794,-296
2.76335,475,-677,-396,267,-474,124,794,-296
2.76385,475,-677,-396,267,-474,125,794,-296
2.76435,475,-677,-397,267,-474,124,793,-296
2.7648501,475,-677,-396,267,-474,125,794,-296
2.76535,475,-678,-396,267,-474,124,793,-296
2.76585,475,-677,-397,267,-473,124,793,-296
2.76635,475,-677,-396,268,-474,124,793,-296
2.7669501,475,-677,-396,268,-474,124,793,-296
2.76745,476,-677,-396,268,-474,124,793,-296
2.76795,476,-678,-396,269,-474,125,794,-295
2.76845,476,-678,-397,269,-474,124,795,-296
2.76895,476,-678,-397,269,-474,124,795,-296
2.76945,476,-678,-397,269,-475,124,795,-296
2.7699502,476,-678,-397,268,-474,124,795,-295
2.77045,476,-678,-397,268,-474,124,795,-295
2.77095,476,-678,-397,268,-474,124,795,-295
2.77145,476,-678,-397,268,-474,124,795,-295
2.77195,475,-677,-396,268,-475,124,795,-295
2.77245,475,-676,-397,268,-474,124,795,-295
2.77295,474,-676,-397,268,-475,125,795,-295
2.7734501,475,-676,-397,269,-475,124,795,-296
2.77395,475,-677,-398,269,-475,124,795,-296
2.77445,475,-677,-398,269,-475,124,795,-296
2.77495,475,-677,-398,269,-475,124,795,-295
2.77545,475,-677,-398,269,-475,124,795,-296
2.77595,475,-677,-398,269,-475,124,795,-296
2.7764502,475,-676,-398,269,-475,124,795,-296
2.7769501,475,-677,-398,269,-474,124,795,-296
2.77745,475,-677,-397,269,-474,124,794,-296
2.77795,475,-677,-396,268,-474,124,794,-295
2.77845,475,-677,-395,267,-473,124,794,-295
2.77895,475,-677,-395,267,-473,124,794,-296
2.77945,474,-676,-395,267,-474,124,795,-296
2.7799501,474,-676,-396,267,-474,125,794,-295
2.78045,474,-676,-396,267,-474,124,794,-295
2.78095,475,-677,-396,267,-473,124,795,-295
2.78145,475,-677,-396,267,-474,125,795,-296
2.78195,476,-677,-396,267,-474,124,794,-295
2.78245,476,-677,-396,267,-474,124,795,-296
2.78295,475,-677,-396,268,-474,124,795,-296
2.7834501,475,-677,-396,268,-474,124,795,-296
2.78395,475,-677,-396,268,-474,124,795,-296
2.78445,475,-676,-396,268,-474,125,794,-295
2.78495,475,-677,-396,268,-474,124,795,-295
2.78545,475,-677,-396,268,-474,125,794,-295
2.78595,475,-677,-396,268,-474,125,795,-295
2.7864501,476,-677,-395,268,-473,125,794,-295
2.78695,476,-678,-396,268,-474,125,794,-295
2.78745,476,-678,-396,268,-473,125,794,-295
2.78795,476,-678,-397,268,-474,125,794,-295
2.78845,475,-678,-397,268,-473,125,794,-295
2.78895,475,-677,-397,268,-474,125,794,-295
2.78945,475,-677,-397,268,-474,124,794,-295
2.7899501,475,-677,-397,268,-474,125,794,-295
2.79045,475,-677,-397,268,-473,124,794,-295
2.79095,475,-677,-397,268,-474,125,794,-295
2.79145,475,-677,-397,268,-474,124,794,-295
2.79195,475,-677,-396,268,-474,124,794,-295
2.79245,476,-677,-397,268,-474,124,795,-295
2.7929502,476,-677,-397,269,-474,124,794,-295
2.79345,476,-677,-397,269,-474,124,794,-295
2.79395,476,-677,-397,269,-474,124,794,-295
2.79445,476,-678,-397,269,-474,124,795,-296
2.79495,476,-677,-397,269,-475,124,794,-295
2.79545,476,-678,-397,269,-474,124,794,-296
2.79595,476,-678,-396,269,-474,124,794,-296
2.7964501,476,-678,-396,268,-474,124,794,-296
2.79695,476,-678,-396,268,-474,124,794,-296
2.79745,476,-678,-396,268,-474,124,794,-295
2.79795,476,-677,-396,267,-473,124,794,-296
2.79845,475,-677,-396,266,-473,124,794,-296
2.79895,475,-677,-396,266,-474,124,794,-296
2.79945,475,-677,-396,267,-473,124,795,-296
2.7999501,475,-677,-397,267,-474,124,794,-296
2.80045,475,-677,-397,267,-473,124,794,-296
2.80095,474,-677,-396,268,-474,124,794,-295
2.80145,474,-676,-396,268,-473,124,794,-295
2.80195,474,-676,-396,268,-473,124,794,-296
2.80245,474,-675,-396,268,-474,124,795,-296
2.8029501,473,-675,-396,268,-474,124,794,-296
2.80345,474,-675,-397,268,-474,124,794,-296
2.80395,474,-676,-396,268,-474,124,794,-296
2.80445,474,-676,-396,268,-474,124,794,-296
2.80495,475,-677,-397,268,-474,124,794,-295
2.80545,476,-678,-396,268,-473,124,794,-295
2.80595,476,-678,-396,268,-474,124,794,-295
2.8064501,476,-677,-396,268,-474,124,794,-295
2.80695,475,-677,-397,268,-474,125,794,-295
2.80745,475,-677,-397,268,-474,125,795,-295
2.80795,475,-677,-397,268,-474,125,794,-295
2.80845,475,-677,-397,269,-474,125,795,-295
2.80895,475,-677,-397,268,-473,125,794,-295
2.8094501,475,-677,-396,267,-474,124,794,-296
2.80995,475,-677,-396,267,-474,124,794,-296
2.81045,475,-678,-396,267,-474,124,794,-295
2.81105,475,-678,-396,267,-473,124,794,-295
2.8115501,476,-678,-397,267,-473,124,794,-295
2.81205,476,-677,-396,267,-473,124,794,-295
2.81255,476,-677,-396,267,-474,124,794,-296
2.81305,476,-676,-396,268,-474,124,794,-296
2.81355,476,-677,-396,268,-474,124,794,-295
2.81405,476,-677,-396,268,-474,124,794,-295
2.81455,476,-678,-396,268,-474,124,794,-295
2.8150501,476,-678,-396,268,-474,124,794,-295
2.81555,476,-678,-397,268,-474,124,794,-295
2.81605,476,-678,-397,268,-474,124,794,-296
2.81655,476,-678,-397,268,-474,124,794,-296
2.81705,475,-677,-397,268,-474,124,793,-295
2.81755,475,-678,-397,268,-473,124,794,-295
2.8180501,476,-678,-397,268,-474,124,793,-296
2.81855,475,-678,-397,268,-474,124,793,-295
2.81905,475,-677,-397,268,-474,124,794,-296
2.81955,475,-677,-396,267,-474,124,794,-295
2.82005,475,-677,-396,268,-474,124,795,-295
2.82055,475,-676,-397,268,-474,124,795,-295
2.82105,475,-677,-397,268,-474,124,794,-295
2.8215501,475,-677,-396,268,-473,124,795,-295
2.82205,475,-677,-396,268,-474,124,795,-295
2.82255,476,-677,-396,268,-474,125,795,-296
2.82305,476,-677,-397,268,-474,124,794,-295
2.82355,476,-678,-397,268,-474,124,794,-296
2.82405,476,-677,-397,268,-474,124,795,-296
2.8245502,475,-677,-397,268,-474,124,795,-295
2.82505,475,-677,-397,268,-474,124,795,-295
2.82555,475,-677,-397,268,-474,124,795,-295
2.82605,474,-676,-397,268,-474,125,795,-295
2.82655,474,-676,-397,268,-474,124,795,-295
2.82705,474,-676,-396,268,-473,124,794,-296
2.82755,475,-676,-397,268,-474,124,795,-296
2.8280501,474,-676,-396,268,-474,125,794,-295
2.82855,475,-677,-396,268,-473,124,794,-295
2.82905,476,-678,-397,267,-473,124,794,-296
2.82955,476,-679,-397,267,-473,124,794,-296
2.83005,477,-679,-397,268,-473,124,794,-296
2.83055,476,-679,-397,268,-474,124,794,-295
2.83105,476,-678,-397,268,-473,124,794,-295
2.8315501,476,-678,-397,267,-473,124,794,-295
2.83205,476,-678,-396,267,-474,124,794,-295
2.83255,476,-678,-396,268,-474,124,794,-296
2.83305,475,-678,-396,268,-474,124,794,-296
2.83355,476,-678,-396,268,-474,124,794,-296
2.83405,476,-678,-396,268,-474,124,794,-296
2.8345501,476,-678,-396,268,-474,124,794,-296
2.83505,476,-678,-396,268,-474,124,794,-296
2.83555,476,-678,-396,268,-473,124,794,-296
2.83605,475,-678,-396,268,-474,124,794,-296
2.83655,476,-677,-396,268,-474,124,794,-296
2.83705,475,-677,-397,268,-474,124,795,-296
2.83755,476,-677,-397,268,-474,124,795,-296
2.8380501,476,-677,-397,268,-474,124,794,-296
2.83855,475,-677,-396,268,-474,124,794,-296
2.83905,475,-677,-397,268,-474,125,794,-295
2.83955,476,-677,-397,268,-474,125,794,-295
2.84005,475,-677,-397,267,-473,125,794,-294
2.84055,475,-677,-397,268,-474,125,794,-294
2.8410501,475,-677,-397,268,-474,125,794,-294
2.84155,475,-676,-397,268,-473,125,794,-294
2.84205,476,-677,-397,267,-473,125,793,-295
2.84255,476,-677,-396,268,-473,124,793,-296
2.84305,476,-677,-396,268,-473,124,793,-296
2.84355,476,-677,-396,267,-473,124,793,-296
2.84405,476,-677,-396,268,-473,124,793,-296
2.8445501,475,-677,-397,268,-473,124,794,-296
2.84505,476,-677,-397,268,-474,124,794,-296
2.84555,476,-677,-397,268,-474,124,795,-295
2.84605,476,-677,-397,268,-474,124,795,-296
2.84655,476,-678,-397,268,-474,124,795,-296
2.84705,476,-678,-396,267,-474,125,795,-296
2.8475502,476,-677,-396,267,-474,125,795,-296
2.84805,476,-677,-397,267,-474,125,794,-295
2.84855,476,-677,-397,267,-473,124,794,-295
2.84905,475,-677,-397,267,-473,124,794,-295
2.84955,475,-677,-397,267,-474,124,794,-296
2.85005,475,-677,-397,267,-474,124,794,-295
2.85055,475,-677,-397,268,-474,124,794,-295
2.8510501,476,-677,-397,268,-473,124,794,-295
2.85155,476,-677,-397,268,-474,124,794,-295
2.85205,476,-677,-396,268,-473,124,794,-296
2.85255,476,-678,-396,268,-474,124,794,-296
2.85305,475,-678,-396,268,-474,124,794,-296
2.85355,475,-678,-395,268,-474,124,794,-296
2.85405,476,-678,-396,268,-474,124,794,-296
2.85465,476,-678,-396,268,-474,124,794,-296
2.85515,476,-679,-397,268,-474,123,794,-296
2.85565,476,-678,-397,268,-474,123,794,-296
2.8561502,476,-678,-397,268,-474,124,794,-296
2.85665,475,-677,-397,268,-474,124,794,-296
2.85715,475,-677,-398,268,-473,125,794,-296
2.85765,476,-677,-398,269,-474,125,794,-295
2.85815,476,-678,-398,268,-474,125,794,-296
2.85865,476,-678,-396,268,-473,125,794,-296
2.85915,476,-678,-395,267,-474,124,794,-296
2.8596501,476,-678,-395,267,-473,124,793,-296
2.86015,475,-678,-396,267,-473,124,793,-296
2.86065,476,-678,-396,267,-474,124,793,-295
2.86115,475,-677,-396,267,-473,124,794,-296
2.86165,475,-676,-396,267,-473,124,793,-296
2.86215,475,-676,-396,267,-474,124,794,-296
2.8626502,475,-676,-397,268,-473,124,794,-296
2.8631501,474,-676,-397,268,-473,124,794,-296
2.86365,475,-676,-396,268,-473,124,794,-296
2.86415,475,-676,-397,267,-473,124,794,-296
2.86465,475,-677,-397,267,-474,124,794,-296
2.86515,476,-677,-396,267,-473,124,795,-296
2.86565,476,-677,-396,268,-474,124,794,-295
2.8661501,476,-677,-396,268,-474,125,795,-294
2.86665,476,-677,-396,268,-473,125,795,-294
2.86715,476,-677,-396,268,-474,125,794,-295
2.86765,476,-677,-396,268,-473,125,794,-295
2.86815,476,-677,-396,268,-473,124,794,-296
2.86865,476,-678,-396,268,-474,124,795,-296
2.86915,476,-677,-396,268,-474,124,794,-296
2.8696501,476,-678,-396,267,-473,124,794,-296
2.87015,475,-677,-397,268,-474,124,794,-296
2.87065,475,-677,-397,267,-473,124,794,-295
2.87115,475,-677,-397,267,-473,125,794,-295
2.87165,475,-677,-396,267,-473,124,794,-295
2.87215,475,-677,-396,267,-473,124,794,-296
2.8726501,475,-678,-396,266,-474,124,794,-296
2.87315,476,-678,-396,267,-474,124,794,-296
2.87365,476,-678,-396,267,-473,124,794,-296
2.87415,476,-678,-396,267,-473,125,794,-296
2.87465,475,-677,-396,268,-473,124,794,-295
2.87515,476,-677,-396,268,-473,125,794,-295
2.87565,475,-677,-396,268,-473,125,794,-295
2.8761501,475,-677,-397,268,-473,125,794,-295
2.87665,475,-677,-397,268,-473,125,794,-295
2.87715,475,-677,-397,268,-473,125,794,-295
2.87765,476,-677,-396,268,-474,124,794,-296
2.87815,475,-677,-397,267,-474,124,794,-296
2.87865,475,-677,-397,267,-474,124,794,-296
2.8791502,475,-677,-397,268,-474,124,794,-296
2.87965,476,-677,-397,268,-473,124,794,-296
2.88015,476,-678,-397,268,-473,124,794,-295
2.88065,476,-677,-397,267,-473,124,794,-295
2.88115,476,-678,-397,268,-473,124,794,-296
2.88165,476,-678,-397,267,-473,124,794,-296
2.88215,476,-677,-396,268,-474,124,794,-296
2.8826501,476,-678,-396,268,-473,124,794,-296
2.88315,476,-678,-396,268,-473,124,794,-296
2.88365,476,-678,-396,268,-473,124,794,-297
2.88415,476,-678,-397,268,-473,124,794,-297
2.88465,476,-678,-397,268,-474,124,794,-296
2.88515,476,-677,-397,268,-474,124,794,-296
2.88565,475,-677,-397,269,-474,124,794,-296
2.8861501,475,-676,-398,268,-473,125,794,-296
2.88665,474,-676,-398,269,-474,124,794,-295
2.88715,473,-675,-398,269,-473,125,794,-296
2.88765,473,-676,-398,269,-474,124,794,-295
2.88815,474,-676,-398,269,-474,125,795,-295
2.88865,474,-676,-398,269,-473,125,794,-294
2.8891501,474,-676,-398,269,-474,125,794,-294
2.88965,475,-677,-397,268,-474,125,794,-294
2.89015,475,-678,-397,267,-473,125,794,-294
2.89065,476,-678,-396,267,-473,125,794,-295
2.89115,476,-678,-395,267,-473,125,794,-295
2.89165,476,-678,-396,266,-473,124,794,-295
2.89215,477,-678,-396,266,-473,125,794,-296
2.8926501,476,-678,-396,267,-474,124,794,-296
2.89315,476,-678,-396,267,-474,124,794,-295
2.89365,475,-678,-396,267,-473,124,794,-296
2.89415,475,-677,-397,267,-473,124,794,-296
2.89465,475,-677,-397,267,-474,124,794,-295
2.89515,475,-677,-397,267,-473,124,794,-296
2.8956501,475,-677,-396,267,-473,124,794,-296
2.89615,475,-677,-396,267,-473,124,794,-296
2.89665,476,-677,-396,267,-473,124,794,-296
2.89715,476,-677,-396,267,-473,124,794,-296
2.89765,476,-678,-397,267,-473,124,794,-296
2.89815,476,-678,-397,268,-473,124,795,-296
2.89865,476,-678,-397,267,-473,124,794,-296
2.89925,476,-678,-397,268,-473,124,794,-296
2.89975,476,-678,-396,267,-473,124,794,-296
2.90025,475,-678,-396,267,-473,124,794,-295
2.90075,476,-678,-396,268,-473,124,793,-295
2.9012501,476,-678,-396,268,-473,124,794,-295
2.90175,476,-677,-396,267,-474,124,794,-296
2.90225,476,-677,-396,268,-474,124,794,-296
2.90275,476,-678,-396,268,-474,124,794,-296
2.90325,476,-678,-396,268,-473,124,794,-296
2.90375,476,-678,-397,268,-473,124,794,-296
2.9042501,475,-678,-396,267,-473,124,794,-296
2.90475,475,-678,-397,268,-473,124,794,-296
2.90525,475,-678,-397,268,-473,124,794,-296
2.90575,475,-678,-397,268,-473,124,794,-296
2.90625,475,-678,-397,267,-473,124,794,-296
2.90675,475,-677,-397,268,-474,124,794,-296
2.90725,475,-677,-397,268,-473,124,794,-296
2.9077501,475,-677,-396,267,-473,125,794,-296
2.90825,475,-677,-396,268,-473,124,794,-296
2.90875,476,-677,-396,267,-473,124,794,-296
2.90925,476,-677,-396,267,-473,124,794,-296
2.90975,475,-677,-396,267,-473,125,794,-295
2.91025,475,-677,-397,268,-473,124,794,-295
2.9107502,475,-677,-396,268,-473,124,794,-295
2.91125,475,-677,-397,268,-473,124,794,-295
2.91175,476,-677,-396,268,-473,124,794,-296
2.91225,476,-677,-396,268,-474,124,794,-296
2.91275,476,-677,-396,267,-474,124,794,-296
2.91325,476,-677,-396,268,-474,124,794,-296
2.91375,476,-677,-396,268,-474,124,794,-296
2.9142501,475,-677,-396,268,-474,124,794,-296
2.91475,476,-677,-396,267,-473,124,794,-296
2.91525,475,-678,-397,267,-473,124,794,-296
2.91575,476,-677,-397,268,-473,124,794,-296
2.91625,476,-678,-397,268,-473,125,794,-296
2.91675,476,-678,-397,268,-473,124,794,-296
2.9172502,476,-678,-397,268,-473,125,794,-295
2.9177501,476,-677,-397,267,-473,125,794,-295
2.91825,475,-677,-397,267,-473,124,794,-295
2.91875,475,-677,-397,268,-473,125,794,-295
2.91925,475,-677,-397,268,-473,124,794,-295
2.91975,474,-677,-397,268,-473,125,794,-295
2.92025,474,-676,-397,268,-473,124,794,-295
2.9207501,475,-677,-396,267,-473,124,794,-296
2.92125,475,-677,-396,267,-474,124,794,-296
2.92175,475,-677,-396,268,-473,124,794,-296
2.92225,475,-677,-396,268,-473,124,794,-296
2.92275,476,-677,-396,268,-473,124,794,-295
2.92325,476,-677,-397,268,-473,124,794,-295
2.92375,477,-678,-396,268,-472,124,793,-295
2.9242501,477,-679,-396,268,-473,125,793,-295
2.92475,478,-679,-397,268,-473,124,793,-295
2.92525,477,-679,-397,268,-473,125,793,-295
2.92575,477,-678,-397,267,-473,124,793,-296
2.92625,476,-678,-397,267,-473,124,793,-296
2.92675,476,-678,-397,268,-473,124,794,-296
2.9272501,475,-677,-397,267,-474,124,794,-296
2.92775,476,-677,-397,267,-473,124,795,-296
2.92825,475,-676,-397,268,-473,124,795,-296
2.92875,475,-677,-397,268,-474,124,795,-296
2.92925,475,-677,-397,268,-473,125,794,-295
2.92975,474,-677,-398,268,-473,124,794,-295
2.93025,475,-678,-397,268,-473,124,794,-295
2.9307501,476,-678,-397,268,-473,124,794,-296
2.93125,476,-679,-397,268,-474,124,794,-296
2.93175,476,-679,-396,268,-473,124,793,-296
2.93225,476,-678,-396,268,-473,124,793,-296
2.93275,475,-678,-396,269,-473,124,793,-296
2.93325,476,-678,-396,268,-473,124,793,-296
2.9337502,476,-678,-396,268,-473,124,793,-296
2.93425,476,-678,-396,268,-474,124,793,-296
2.93475,476,-678,-397,268,-473,124,794,-296
2.93525,476,-678,-397,268,-473,125,794,-295
2.93575,475,-677,-397,269,-473,124,794,-296
2.93625,476,-677,-397,268,-473,124,795,-296
2.93675,476,-678,-397,268,-474,124,795,-296
2.9372501,476,-678,-397,268,-473,124,795,-296
2.93775,476,-678,-397,269,-474,124,794,-296
2.93825,476,-677,-397,268,-473,124,794,-296
2.93875,475,-677,-397,268,-473,124,794,-296
2.93925,476,-677,-396,268,-473,124,794,-296
2.93975,474,-677,-397,267,-473,124,794,-296
2.94025,475,-676,-396,267,-473,124,793,-296
2.9407501,475,-676,-397,267,-473,124,794,-296
2.94125,475,-676,-397,267,-473,124,794,-296
2.94175,475,-676,-396,267,-473,124,794,-296
2.94225,475,-676,-396,267,-473,124,794,-296
2.94275,475,-676,-397,267,-473,124,794,-296
2.94335,475,-677,-397,267,-473,124,794,-296
2.94385,476,-677,-396,267,-473,124,794,-296
2.94435,476,-678,-396,267,-474,125,794,-296
2.94485,476,-678,-396,268,-473,125,794,-295
2.94535,477,-679,-396,268,-473,125,794,-295
2.9458501,477,-678,-396,267,-473,125,794,-296
2.94635,477,-678,-397,268,-474,125,794,-296
2.94685,476,-678,-396,268,-474,125,794,-296
2.94735,476,-677,-396,267,-474,125,794,-296
2.94785,475,-677,-396,267,-473,125,793,-296
2.94835,475,-677,-396,267,-473,124,794,-295
2.9488502,475,-677,-397,267,-473,125,794,-296
2.94935,475,-676,-396,267,-473,125,794,-296
2.94985,474,-677,-397,267,-473,125,794,-295
2.95035,475,-677,-397,267,-473,124,794,-295
2.95085,475,-677,-397,267,-473,124,794,-295
2.95135,475,-678,-397,267,-473,124,794,-295
2.95185,476,-678,-397,267,-474,125,794,-296
2.9523501,476,-678,-397,268,-474,124,794,-296
2.95285,476,-678,-397,267,-474,125,794,-296
2.95335,477,-678,-397,267,-473,125,794,-296
2.95385,477,-678,-397,267,-473,124,794,-296
2.95435,477,-678,-397,268,-473,124,793,-296
2.95485,477,-678,-396,268,-473,124,793,-296
2.95535,477,-678,-397,268,-473,124,793,-296
2.9558501,477,-678,-397,267,-473,124,793,-296
2.95635,477,-678,-397,267,-473,124,794,-296
2.95685,477,-678,-397,267,-473,124,793,-296
2.95735,477,-678,-397,267,-474,124,793,-296
2.95785,477,-678,-397,267,-473,124,793,-296
2.95835,476,-678,-397,267,-474,124,794,-296
2.9588501,477,-678,-396,268,-473,124,794,-296
2.95935,477,-678,-396,267,-473,124,794,-295
2.95985,476,-677,-397,267,-473,124,794,-296
2.96035,475,-677,-397,267,-473,124,794,-296
2.96085,475,-677,-397,267,-473,124,794,-296
2.96135,475,-678,-398,268,-473,124,794,-296
2.96185,476,-677,-397,268,-473,124,794,-296
2.9623501,476,-677,-397,267,-473,124,794,-296
2.96285,476,-677,-397,267,-473,125,794,-296
2.96335,476,-677,-396,267,-473,125,794,-296
2.96385,476,-677,-396,267,-473,125,794,-295
2.96435,476,-677,-396,267,-473,125,794,-296
2.96485,476,-677,-397,267,-474,125,795,-295
2.9653502,476,-678,-397,268,-474,124,794,-295
2.96585,475,-677,-397,268,-473,125,794,-295
2.96635,475,-677,-397,268,-473,125,793,-295
2.96685,475,-677,-397,267,-473,125,794,-295
2.96735,475,-677,-397,267,-473,124,794,-296
2.96785,475,-677,-397,267,-473,124,794,-296
2.96835,475,-677,-397,268,-474,125,794,-295
2.9688501,475,-677,-397,268,-473,125,794,-296
2.96935,474,-676,-397,268,-473,124,794,-296
2.96985,473,-676,-397,268,-473,124,793,-295
2.97035,474,-676,-396,267,-473,124,794,-295
2.97085,474,-676,-396,267,-473,124,793,-296
2.97135,474,-676,-396,267,-473,124,794,-296
2.9718502,475,-676,-397,267,-473,124,794,-296
2.9723501,476,-677,-397,267,-473,124,794,-297
2.97285,476,-678,-397,268,-473,124,794,-297
2.97335,477,-679,-397,268,-473,124,794,-297
2.97385,478,-679,-397,268,-473,124,794,-296
2.97435,477,-679,-398,268,-473,125,794,-296
2.97485,476,-678,-398,268,-474,125,794,-296
2.9753501,476,-678,-398,268,-473,125,794,-296
2.97585,476,-678,-398,268,-473,125,794,-295
2.97635,476,-678,-397,267,-473,125,794,-296
2.97685,476,-678,-397,267,-473,125,794,-296
2.97735,475,-677,-396,267,-474,125,793,-295
2.97785,475,-677,-395,267,-473,125,794,-295
2.97835,475,-677,-395,267,-473,125,794,-295
2.9788501,475,-677,-396,267,-473,125,794,-295
2.97935,475,-677,-396,267,-473,125,794,-295
2.97985,474,-677,-397,268,-473,125,793,-295
2.98035,475,-677,-397,267,-474,125,793,-295
2.98085,475,-677,-397,267,-473,124,794,-295
2.98135,476,-678,-396,267,-473,124,794,-295
2.9818501,476,-678,-396,267,-473,125,794,-296
2.98235,476,-678,-396,267,-473,124,794,-296
2.98285,476,-678,-397,267,-473,124,794,-296
2.98335,476,-678,-397,268,-473,124,794,-296
2.98385,476,-678,-397,267,-473,124,794,-296
2.98435,476,-678,-397,268,-473,124,794,-296
2.98485,476,-678,-397,268,-474,124,793,-296
2.9853501,476,-678,-397,268,-473,124,794,-297
2.98585,476,-678,-397,268,-473,124,794,-296
2.98635,476,-678,-397,267,-473,124,794,-296
2.98695,476,-678,-397,267,-474,124,794,-296
2.9874501,476,-678,-397,267,-473,124,794,-296
2.98795,476,-678,-397,267,-473,124,794,-295
2.98845,476,-678,-396,267,-473,125,794,-295
2.98895,476,-678,-397,268,-473,125,794,-295
2.98945,476,-678,-397,268,-473,125,793,-295
2.98995,476,-678,-398,268,-474,125,794,-294
2.9904501,476,-678,-397,268,-474,125,794,-295
2.99095,476,-678,-397,267,-474,125,793,-295
2.99145,476,-678,-396,267,-473,125,794,-295
2.99195,476,-678,-397,267,-474,125,794,-295
2.99245,476,-678,-397,268,-474,125,794,-296
2.99295,476,-677,-397,268,-474,125,794,-295
2.99345,476,-677,-397,267,-474,125,793,-295
2.9939501,476,-678,-397,267,-473,125,793,-295
2.99445,476,-678,-397,267,-474,125,793,-295
2.99495,476,-678,-397,267,-474,125,793,-295
2.99545,476,-678,-396,267,-473,125,793,-295
2.99595,476,-678,-397,267,-473,125,793,-295
2.99645,476,-678,-396,267,-473,124,793,-295
2.9969501,476,-678,-397,267,-473,124,793,-295
2.99745,476,-678,-397,267,-473,125,793,-296
2.99795,476,-678,-397,267,-474,124,794,-296
2.99845,476,-678,-397,267,-474,125,794,-296
2.99895,476,-678,-397,267,-474,124,794,-296
2.99945,475,-678,-397,267,-473,124,794,-296
2.99995,475,-678,-397,268,-473,125,793,-295
3.0004501,475,-678,-397,268,-473,124,793,-295
3.00095,476,-678,-397,268,-473,124,794,-295
3.00145,476,-678,-398,268,-474,124,794,-296
3.00195,476,-678,-397,268,-474,124,795,-296
3.00245,476,-677,-397,268,-473,124,794,-296
3.00295,475,-677,-397,268,-473,124,794,-296
3.0034502,476,-677,-397,268,-473,124,793,-296
3.00395,476,-678,-397,268,-473,124,794,-296
3.00445,476,-678,-398,268,-473,125,794,-296
3.00495,476,-678,-398,268,-473,124,794,-296
3.00545,476,-677,-398,269,-473,125,794,-295
3.00595,476,-677,-398,269,-473,125,794,-296
3.00645,475,-677,-398,269,-473,125,794,-295
3.0069501,476,-678,-398,268,-473,125,794,-295
3.00745,476,-677,-398,268,-473,125,794,-295
3.00795,476,-678,-397,268,-473,125,793,-295
3.00845,475,-677,-396,267,-473,125,794,-295
3.00895,475,-676,-396,267,-473,125,793,-295
3.00945,475,-677,-396,267,-473,125,793,-295
3.00995,475,-677,-397,266,-473,125,793,-295
3.0104501,475,-677,-396,266,-473,124,793,-295
3.01095,476,-678,-396,266,-473,124,793,-295
3.01145,476,-678,-396,266,-473,124,794,-296
3.01195,476,-678,-396,267,-473,125,793,-296
3.01245,476,-677,-396,267,-473,124,793,-296
3.01295,475,-678,-396,267,-473,124,794,-296
3.0134501,476,-678,-396,267,-472,124,794,-296
3.01395,476,-678,-396,267,-473,124,793,-296
3.01445,476,-678,-396,267,-473,124,794,-295
3.01495,476,-677,-396,267,-473,124,793,-296
3.01545,476,-678,-396,267,-473,124,793,-295
3.01595,476,-678,-397,267,-473,124,794,-296
3.01645,476,-678,-397,267,-473,124,793,-296
3.0169501,476,-678,-397,268,-473,124,793,-295
3.01745,476,-678,-396,267,-473,124,793,-296
3.01795,476,-678,-397,268,-473,124,793,-296
3.01845,476,-678,-397,267,-473,124,794,-296
3.01895,476,-678,-397,267,-473,124,794,-296
3.01945,475,-678,-397,267,-473,124,794,-296
3.0199502,476,-678,-397,268,-473,125,794,-295
3.02045,475,-678,-397,267,-473,124,794,-296
3.02095,476,-677,-397,267,-473,125,793,-295
3.02145,476,-677,-397,267,-474,125,794,-296
3.02195,476,-677,-397,267,-473,125,794,-296
3.02245,476,-678,-397,267,-474,124,794,-296
3.02295,476,-678,-397,268,-473,125,794,-296
3.0234501,476,-678,-397,268,-473,124,794,-296
3.02395,477,-677,-397,267,-473,124,793,-296
3.02445,476,-678,-397,268,-473,124,793,-295
3.02495,476,-677,-397,267,-473,124,793,-296
3.02545,475,-676,-397,267,-473,124,794,-296
3.02595,475,-677,-397,268,-474,124,793,-296
3.0264502,475,-676,-397,267,-473,124,794,-295
3.0269501,474,-676,-397,268,-473,125,794,-296
3.02745,474,-675,-397,267,-473,125,793,-295
3.02795,474,-676,-397,267,-473,124,793,-295
3.02845,474,-675,-397,267,-473,124,793,-295
3.02895,475,-676,-397,266,-473,124,793,-295
3.02945,475,-677,-398,267,-473,124,792,-295
3.0299501,475,-677,-398,267,-473,124,793,-295
3.03055,476,-678,-397,267,-473,124,793,-296
3.03105,476,-678,-398,268,-473,124,793,-296
3.03155,476,-678,-397,268,-474,124,793,-296
3.0320501,476,-678,-397,267,-473,124,794,-296
3.03255,475,-677,-396,268,-473,124,794,-296
3.03305,475,-677,-396,267,-473,124,794,-296
3.03355,475,-677,-396,267,-473,124,794,-296
3.03405,475,-677,-397,267,-473,124,794,-296
3.03455,475,-677,-397,267,-473,124,794,-296
3.0350502,475,-678,-397,267,-473,125,793,-295
3.03555,476,-678,-397,267,-473,124,794,-295
3.03605,476,-678,-397,267,-473,125,794,-295
3.03655,477,-679,-397,267,-473,124,793,-295
3.03705,476,-678,-397,268,-474,124,793,-295
3.03755,476,-678,-397,267,-473,124,794,-296
3.03805,476,-678,-397,268,-473,124,793,-296
3.0385501,476,-678,-397,267,-473,124,793,-296
3.03905,476,-678,-397,267,-473,124,793,-296
3.03955,476,-678,-397,267,-473,124,793,-296
3.04005,476,-678,-397,267,-473,124,793,-295
3.04055,476,-678,-397,267,-473,124,793,-296
3.04105,476,-678,-397,267,-473,124,793,-295
3.04155,476,-678,-397,267,-473,125,794,-295
3.0420501,476,-677,-396,267,-473,125,794,-295
3.04255,476,-678,-397,268,-473,125,794,-295
3.04305,477,-678,-397,268,-473,125,794,-294
3.04355,477,-679,-397,268,-473,125,794,-294
3.04405,477,-679,-397,267,-474,125,793,-295
3.04455,477,-679,-397,268,-473,125,794,-295
3.0450501,476,-679,-397,267,-473,125,793,-295
3.04555,477,-679,-397,268,-474,124,793,-296
3.04605,476,-679,-397,268,-473,124,793,-296
3.04655,476,-679,-397,268,-474,124,793,-296
3.04705,476,-679,-397,268,-473,124,793,-296
3.04755,476,-678,-397,268,-474,124,793,-296
3.04805,477,-679,-397,268,-473,124,793,-296
3.0485501,477,-678,-397,268,-473,124,793,-295
3.04905,476,-677,-397,267,-473,125,793,-296
3.04955,476,-677,-397,266,-472,124,793,-295
3.05005,476,-677,-397,265,-473,124,793,-295
3.05055,476,-677,-397,266,-473,125,793,-295
3.05105,475,-677,-397,266,-473,125,793,-294
3.0515501,476,-677,-397,267,-474,125,794,-295
3.05205,476,-677,-397,267,-473,125,794,-295
3.05255,476,-677,-397,267,-473,125,794,-295
3.05305,476,-677,-397,267,-473,125,794,-296
3.05355,476,-677,-396,267,-473,124,794,-295
3.05405,476,-678,-397,267,-473,124,794,-296
3.05455,476,-678,-397,267,-473,124,793,-296
3.0550501,476,-678,-397,267,-473,124,793,-296
3.05555,476,-677,-397,268,-473,124,793,-295
3.05605,477,-678,-397,268,-473,124,793,-296
3.05655,477,-678,-397,267,-473,124,793,-295
3.05705,476,-678,-397,267,-474,124,794,-295
3.05755,476,-678,-397,268,-473,124,793,-296
3.0580502,476,-678,-397,267,-473,124,794,-296
3.0585501,475,-677,-397,267,-473,124,794,-295
3.05905,475,-677,-397,267,-473,124,794,-296
3.05955,475,-678,-397,267,-473,124,793,-295
3.06005,475,-678,-397,268,-473,124,793,-295
3.06055,476,-678,-397,267,-473,125,794,-295
3.06105,476,-678,-398,268,-473,125,794,-295
3.0615501,476,-678,-398,268,-473,125,794,-295
3.06205,476,-678,-398,268,-474,124,794,-296
