elapsed_s,lhl,lhm,lgm,lgl,lpl,lrf,lta,lvl
637.638,44,-92,-316,186,-180,85,787,28
637.6385,45,-92,-316,186,-180,86,787,28
637.639,45,-92,-316,186,-180,86,787,28
637.6395,45,-93,-316,187,-180,86,787,28
637.64,45,-93,-316,187,-179,86,786,28
637.6405,45,-93,-316,186,-180,85,787,28
637.641,45,-94,-316,186,-180,85,787,28
637.6415,45,-94,-316,185,-179,86,787,28
637.642,46,-94,-315,186,-180,86,787,28
637.6425,45,-94,-315,185,-180,86,787,29
637.6431,45,-93,-315,185,-179,86,787,29
637.6436,44,-92,-316,185,-180,86,787,29
637.6441,43,-91,-316,187,-180,86,787,29
637.6446,44,-91,-316,186,-180,87,787,29
637.6451,44,-91,-316,187,-181,86,787,29
637.6456,45,-91,-316,186,-181,86,787,29
637.6461,45,-91,-316,187,-181,86,787,28
637.6466,45,-91,-316,188,-181,86,788,28
637.6471,45,-92,-316,188,-181,86,788,28
637.6476,44,-92,-317,189,-181,86,788,28
637.6481,45,-92,-317,188,-180,86,788,28
637.6486,44,-92,-317,188,-180,86,788,28
637.6491,44,-92,-317,188,-180,86,788,28
637.6496,43,-91,-317,188,-179,86,787,29
637.6501,42,-90,-317,186,-179,86,787,28
637.6506,42,-90,-316,185,-179,86,787,29
637.6511,43,-90,-316,185,-180,86,787,29
637.6516,43,-90,-316,185,-179,87,788,30
637.6521,45,-91,-316,187,-180,86,788,30
637.6526,45,-91,-317,187,-180,87,788,30
637.6531,45,-90,-317,187,-180,87,788,30
637.6536,44,-90,-317,187,-179,86,788,30
637.6541,44,-90,-316,187,-179,86,788,29
637.6546,44,-90,-316,187,-179,86,788,29
637.6551,45,-91,-316,188,-179,86,788,28
637.6556,44,-91,-316,188,-180,85,787,28
637.6561,44,-91,-315,187,-180,86,787,28
637.6566,45,-91,-315,186,-181,86,787,28
637.6571,45,-92,-314,185,-181,86,787,28
637.6576,45,-92,-314,186,-181,85,787,28
637.6581,45,-92,-315,186,-181,86,787,28
637.6586,45,-91,-315,186,-182,86,787,28
637.6591,44,-91,-316,187,-182,87,788,29
637.6596,45,-91,-316,187,-181,87,788,29
637.6601,44,-92,-316,187,-181,86,788,29
637.6606,44,-91,-316,187,-181,86,787,29
637.6611,44,-92,-316,187,-180,87,788,29
637.6616,44,-91,-316,187,-181,86,788,29
637.6621,43,-91,-316,187,-180,86,788,29
637.6626,43,-91,-316,187,-180,87,788,29
637.6631,43,-91,-315,186,-180,86,787,30
637.6636,44,-91,-315,186,-180,86,787,29
637.6641,43,-91,-316,186,-180,86,786,29
637.6646,43,-90,-315,186,-180,86,787,29
637.6651,44,-91,-315,186,-180,86,787,29
637.6656,45,-92,-315,187,-180,86,786,29
637.6661,45,-93,-315,187,-180,86,786,29
637.6666,45,-92,-315,187,-180,86,786,29
637.6671,45,-92,-316,187,-180,86,786,29
637.6676,45,-92,-315,187,-180,86,786,29
637.6681,45,-93,-315,186,-180,86,786,29
637.6686,44,-92,-316,186,-180,86,786,29
637.6691,44,-92,-316,186,-180,86,787,29
637.6696,44,-91,-316,187,-179,86,787,28
637.6701,44,-91,-317,186,-180,86,787,28
637.6706,44,-91,-316,187,-180,86,787,28
637.6711,45,-92,-317,187,-180,86,788,28
637.6716,45,-92,-317,187,-180,86,787,29
637.6721,46,-93,-317,187,-180,86,788,28
637.6726,46,-93,-317,187,-180,87,787,28
637.6731,46,-93,-317,187,-180,86,787,29
637.6736,46,-93,-316,187,-179,86,787,29
637.6741,45,-92,-316,187,-179,86,787,29
637.6746,45,-93,-316,186,-180,86,787,29
637.6751,45,-92,-316,188,-180,86,787,29
637.6756,45,-92,-315,187,-180,87,788,29
637.6761,45,-92,-316,187,-180,86,788,29
637.6766,45,-92,-315,187,-180,86,787,29
637.6771,45,-92,-315,187,-180,86,787,28
637.6776,45,-92,-315,187,-180,86,788,28
637.6781,44,-91,-316,188,-181,86,787,29
637.6786,45,-91,-317,189,-180,87,787,29
637.6791,44,-91,-317,188,-180,86,787,29
637.6796,44,-91,-317,188,-180,86,787,29
637.6801,43,-91,-318,188,-180,86,786,29
637.6806,44,-91,-317,188,-180,86,786,28
637.6811,43,-91,-317,188,-181,86,787,29
637.6816,44,-91,-317,186,-181,86,788,29
637.6821,44,-91,-316,187,-180,86,787,29
637.6826,44,-91,-315,187,-180,86,787,29
637.6831,44,-91,-315,187,-180,86,787,29
637.6836,44,-91,-315,187,-180,86,787,29
637.6841,44,-92,-315,187,-180,86,787,28
637.6846,45,-92,-315,186,-180,85,787,28
637.6851,44,-91,-315,187,-181,86,788,28
637.6856,44,-91,-315,187,-180,87,788,29
637.6861,43,-90,-316,188,-181,86,788,29
637.6866,43,-90,-316,188,-181,86,788,29
637.6871,43,-91,-316,187,-181,86,788,28
637.6876,43,-90,-316,186,-181,86,788,29
637.6881,43,-90,-315,186,-181,87,788,29
637.6887,44,-90,-315,186,-181,86,787,29
637.6892,45,-92,-315,186,-181,87,787,29
637.6897,45,-92,-316,186,-181,87,788,29
637.6902,45,-93,-316,187,-181,87,788,29
637.6907,46,-92,-316,187,-181,86,788,29
637.6912,45,-92,-316,186,-181,86,788,29
637.6917,45,-92,-315,186,-181,86,788,29
637.6922,45,-91,-314,186,-181,86,788,28
637.6927,44,-91,-315,186,-180,86,787,28
637.6932,44,-91,-316,187,-181,86,787,29
637.6937,44,-91,-316,187,-180,86,787,29
637.6942,44,-91,-316,187,-179,86,786,29
637.6947,44,-91,-316,186,-180,86,786,29
637.6952,45,-91,-316,186,-180,86,786,29
637.6957,45,-92,-316,187,-180,87,786,29
637.6962,46,-92,-317,187,-180,86,786,29
637.6967,46,-93,-317,188,-180,86,786,29
637.6972,45,-92,-316,187,-180,86,786,29
637.6977,45,-92,-315,186,-180,86,786,29
637.6982,45,-92,-314,186,-179,87,785,30
637.69867,45,-92,-314,186,-180,87,786,30
637.6992,45,-92,-315,186,-180,87,786,30
637.6997,45,-92,-315,187,-180,87,786,29
637.7002,44,-92,-316,187,-180,87,786,29
637.7007,45,-92,-316,187,-180,86,786,29
637.7012,45,-92,-316,188,-180,86,786,29
637.7017,45,-92,-316,188,-180,86,787,28
637.7022,45,-92,-315,187,-180,86,787,29
637.7027,45,-92,-314,187,-181,86,787,29
637.7032,45,-92,-315,187,-180,86,787,28
637.7037,45,-92,-316,188,-180,86,788,29
637.7042,45,-92,-316,187,-181,86,788,28
637.7047,45,-92,-316,187,-180,86,787,28
637.7052,45,-92,-316,187,-181,86,787,29
637.7057,45,-92,-316,187,-180,86,787,28
637.7062,45,-92,-316,187,-180,86,787,29
637.7067,45,-92,-316,187,-180,86,787,30
637.7072,44,-92,-316,187,-180,87,788,30
637.7077,44,-92,-316,188,-181,87,788,30
637.7082,44,-92,-316,188,-180,86,788,30
637.7087,44,-92,-316,187,-180,86,787,29
637.7092,45,-93,-316,187,-180,86,787,28
637.7097,44,-93,-316,186,-180,86,786,28
637.7102,44,-93,-316,186,-180,85,786,28
637.7107,45,-92,-315,185,-180,85,786,28
637.7112,44,-92,-315,185,-180,86,786,29
637.7117,45,-93,-315,185,-179,86,786,28
637.7122,45,-92,-314,185,-179,86,786,29
637.7127,45,-92,-314,186,-180,86,787,29
637.7132,45,-93,-315,187,-179,87,787,30
637.7137,45,-92,-315,187,-180,87,787,31
637.7142,44,-92,-315,187,-180,87,787,31
637.7147,45,-92,-315,187,-180,87,787,31
637.7152,44,-92,-315,187,-180,87,787,31
637.7157,44,-92,-315,186,-180,87,787,31
637.7162,44,-91,-315,187,-180,88,788,31
637.7167,44,-91,-315,187,-181,87,788,31
637.7172,43,-90,-315,187,-180,87,787,30
637.7177,43,-90,-316,187,-181,87,787,30
637.7182,43,-90,-316,187,-180,87,787,29
637.7187,44,-90,-316,187,-181,86,788,29
637.7192,44,-91,-317,188,-180,86,787,28
637.7197,44,-91,-317,187,-181,87,788,28
637.7202,44,-91,-317,188,-181,86,787,28
637.7207,45,-92,-317,188,-181,86,788,28
637.7212,45,-92,-317,188,-181,87,788,29
637.7217,46,-93,-317,188,-180,87,788,29
637.7222,45,-93,-317,188,-180,87,788,29
637.7227,45,-93,-317,188,-180,87,787,29
637.7232,45,-93,-315,187,-180,87,787,29
637.7237,44,-93,-314,185,-180,86,786,29
637.7242,44,-92,-314,186,-179,86,786,29
637.7247,43,-92,-313,186,-179,86,787,29
637.7252,43,-90,-315,186,-180,86,787,29
637.7257,43,-90,-315,186,-180,86,787,29
637.7262,44,-90,-315,187,-180,86,787,29
637.7267,45,-90,-315,186,-180,86,787,29
637.7272,45,-91,-315,186,-180,86,787,28
637.7277,45,-91,-315,186,-180,85,787,28
637.7282,45,-91,-315,186,-180,86,788,29
637.7287,45,-91,-315,186,-180,86,787,29
637.7292,45,-91,-315,186,-179,86,787,28
637.7297,44,-91,-315,186,-180,86,787,29
637.7302,44,-91,-315,186,-180,86,786,29
637.7307,45,-91,-315,187,-180,86,787,28
637.7312,44,-91,-315,186,-181,86,787,29
637.7317,44,-91,-315,187,-181,86,787,29
637.7322,44,-90,-315,187,-180,87,787,30
637.7327,44,-91,-316,187,-180,88,787,31
637.7332,44,-91,-316,187,-181,88,787,31
637.7338,44,-91,-316,187,-180,88,787,31
637.7343,44,-91,-316,187,-180,87,787,30
637.7348,44,-91,-315,187,-181,87,787,29
637.7353,44,-91,-315,187,-180,87,787,29
637.7358,45,-91,-315,187,-180,87,787,29
637.7363,44,-90,-315,187,-180,87,787,30
637.7368,45,-91,-315,188,-180,87,787,30
637.7373,45,-90,-316,188,-180,86,787,30
637.7378,45,-91,-316,187,-180,87,787,30
637.7383,44,-91,-315,187,-180,87,786,29
637.7388,44,-91,-316,187,-180,86,787,29
637.7393,44,-91,-316,187,-180,86,787,29
637.7398,44,-91,-316,187,-180,86,787,29
637.7403,44,-92,-316,188,-180,86,787,29
637.7408,44,-92,-316,188,-180,87,787,29
637.7413,45,-92,-316,188,-180,86,787,29
637.7418,44,-92,-316,187,-180,86,787,29
637.7423,44,-92,-315,186,-180,86,787,29
637.7428,44,-91,-316,187,-180,86,787,29
637.7433,44,-91,-316,187,-180,86,787,29
637.7438,44,-91,-316,187,-180,87,787,29
637.7443,44,-91,-316,187,-179,86,787,29
637.7448,44,-91,-316,187,-179,86,787,29
637.7453,44,-91,-316,187,-180,86,787,29
637.7458,44,-90,-315,187,-180,86,787,29
637.7463,44,-91,-315,186,-180,86,787,29
637.7468,44,-90,-315,186,-181,86,787,29
637.7473,44,-91,-315,187,-181,86,788,29
637.7478,44,-91,-315,187,-182,86,787,29
637.7483,44,-91,-315,187,-182,87,788,29
637.7488,44,-91,-315,187,-182,87,787,29
637.7493,44,-91,-315,187,-182,86,787,29
637.7498,44,-91,-316,187,-181,87,788,30
637.7503,44,-91,-316,187,-182,87,787,30
637.7508,44,-91,-316,187,-182,87,788,30
637.7513,44,-91,-316,187,-181,87,788,30
637.7518,44,-91,-316,187,-181,86,789,30
637.7523,44,-91,-316,188,-182,87,789,29
637.7528,44,-91,-316,188,-181,86,789,29
637.7533,44,-91,-316,188,-181,86,789,29
637.7538,44,-91,-316,188,-181,86,789,29
637.7543,45,-91,-315,187,-181,86,788,29
637.7548,44,-91,-315,188,-181,86,788,29
637.7553,44,-91,-315,187,-181,86,788,29
637.7558,44,-91,-315,188,-181,86,788,29
637.7563,44,-91,-316,188,-181,86,788,29
637.7568,44,-91,-316,187,-182,86,788,29
637.7573,44,-91,-316,188,-182,87,788,29
637.7578,44,-91,-315,187,-181,86,788,29
637.7583,44,-91,-315,188,-181,87,787,29
637.7588,44,-91,-315,188,-181,86,787,29
637.7593,44,-91,-316,187,-180,86,786,30
637.7598,44,-91,-316,188,-181,86,786,30
637.7603,44,-91,-316,187,-180,86,786,30
637.7608,44,-91,-315,187,-180,86,786,29
637.7613,44,-92,-315,186,-179,86,786,29
637.7618,44,-91,-315,186,-180,86,786,28
637.7623,44,-91,-315,186,-180,86,786,29
637.7628,44,-92,-316,186,-180,87,786,28
637.7633,44,-91,-315,186,-180,86,787,29
637.7638,44,-91,-315,186,-181,87,787,29
637.7643,44,-91,-315,186,-181,86,788,29
637.7648,44,-91,-315,186,-181,87,788,30
637.7653,44,-91,-315,186,-182,86,788,29
637.7658,44,-91,-316,187,-182,86,788,29
637.7663,44,-91,-315,188,-182,86,788,29
637.7668,44,-91,-316,188,-182,86,789,29
637.7673,44,-91,-316,188,-183,87,789,30
637.7678,44,-91,-316,189,-183,87,789,30
637.7683,44,-91,-316,189,-183,87,789,31
637.7688,44,-91,-316,188,-183,88,790,31
637.7693,44,-91,-316,189,-183,88,790,30
637.7698,43,-91,-316,189,-184,87,791,30
637.7703,43,-90,-316,188,-184,87,791,30
637.7708,44,-91,-316,188,-183,87,791,29
637.7713,44,-91,-316,188,-183,86,792,30
637.7718,44,-91,-316,188,-182,86,792,28
637.7723,44,-92,-316,188,-182,86,792,28
637.7728,44,-91,-315,187,-182,86,792,28
637.7733,44,-91,-315,187,-182,86,791,28
637.7738,44,-91,-315,187,-182,86,791,28
637.7743,44,-91,-315,187,-181,86,790,28
637.7748,44,-92,-316,187,-181,86,790,28
637.7753,44,-92,-316,187,-181,86,790,29
637.7758,44,-92,-316,187,-181,86,790,29
637.7763,44,-92,-316,187,-180,87,789,29
637.7768,43,-91,-316,188,-181,87,789,31
637.7773,44,-92,-316,188,-180,87,789,31
637.7778,44,-92,-317,188,-181,87,788,30
637.7783,44,-92,-317,188,-181,86,787,30
637.7788,44,-91,-316,188,-181,87,787,29
637.7794,44,-91,-316,187,-179,87,786,30
637.7799,43,-91,-315,186,-178,86,785,30
637.7804,44,-91,-315,186,-178,86,784,30
637.7809,44,-91,-315,186,-177,87,783,30
637.7814,44,-91,-315,187,-176,87,783,29
637.7819,44,-91,-315,187,-176,87,783,29
637.7824,44,-91,-315,188,-176,86,783,29
637.7829,44,-91,-315,188,-177,86,783,28
637.7834,44,-91,-315,188,-177,86,784,28
637.7839,44,-91,-315,188,-179,86,783,28
637.7844,44,-90,-315,188,-178,86,784,28
637.7849,44,-90,-316,188,-179,86,784,28
637.7854,43,-90,-316,188,-179,86,784,28
637.7859,44,-90,-315,188,-178,86,784,28
637.7864,44,-90,-315,186,-178,86,783,28
637.7869,43,-90,-314,185,-178,86,783,29
637.7874,44,-90,-314,185,-178,86,783,28
637.7879,44,-91,-314,185,-178,86,783,29
637.7884,44,-91,-314,186,-178,87,783,29
637.7889,44,-91,-315,186,-178,87,783,29
637.7894,44,-91,-315,186,-178,87,783,30
637.7899,44,-91,-315,186,-177,88,784,32
637.7904,44,-91,-315,186,-178,88,784,33
637.7909,44,-91,-315,186,-177,88,785,32
637.7914,44,-91,-315,186,-178,87,785,31
637.7919,44,-91,-315,187,-178,87,786,31
637.7924,44,-91,-315,187,-178,87,786,30
637.7929,44,-91,-315,187,-179,87,786,30
637.7934,44,-91,-315,187,-179,86,787,29
637.7939,44,-91,-315,187,-178,86,786,29
637.7944,44,-91,-315,186,-178,86,786,29
637.7949,44,-92,-315,187,-178,86,785,29
637.7954,44,-91,-315,186,-177,86,785,29
637.7959,44,-91,-315,186,-177,86,784,29
637.7964,44,-91,-315,187,-177,86,785,29
637.7969,44,-91,-315,187,-178,86,786,29
637.7974,44,-91,-315,187,-178,86,786,29
637.7979,44,-91,-315,187,-179,86,786,29
637.7984,44,-91,-316,187,-179,87,786,29
637.7989,44,-91,-315,187,-179,87,786,30
637.7994,44,-91,-315,187,-179,87,785,30
637.7999,43,-91,-315,187,-179,87,785,30
637.8004,44,-91,-315,187,-179,87,785,30
637.8009,44,-91,-315,187,-179,87,786,31
637.8014,43,-91,-315,187,-180,87,786,31
637.8019,44,-90,-315,187,-180,87,787,30
637.8024,44,-91,-315,188,-181,87,787,31
637.8029,44,-91,-316,188,-181,87,787,30
637.8034,44,-91,-316,188,-181,87,787,31
637.8039,44,-91,-316,187,-182,88,788,30
637.8044,44,-91,-316,187,-182,87,788,31
637.8049,44,-91,-316,188,-183,87,789,31
637.8054,44,-91,-315,188,-183,87,788,31
637.8059,44,-91,-315,188,-183,87,788,31
637.8064,44,-91,-315,187,-183,87,788,31
637.8069,44,-91,-315,187,-183,86,788,30
637.8074,44,-91,-315,187,-183,86,788,29
637.8079,44,-91,-315,187,-183,86,788,28
637.8084,44,-91,-315,187,-183,85,788,26
637.8089,44,-91,-315,187,-183,86,788,27
637.8094,44,-91,-315,187,-183,85,789,27
637.8099,43,-91,-315,188,-182,86,789,27
637.8104,44,-91,-316,187,-183,85,790,28
637.8109,43,-91,-316,188,-182,86,790,28
637.8114,43,-91,-316,188,-182,86,790,29
637.8119,44,-91,-316,188,-181,86,790,29
637.8124,43,-90,-316,188,-181,86,789,29
637.8129,43,-90,-316,188,-181,87,789,30
637.8134,43,-90,-317,189,-181,86,788,29
637.8139,43,-90,-317,189,-180,86,788,29
637.8144,43,-90,-316,188,-179,87,787,29
637.8149,44,-90,-316,188,-179,86,786,29
637.8154,44,-91,-316,187,-178,87,786,29
637.8159,44,-91,-315,186,-177,87,786,30
637.8164,44,-91,-315,186,-177,87,785,29
637.8169,44,-91,-314,185,-177,86,785,29
637.8174,44,-91,-315,185,-176,86,784,29
637.8179,44,-91,-314,186,-176,86,784,29
637.8184,44,-90,-315,185,-176,86,785,29
637.8189,44,-90,-314,186,-176,86,784,29
637.8194,44,-90,-315,187,-177,86,784,29
637.8199,43,-90,-316,187,-177,86,784,29
637.8204,43,-90,-316,187,-177,87,785,29
637.8209,44,-90,-316,187,-178,87,785,30
637.8214,44,-90,-315,187,-178,87,785,29
637.8219,44,-90,-315,187,-178,87,785,29
637.8224,44,-90,-314,187,-177,87,785,29
637.8229,44,-90,-314,187,-178,86,785,29
637.8234,44,-90,-314,187,-179,86,785,29
637.8239,43,-90,-315,187,-179,86,785,30
637.8244,44,-90,-315,187,-180,86,786,29
637.825,44,-90,-315,187,-180,86,786,30
637.8255,44,-91,-314,187,-179,87,786,30
637.826,44,-91,-315,187,-180,87,786,30
637.8265,43,-90,-315,187,-180,87,786,30
637.827,44,-91,-315,187,-180,87,786,30
637.8275,44,-91,-315,187,-180,87,787,30
637.828,44,-91,-315,188,-181,87,787,30
637.8285,44,-91,-315,187,-181,87,787,30
637.829,44,-91,-315,188,-181,87,787,30
637.8295,44,-91,-316,188,-181,87,787,29
637.83,44,-91,-315,188,-180,87,787,29
637.8305,44,-91,-316,188,-180,87,787,29
637.831,43,-90,-315,188,-180,87,787,30
637.8315,44,-90,-315,188,-180,87,787,30
637.832,44,-90,-315,188,-180,87,786,29
637.8325,44,-91,-315,188,-179,87,786,28
637.833,43,-90,-315,187,-178,86,785,28
637.8335,44,-91,-315,187,-179,86,785,28
637.834,43,-90,-315,187,-179,86,785,28
637.8345,44,-90,-315,187,-179,87,785,29
637.835,43,-90,-315,187,-179,87,786,29
637.8355,44,-91,-315,187,-179,87,786,29
637.836,44,-90,-315,187,-179,87,786,29
637.8365,44,-90,-315,187,-179,87,786,29
637.837,44,-90,-315,187,-179,87,785,29
637.8375,44,-90,-315,188,-179,87,786,29
637.838,44,-90,-315,187,-179,87,786,29
637.8385,44,-90,-315,188,-179,87,786,29
637.839,44,-91,-315,187,-179,86,787,29
637.8395,44,-90,-315,187,-179,86,787,29
637.84,43,-91,-316,188,-179,86,787,29
637.8405,43,-91,-315,187,-179,86,786,28
637.841,43,-91,-315,187,-180,86,786,28
637.8415,44,-90,-315,187,-180,86,786,28
637.842,44,-90,-315,188,-179,86,786,28
637.8425,44,-90,-315,187,-179,86,786,28
637.843,44,-90,-315,188,-179,86,786,29
637.8435,44,-91,-316,187,-180,86,786,29
637.844,44,-92,-316,188,-179,86,786,29
637.8445,44,-91,-315,188,-180,86,787,29
637.845,44,-92,-315,188,-179,87,787,29
637.8455,44,-92,-315,187,-180,87,786,29
637.846,44,-92,-315,187,-180,87,786,29
637.8465,44,-91,-315,188,-180,87,787,29
637.847,43,-91,-314,188,-180,86,787,29
637.8475,43,-91,-314,188,-180,86,786,28
637.848,44,-90,-315,188,-180,86,787,28
637.8485,43,-90,-315,188,-180,86,787,28
637.849,44,-91,-315,187,-180,86,787,28
637.8495,44,-91,-316,187,-180,87,787,28
637.85,44,-91,-316,187,-180,87,786,29
637.8505,44,-91,-316,188,-180,87,787,28
637.851,44,-90,-316,188,-181,87,786,29
637.8515,43,-90,-316,188,-181,87,787,28
637.852,43,-90,-315,187,-181,87,788,28
637.8525,44,-90,-314,187,-181,86,788,29
637.853,43,-89,-314,188,-181,87,788,29
637.8535,43,-90,-315,188,-182,87,789,29
637.854,43,-90,-315,188,-182,87,789,29
637.8545,43,-90,-316,188,-182,87,789,29
637.855,44,-91,-316,189,-182,87,789,29
637.8555,43,-91,-316,189,-182,87,789,29
637.856,43,-91,-316,189,-182,87,789,29
637.8565,43,-91,-316,189,-182,87,789,29
637.857,43,-90,-316,189,-182,87,789,29
637.8575,43,-90,-316,189,-181,87,790,29
637.858,42,-89,-315,188,-181,87,789,29
637.8585,43,-89,-315,187,-180,87,789,29
637.859,43,-90,-315,187,-181,87,789,29
637.8595,43,-90,-315,187,-181,87,789,29
637.86,43,-90,-316,188,-181,87,789,29
637.8605,44,-90,-315,188,-181,87,789,29
637.861,43,-90,-314,187,-181,87,789,29
637.8615,44,-90,-314,187,-181,87,790,29
637.862,44,-90,-314,187,-182,87,790,28
637.8625,43,-90,-314,187,-183,87,791,29
637.863,43,-90,-315,187,-183,87,791,29
637.8635,43,-90,-315,187,-183,87,791,29
637.864,44,-90,-315,187,-183,87,791,28
637.8645,44,-91,-315,187,-183,87,790,28
637.865,44,-91,-315,187,-182,87,790,29
637.8655,43,-91,-315,187,-182,87,789,29
637.866,43,-90,-315,188,-181,87,789,29
637.8665,43,-90,-315,187,-181,87,789,29
637.867,43,-90,-315,188,-180,87,788,29
637.8675,43,-90,-315,188,-180,87,788,29
637.868,43,-90,-315,188,-180,87,788,29
637.8685,43,-90,-316,188,-180,87,788,29
637.869,44,-90,-315,188,-180,87,787,29
637.8695,43,-90,-315,188,-179,87,787,29
637.87,43,-90,-315,187,-178,87,785,29
637.8706,43,-90,-315,188,-178,87,785,29
637.8711,43,-90,-315,188,-178,87,784,29
637.8716,44,-90,-315,188,-177,87,783,29
637.8721,43,-90,-315,187,-177,87,782,28
637.8726,43,-90,-315,187,-177,86,782,28
637.8731,43,-90,-315,187,-177,86,781,28
637.8736,43,-90,-315,187,-177,86,781,28
637.8741,43,-90,-316,187,-177,86,781,28
637.8746,44,-90,-315,187,-177,87,781,28
637.8751,44,-91,-315,187,-177,87,782,28
637.8756,43,-90,-316,187,-177,86,783,28
637.8761,43,-91,-316,187,-176,87,783,29
637.8766,43,-90,-316,188,-177,87,784,29
637.8771,43,-90,-316,188,-176,87,784,29
637.8776,43,-90,-316,188,-177,86,784,29
637.8781,44,-90,-316,188,-177,87,784,29
637.8786,44,-91,-316,188,-177,87,784,29
637.8791,44,-91,-316,187,-178,87,785,29
637.8796,43,-91,-315,187,-178,87,785,29
637.8801,43,-91,-316,187,-179,87,785,29
637.8806,43,-91,-316,187,-180,87,786,29
637.8811,44,-91,-315,187,-179,87,785,29
637.8816,44,-90,-315,187,-179,87,785,28
637.8821,43,-90,-315,188,-179,87,785,27
637.8826,43,-90,-316,188,-179,86,785,27
637.8831,43,-90,-316,188,-179,86,785,27
637.8836,43,-90,-315,188,-178,86,785,27
637.8841,43,-90,-315,187,-178,86,785,28
637.8846,44,-90,-314,187,-179,87,785,28
637.8851,43,-90,-314,187,-178,86,785,28
637.8856,43,-90,-314,186,-179,87,785,28
637.8861,43,-90,-314,187,-179,86,784,28
637.8866,43,-90,-314,187,-179,86,785,28
637.8871,43,-90,-314,186,-179,86,785,28
637.8876,42,-89,-314,186,-179,86,785,27
637.8881,42,-89,-314,187,-179,86,785,27
637.8886,42,-89,-315,187,-179,87,785,28
637.8891,42,-89,-315,188,-180,87,786,29
637.8896,42,-89,-315,187,-179,87,786,30
637.8901,42,-89,-316,188,-179,87,786,30
637.8906,42,-89,-315,188,-180,88,786,29
637.8911,43,-90,-315,188,-179,87,786,29
637.8916,45,-91,-316,188,-179,87,786,28
637.8921,45,-91,-315,188,-179,86,785,27
637.8926,44,-90,-315,188,-179,87,785,28
637.8931,44,-89,-315,188,-179,87,785,28
637.8936,43,-89,-314,187,-179,87,785,28
637.8941,43,-89,-314,187,-179,88,784,29
637.8946,43,-89,-314,187,-179,87,784,29
637.8951,43,-89,-315,187,-179,87,785,29
637.8956,43,-89,-315,187,-179,87,785,29
637.8961,43,-89,-315,188,-179,87,786,29
637.8966,43,-90,-316,188,-180,87,786,29
637.8971,44,-90,-316,188,-179,87,786,30
637.8976,43,-90,-316,188,-179,88,786,30
637.8981,43,-89,-316,188,-180,88,786,30
637.8986,43,-89,-316,188,-179,88,786,30
637.8991,43,-90,-316,188,-179,88,786,30
637.8996,43,-90,-315,187,-179,88,786,30
637.9001,43,-90,-314,186,-179,88,785,29
637.9006,43,-89,-313,186,-179,87,786,29
637.9011,44,-90,-313,187,-179,87,786,29
637.9016,44,-90,-314,187,-179,87,786,29
637.9021,43,-89,-314,187,-180,87,786,29
637.9026,43,-89,-314,187,-180,87,786,29
637.9031,42,-89,-314,187,-180,87,786,29
637.9036,42,-89,-315,188,-180,87,787,28
637.9041,42,-89,-315,187,-181,87,787,28
637.9046,42,-89,-315,187,-181,87,787,28
637.9051,42,-89,-315,187,-180,87,786,28
637.9056,43,-90,-314,187,-181,87,786,28
637.9061,44,-91,-314,186,-180,87,786,28
637.9066,45,-92,-314,186,-179,87,786,28
637.9071,45,-91,-315,186,-179,87,785,28
637.9076,44,-91,-315,187,-179,87,785,27
637.9081,44,-90,-315,187,-179,87,785,27
637.9086,44,-90,-315,187,-179,87,786,26
637.9091,44,-91,-314,187,-179,86,786,27
637.9096,43,-90,-315,188,-179,87,786,28
637.9101,43,-90,-315,188,-179,86,786,28
637.9106,44,-90,-314,188,-180,87,786,28
637.9111,43,-90,-314,187,-180,87,787,27
637.9116,44,-90,-314,187,-180,87,787,27
637.9121,44,-90,-315,188,-180,87,788,28
637.9126,43,-90,-315,188,-180,87,787,28
637.9131,43,-90,-315,188,-180,87,787,28
637.9136,43,-90,-314,188,-180,87,786,29
637.9141,43,-89,-315,188,-180,88,786,29
637.9146,44,-89,-315,188,-180,88,786,29
637.9151,43,-90,-315,188,-180,87,786,29
637.9157,44,-90,-315,188,-180,87,786,28
637.9162,43,-91,-315,188,-180,87,786,29
637.9167,44,-91,-315,188,-180,87,786,28
637.9172,44,-92,-315,188,-180,87,786,28
637.9177,44,-91,-314,187,-181,87,786,28
637.9182,44,-92,-315,187,-181,87,786,28
637.9187,43,-91,-315,188,-181,87,786,28
637.9192,43,-90,-315,188,-181,88,786,28
637.9197,41,-89,-315,188,-182,87,786,28
637.9202,42,-89,-315,188,-182,88,786,29
637.9207,42,-89,-315,188,-182,87,787,29
637.9212,43,-89,-315,188,-181,87,787,28
637.9217,43,-89,-315,188,-182,87,786,28
637.9222,43,-89,-315,188,-182,87,787,28
637.9227,43,-89,-315,188,-181,87,787,28
637.9232,43,-90,-315,188,-181,87,787,28
637.9237,43,-89,-315,187,-182,87,787,28
637.9242,42,-89,-315,187,-181,86,787,28
637.9247,42,-89,-315,188,-181,87,787,28
637.9252,43,-89,-315,188,-181,86,787,28
637.9257,43,-89,-315,187,-181,87,787,28
637.9262,43,-89,-315,188,-181,87,787,28
637.9267,42,-89,-315,187,-180,87,786,28
637.9272,43,-89,-315,188,-180,87,786,28
637.9277,43,-89,-315,188,-179,87,786,28
637.9282,42,-89,-315,188,-179,88,786,29
637.9287,44,-89,-315,188,-179,88,787,29
637.9292,44,-90,-315,188,-179,88,787,29
637.9297,43,-90,-315,188,-180,88,787,29
637.9302,43,-89,-315,188,-180,88,787,29
637.9307,43,-90,-315,188,-181,88,787,28
637.9312,43,-89,-315,188,-181,87,788,28
637.9317,43,-89,-315,188,-181,87,788,28
637.9322,43,-89,-315,188,-180,87,788,27
637.9327,43,-89,-315,188,-180,87,787,28
637.9332,43,-89,-315,187,-179,87,786,28
637.9337,43,-89,-315,187,-179,87,786,28
637.9342,43,-89,-314,187,-179,87,785,28
637.9347,43,-89,-314,187,-179,87,786,28
637.9352,43,-89,-314,187,-179,87,786,28
637.9357,43,-89,-315,188,-179,87,786,28
637.9362,43,-90,-314,188,-180,87,786,28
637.9367,43,-89,-315,188,-180,87,787,28
637.9372,43,-89,-316,188,-181,87,787,28
637.9377,43,-90,-316,188,-181,87,786,28
637.9382,43,-89,-315,188,-181,86,787,28
637.9387,43,-90,-315,187,-181,87,787,28
637.9392,43,-90,-315,187,-181,87,786,28
637.9397,42,-89,-315,187,-181,86,786,28
637.9402,42,-90,-315,188,-181,86,786,28
637.9407,43,-90,-315,188,-181,87,786,28
637.9412,43,-90,-315,188,-181,86,786,28
637.9417,44,-90,-314,188,-181,86,787,28
637.9422,43,-90,-314,187,-181,87,787,28
637.9427,42,-89,-314,188,-180,87,786,28
637.9432,42,-89,-314,188,-180,87,786,28
637.9437,42,-89,-315,188,-179,87,786,28
637.9442,42,-89,-315,188,-179,87,786,28
637.9447,43,-89,-315,188,-179,87,786,28
637.9452,42,-89,-316,188,-179,87,787,28
637.9457,43,-89,-316,188,-179,87,786,28
637.9462,43,-89,-315,188,-180,86,786,27
637.9467,43,-89,-315,189,-179,86,786,27
637.9472,43,-90,-315,188,-179,86,786,27
637.9477,43,-89,-315,189,-180,86,786,27
637.9482,43,-90,-315,188,-180,86,786,27
637.94867,43,-90,-315,188,-179,87,786,28
637.9492,43,-90,-315,187,-179,87,786,29
637.9497,42,-90,-315,187,-179,87,786,29
637.9502,43,-90,-315,187,-179,88,786,29
637.9507,42,-90,-315,187,-180,88,786,28
637.9512,43,-90,-315,187,-180,88,785,29
637.9517,43,-89,-315,188,-180,88,786,28
637.9522,43,-90,-316,189,-180,87,786,28
637.9527,43,-89,-316,190,-181,87,786,28
637.9532,42,-89,-315,190,-180,87,786,27
637.9537,43,-89,-315,191,-180,87,785,27
637.9542,42,-89,-316,191,-180,86,785,28
637.9547,43,-89,-316,192,-181,87,786,27
637.9552,43,-89,-316,191,-181,87,786,27
637.9557,43,-89,-316,192,-181,87,787,27
637.9562,43,-89,-317,191,-181,87,787,27
637.9567,42,-89,-316,190,-182,87,789,28
637.9572,42,-89,-315,188,-182,87,790,28
637.9577,42,-89,-314,186,-182,88,789,29
637.9582,43,-89,-313,185,-181,88,789,29
637.9587,42,-89,-313,184,-182,87,790,29
637.9592,43,-89,-314,186,-182,87,790,29
637.9597,42,-89,-315,187,-182,87,790,29
637.9602,43,-89,-315,187,-182,87,790,29
637.9607,43,-89,-315,187,-182,87,789,29
637.9613,42,-89,-315,187,-181,87,789,28
637.9618,42,-89,-315,188,-181,87,789,28
637.9623,42,-88,-315,187,-181,87,788,28
637.9628,42,-89,-314,187,-181,87,788,27
637.9633,42,-88,-315,188,-180,87,788,27
637.9638,42,-88,-314,187,-180,87,787,28
637.9643,42,-89,-314,188,-181,87,786,28
637.9648,43,-89,-315,187,-181,86,785,27
637.9653,43,-89,-314,188,-180,87,784,28
637.9658,43,-89,-315,187,-180,86,784,27
637.9663,43,-90,-315,187,-180,86,784,28
637.9668,42,-89,-314,187,-179,86,783,28
637.9673,42,-89,-315,187,-179,86,783,27
637.9678,42,-89,-315,188,-178,87,784,28
637.9683,42,-89,-315,188,-178,87,784,28
637.9688,42,-89,-315,188,-179,87,784,28
637.9693,42,-88,-316,189,-178,88,784,28
637.9698,42,-89,-316,190,-179,88,785,28
637.9703,42,-89,-317,190,-179,87,785,28
637.9708,42,-89,-317,190,-179,87,785,28
637.9713,43,-89,-317,191,-180,87,786,28
637.9718,43,-89,-317,191,-181,87,786,27
637.9723,42,-89,-317,191,-181,87,786,28
637.9728,42,-89,-317,191,-180,87,786,28
637.9733,42,-88,-316,189,-181,87,786,28
637.9738,42,-88,-315,188,-180,87,786,28
637.9743,42,-88,-313,186,-180,87,786,28
637.9748,42,-88,-314,186,-179,88,786,28
637.9753,42,-88,-314,186,-179,87,786,28
637.9758,42,-89,-313,186,-179,87,785,27
637.9763,42,-89,-314,186,-179,87,785,28
637.9768,42,-88,-314,186,-179,87,785,28
637.9773,42,-88,-314,187,-179,87,785,28
637.9778,42,-89,-314,187,-179,87,785,28
637.9783,42,-89,-314,187,-179,87,784,28
637.9788,42,-89,-315,187,-179,87,784,28
637.9793,42,-89,-315,188,-179,87,783,29
637.9798,42,-89,-314,188,-178,87,784,28
637.9803,42,-88,-314,189,-178,87,783,28
637.9808,42,-89,-314,189,-179,87,783,28
637.9813,43,-89,-315,188,-179,87,783,28
637.9818,43,-89,-314,189,-179,87,784,27
637.9823,43,-89,-315,189,-179,87,784,28
637.9828,42,-89,-315,188,-179,87,784,27
637.9833,42,-89,-315,187,-179,87,784,27
637.9838,42,-89,-314,186,-179,87,784,28
637.9843,42,-89,-314,187,-180,87,785,27
637.9848,43,-89,-314,186,-180,87,784,27
637.9853,42,-89,-314,186,-179,87,784,27
637.9858,43,-89,-314,187,-179,87,784,27
637.9863,43,-89,-314,187,-179,87,784,28
637.9868,41,-89,-314,188,-179,88,784,29
637.9873,42,-88,-315,188,-178,87,784,29
637.9878,41,-88,-315,188,-178,87,784,29
637.9883,41,-88,-315,187,-178,87,784,28
637.9888,42,-88,-315,188,-178,87,784,29
637.9893,43,-88,-316,188,-178,87,785,28
637.9898,42,-89,-316,188,-178,87,785,28
637.9903,43,-88,-316,188,-179,87,785,28
637.9908,42,-88,-316,188,-179,88,785,28
637.9913,43,-88,-316,188,-179,87,785,28
637.9918,42,-88,-316,188,-179,88,785,28
637.9923,42,-89,-316,188,-179,87,785,28
637.9928,42,-89,-315,188,-178,87,784,28
637.9933,42,-89,-314,188,-178,87,784,29
637.9938,42,-88,-313,187,-178,87,784,28
637.9943,42,-88,-312,186,-178,87,784,29
637.9948,42,-88,-313,186,-178,88,784,29
637.9953,42,-88,-313,187,-178,87,785,29
637.9958,43,-88,-314,187,-178,87,785,29
637.9963,42,-88,-315,188,-178,87,785,30
637.9968,42,-89,-315,188,-179,87,786,29
637.9973,42,-88,-315,188,-179,88,786,29
637.9978,42,-89,-315,188,-179,88,787,29
637.9983,42,-89,-315,188,-180,87,787,28
637.9988,42,-89,-315,188,-180,87,787,27
637.9993,42,-89,-315,189,-180,87,786,27
637.9998,41,-89,-316,189,-179,87,786,27
638.0003,42,-89,-315,189,-180,87,786,27
638.0008,42,-89,-315,189,-180,87,787,27
638.0013,42,-89,-314,188,-180,87,787,26
638.0018,43,-89,-314,188,-181,86,787,27
638.0023,42,-88,-315,189,-181,87,787,27
638.0028,42,-88,-315,189,-181,87,787,27
638.0033,42,-88,-315,189,-182,87,788,27
638.0038,42,-88,-315,189,-181,87,788,27
638.0043,42,-88,-315,189,-182,87,788,27
638.0048,42,-88,-315,188,-181,87,788,28
638.0053,42,-89,-315,188,-181,87,787,28
638.0058,42,-88,-315,188,-181,87,786,28
638.0063,42,-89,-315,188,-180,87,787,28
638.0069,42,-89,-314,188,-180,87,786,28
638.0074,42,-88,-314,187,-180,87,786,28
638.0079,42,-89,-314,187,-180,87,786,28
638.0084,42,-88,-314,187,-180,87,786,28
638.0089,43,-89,-314,187,-180,88,786,28
638.0094,42,-89,-315,188,-180,87,786,28
638.0099,42,-89,-315,188,-180,87,786,28
638.0104,42,-89,-315,188,-180,87,786,28
638.0109,42,-89,-314,188,-179,87,786,28
638.0114,42,-89,-314,187,-180,87,785,27
638.0119,42,-89,-314,187,-179,87,785,28
638.0124,42,-89,-314,187,-179,87,784,28
638.0129,42,-89,-314,188,-179,87,785,28
638.0134,42,-89,-315,188,-179,87,785,28
638.0139,42,-89,-314,188,-179,87,785,28
638.0144,42,-89,-315,188,-179,87,785,28
638.0149,42,-89,-315,188,-178,87,784,28
638.0154,42,-89,-315,188,-178,88,784,28
638.0159,42,-89,-315,188,-178,87,784,27
638.0164,42,-89,-316,188,-179,87,785,27
638.0169,42,-89,-316,189,-179,87,785,26
638.0174,42,-89,-316,189,-180,87,785,26
638.0179,42,-89,-316,189,-181,87,785,27
638.0184,42,-89,-316,189,-180,86,785,26
638.0189,42,-89,-316,189,-180,87,786,27
638.0194,42,-89,-316,189,-180,86,785,28
638.0199,42,-88,-316,188,-181,87,786,27
638.0204,42,-89,-316,188,-181,87,786,27
638.0209,42,-88,-314,188,-181,87,786,27
638.0214,42,-88,-314,187,-181,86,786,27
638.0219,42,-88,-314,187,-181,87,785,27
638.0224,42,-88,-314,187,-181,87,785,28
638.0229,42,-89,-314,186,-181,87,786,28
638.0234,42,-89,-313,187,-181,87,786,29
638.0239,41,-89,-313,187,-181,88,786,29
638.0244,42,-89,-314,188,-180,88,786,29
638.0249,42,-89,-314,188,-181,88,786,29
638.0254,42,-89,-314,189,-181,88,785,29
638.0259,42,-89,-314,189,-181,88,785,29
638.0264,41,-87,-315,188,-181,88,785,29
638.0269,41,-87,-314,189,-181,88,785,28
638.0274,41,-87,-315,188,-181,88,786,28
638.0279,42,-88,-314,188,-181,88,786,28
638.0284,41,-88,-315,188,-180,87,786,28
638.0289,42,-88,-314,188,-181,87,786,28
638.0294,42,-88,-315,188,-180,87,786,28
638.0299,42,-88,-315,188,-181,87,786,28
638.0304,42,-89,-315,188,-181,87,786,28
638.0309,42,-89,-315,188,-181,87,786,28
638.0314,42,-89,-314,188,-180,87,786,28
638.0319,41,-89,-314,188,-180,87,786,28
638.0324,42,-88,-314,188,-179,87,786,27
638.0329,41,-87,-315,188,-179,87,786,28
638.0334,41,-87,-315,188,-179,87,785,28
638.0339,41,-87,-315,189,-179,87,786,28
638.0344,41,-87,-315,189,-179,87,785,28
638.0349,42,-88,-315,189,-179,87,785,28
638.0354,42,-88,-314,188,-179,87,785,28
638.0359,43,-88,-315,188,-179,87,785,28
638.0364,43,-88,-315,189,-179,87,785,28
638.0369,42,-88,-315,188,-179,88,785,28
638.0374,42,-88,-315,188,-179,88,785,28
638.0379,42,-88,-315,188,-178,88,785,27
638.0384,42,-88,-315,188,-177,87,784,28
638.0389,42,-88,-315,189,-177,87,784,28
638.0394,42,-87,-316,189,-178,87,783,28
638.0399,41,-87,-316,189,-178,87,783,27
638.0404,41,-87,-316,189,-178,88,784,28
638.0409,41,-87,-315,189,-178,87,783,27
638.0414,42,-87,-315,189,-178,87,783,27
638.0419,42,-87,-316,189,-178,87,783,28
638.0424,42,-87,-315,188,-178,87,783,27
638.0429,41,-87,-314,187,-178,87,784,28
638.0434,41,-87,-314,187,-178,87,784,28
638.0439,41,-87,-314,187,-179,87,784,28
638.0444,42,-88,-314,187,-179,86,784,28
638.0449,41,-87,-313,187,-179,86,785,27
638.0454,42,-88,-313,186,-178,86,784,27
638.0459,42,-88,-313,186,-178,87,784,27
638.0464,42,-88,-314,187,-179,86,784,27
638.0469,42,-88,-314,187,-179,87,784,27
638.0474,42,-88,-314,187,-179,87,784,28
638.0479,41,-88,-314,187,-179,88,784,28
638.0484,41,-88,-314,187,-180,88,785,28
638.0489,41,-88,-314,188,-179,88,785,28
638.0494,41,-87,-315,187,-180,87,785,28
638.0499,41,-88,-314,188,-180,87,785,28
638.0504,41,-87,-315,188,-180,87,785,28
638.0509,41,-88,-315,188,-179,87,786,27
638.0514,41,-87,-314,188,-179,87,786,28
638.0519,41,-87,-314,188,-179,88,786,28
638.0525,40,-87,-314,188,-180,87,785,28
638.053,41,-87,-314,188,-179,88,785,28
638.0535,41,-87,-314,188,-180,87,785,28
638.054,42,-88,-315,188,-179,87,786,27
638.0545,42,-88,-315,189,-179,87,785,27
638.055,42,-88,-316,189,-179,87,785,27
638.0555,42,-88,-316,189,-179,87,785,27
638.056,42,-88,-315,188,-180,87,785,28
638.0565,42,-88,-315,188,-179,87,785,27
638.057,42,-88,-315,188,-179,87,785,28
638.0575,42,-88,-315,188,-179,87,785,28
638.058,42,-88,-315,188,-180,87,786,28
638.0585,41,-88,-315,188,-180,87,785,28
638.059,41,-88,-315,188,-180,88,786,29
638.0595,41,-88,-315,188,-180,87,785,28
638.06,41,-87,-315,188,-180,87,785,28
638.0605,42,-88,-315,189,-180,87,786,28
638.061,42,-88,-315,188,-180,87,786,28
638.0615,42,-88,-315,188,-181,87,786,28
638.062,41,-88,-315,188,-181,87,787,28
638.0625,42,-88,-314,188,-181,87,787,28
638.063,41,-88,-314,188,-181,87,787,28
638.0635,41,-87,-314,188,-181,87,787,28
638.064,41,-88,-314,188,-182,87,787,28
638.0645,42,-88,-314,188,-182,87,787,28
638.065,42,-88,-315,189,-182,87,787,27
638.0655,42,-89,-315,189,-181,87,787,27
638.066,42,-89,-315,189,-181,87,787,28
638.0665,41,-89,-315,189,-181,87,786,27
638.067,42,-89,-315,189,-181,87,787,28
638.0675,41,-88,-315,189,-181,87,787,28
638.068,41,-88,-315,188,-181,87,787,28
638.0685,41,-87,-315,188,-181,87,787,28
638.069,41,-87,-315,187,-180,87,787,28
638.0695,41,-88,-315,188,-180,87,786,28
638.07,41,-88,-315,187,-180,87,786,28
638.0705,42,-88,-315,188,-179,88,784,28
638.071,42,-88,-315,188,-179,88,784,28
638.0715,42,-88,-315,189,-179,88,784,28
638.072,42,-88,-316,189,-179,87,784,28
638.0725,41,-88,-316,189,-179,87,784,28
638.073,41,-87,-316,189,-179,87,784,28
638.0735,41,-87,-316,189,-178,87,783,28
638.074,41,-87,-316,189,-179,87,784,28
638.0745,41,-87,-316,189,-179,87,784,28
638.075,41,-87,-316,189,-179,87,784,28
638.0755,41,-87,-315,188,-178,87,784,28
638.076,42,-88,-313,187,-178,88,784,29
638.0765,42,-88,-312,186,-178,88,784,29
638.077,41,-88,-313,187,-178,88,784,29
638.0775,42,-88,-313,187,-178,87,784,28
638.078,42,-87,-314,187,-179,87,784,28
638.0785,41,-88,-314,187,-179,87,784,28
638.079,41,-87,-314,187,-179,87,784,27
638.0795,41,-87,-315,188,-178,87,784,27
638.08,41,-88,-315,188,-178,87,784,27
638.0805,41,-88,-315,188,-179,87,784,27
638.081,41,-88,-315,189,-179,87,785,27
638.0815,42,-88,-315,189,-180,87,784,27
638.082,41,-88,-315,188,-179,87,785,28
638.0825,42,-88,-315,188,-180,88,784,28
638.083,41,-88,-315,188,-180,88,784,28
638.0835,41,-88,-315,188,-180,88,785,28
638.084,41,-87,-315,188,-180,88,785,28
638.0845,41,-87,-314,188,-180,87,785,27
638.085,41,-87,-314,188,-180,87,785,27
638.0855,41,-88,-313,188,-179,87,785,27
638.086,42,-88,-314,188,-180,87,785,28
638.0865,41,-87,-313,188,-180,87,785,27
638.087,41,-88,-314,188,-180,87,785,27
638.0875,41,-87,-314,188,-179,87,785,27
638.088,41,-87,-314,188,-179,88,785,27
638.0885,41,-88,-315,188,-180,87,785,28
638.089,41,-88,-315,188,-180,88,785,28
638.0895,41,-87,-315,188,-180,87,784,29
638.09,41,-87,-314,189,-179,87,784,28
638.0905,41,-87,-315,188,-179,88,784,29
638.091,42,-87,-314,188,-179,88,784,28
638.0915,42,-88,-314,188,-179,88,784,29
638.092,42,-87,-314,188,-180,88,784,28
638.0925,41,-87,-314,188,-179,88,784,29
638.093,42,-88,-314,188,-180,87,784,29
638.0935,41,-87,-314,189,-180,88,785,28
638.094,41,-87,-315,189,-180,87,785,29
638.0945,41,-87,-315,189,-180,88,785,29
638.095,41,-87,-315,188,-179,88,786,28
638.0955,41,-87,-314,188,-180,87,786,29
638.096,42,-87,-315,188,-180,88,786,29
638.0965,41,-87,-315,187,-179,88,786,29
638.097,41,-87,-314,186,-179,88,786,29
638.0975,41,-87,-315,186,-180,87,786,28
638.0981,41,-87,-315,187,-180,87,785,27
638.0986,41,-87,-314,186,-179,87,785,26
638.0991,41,-87,-314,186,-179,86,785,26
638.0996,41,-88,-314,186,-180,86,785,26
638.1001,41,-87,-314,187,-179,86,785,26
638.1006,41,-87,-314,188,-180,87,786,26
638.1011,41,-87,-314,188,-180,87,786,26
638.1016,41,-87,-314,189,-180,87,786,27
638.1021,42,-87,-314,189,-180,87,786,27
638.1026,41,-87,-315,190,-180,87,786,27
638.1031,41,-87,-315,190,-180,87,786,28
638.1036,41,-87,-315,190,-181,88,786,28
638.1041,41,-87,-315,190,-180,88,786,29
638.1046,41,-87,-316,190,-180,88,786,28
638.1051,41,-87,-316,189,-180,88,786,28
638.1056,42,-88,-315,189,-181,87,786,28
638.1061,42,-88,-314,188,-180,87,786,28
638.1066,41,-87,-314,188,-180,87,785,28
638.1071,41,-87,-314,188,-180,88,785,28
638.1076,41,-88,-314,188,-180,88,784,28
638.1081,41,-88,-314,188,-180,88,785,28
638.1086,41,-87,-315,188,-179,87,784,28
638.1091,41,-87,-315,189,-179,87,784,27
638.1096,41,-87,-315,188,-179,87,784,28
638.1101,41,-87,-315,189,-179,88,784,28
638.1106,41,-87,-315,189,-180,87,784,27
638.1111,41,-87,-315,189,-179,87,784,27
638.1116,41,-87,-315,189,-179,87,785,28
638.1121,41,-87,-315,189,-180,87,785,27
638.1126,41,-87,-314,188,-179,87,785,27
638.1131,41,-87,-314,188,-179,87,785,27
638.1136,41,-88,-313,187,-179,87,784,27
638.1141,41,-87,-313,187,-179,87,785,27
638.1146,41,-87,-314,187,-179,87,785,27
638.1151,40,-87,-314,188,-180,87,785,27
638.1156,40,-87,-315,188,-179,87,785,27
638.1161,41,-86,-314,189,-180,87,785,27
638.1166,41,-87,-315,189,-180,87,785,27
638.1171,41,-87,-315,189,-180,87,785,27
638.1176,42,-88,-315,189,-181,87,786,27
638.1181,42,-88,-315,189,-181,87,786,27
638.1186,42,-88,-315,189,-181,87,786,27
638.1191,41,-88,-315,188,-181,87,786,27
638.1196,41,-88,-315,188,-181,87,786,27
638.1201,41,-88,-315,189,-181,86,786,27
638.1206,41,-88,-315,189,-181,87,786,27
638.1211,41,-88,-314,188,-181,87,786,27
638.1216,42,-88,-315,189,-181,87,786,27
638.1221,41,-88,-315,189,-181,87,786,27
638.1226,41,-87,-315,189,-181,87,786,28
638.1231,41,-88,-315,189,-181,88,786,28
638.1236,41,-87,-315,189,-181,88,786,28
638.1241,41,-87,-314,188,-181,88,786,29
638.1246,41,-87,-314,188,-180,88,786,29
638.1251,41,-87,-313,187,-180,88,786,28
638.1256,42,-87,-313,187,-180,88,785,28
638.1261,41,-87,-314,188,-180,87,785,28
638.1266,41,-87,-314,188,-180,87,785,27
638.1271,41,-87,-315,188,-180,87,785,28
638.1276,41,-87,-315,188,-180,87,785,28
638.1281,41,-87,-315,188,-180,87,785,27
638.1286,41,-87,-315,188,-180,87,785,27
638.1291,41,-87,-315,188,-180,87,785,28
638.1296,41,-87,-315,188,-180,87,785,28
638.1301,41,-87,-314,188,-180,87,785,28
638.1306,41,-87,-314,188,-180,87,785,27
638.1311,41,-87,-314,188,-180,87,785,27
638.1316,41,-87,-314,188,-180,87,785,27
638.1321,41,-87,-314,188,-180,87,785,27
638.1326,41,-87,-314,188,-179,87,785,27
638.1331,41,-87,-314,188,-180,87,784,27
638.1336,41,-87,-314,189,-180,87,784,27
638.1341,41,-87,-314,188,-180,87,785,27
638.1346,41,-87,-314,189,-180,87,785,27
638.1351,40,-87,-314,189,-180,86,786,27
638.1356,41,-87,-315,190,-180,87,786,28
638.1361,41,-86,-315,190,-180,87,786,27
638.1366,41,-87,-315,190,-180,87,786,28
638.1371,41,-86,-316,190,-180,87,786,28
638.1376,40,-87,-316,190,-181,87,786,28
638.1381,41,-87,-316,190,-181,88,786,28
638.1386,40,-86,-316,190,-180,88,786,29
638.1391,40,-87,-316,189,-179,88,785,29
638.1396,40,-86,-316,189,-179,88,785,29
638.1401,41,-86,-316,189,-179,88,785,28
638.1406,41,-87,-315,188,-179,87,785,27
638.1411,41,-87,-314,187,-180,88,785,28
638.1416,41,-87,-314,187,-180,87,785,28
638.1421,41,-87,-313,188,-180,87,786,28
638.1426,41,-87,-313,188,-180,87,785,28
638.1431,41,-87,-313,188,-180,87,786,28
638.1437,41,-87,-312,187,-180,87,786,27
638.1442,40,-87,-313,188,-180,87,785,27
638.1447,41,-87,-313,188,-179,86,785,27
638.1452,41,-87,-314,188,-179,86,785,26
638.1457,41,-87,-314,188,-180,86,784,27
638.1462,41,-87,-314,188,-179,87,784,27
638.1467,41,-87,-314,188,-179,87,784,27
638.1472,40,-86,-314,188,-179,88,784,28
638.1477,41,-87,-314,188,-179,88,784,28
638.1482,41,-87,-314,188,-179,88,784,28
638.1487,40,-87,-314,188,-179,88,784,28
638.1492,40,-87,-315,189,-178,88,784,27
638.1497,41,-87,-315,188,-178,87,784,27
638.1502,41,-87,-315,189,-178,87,784,27
638.1507,41,-87,-315,189,-178,87,784,27
638.1512,41,-87,-315,190,-179,87,784,26
638.1517,41,-86,-315,190,-179,87,784,27
638.1522,41,-87,-315,189,-179,87,784,26
638.1527,41,-87,-314,190,-179,87,785,27
638.1532,41,-87,-314,189,-180,87,784,27
638.1537,41,-87,-314,188,-179,87,785,27
638.1542,41,-87,-313,187,-179,87,785,27
638.1547,41,-87,-313,186,-179,87,785,28
638.1552,41,-87,-313,187,-179,87,784,27
638.1557,41,-87,-313,187,-180,87,785,28
638.1562,41,-87,-314,187,-179,87,785,29
638.1567,41,-86,-314,188,-180,88,785,28
638.1572,40,-87,-314,188,-179,88,785,28
638.1577,41,-87,-314,188,-180,87,785,28
638.1582,41,-87,-315,189,-180,88,785,28
638.1587,41,-87,-315,188,-179,87,784,28
638.1592,40,-87,-315,188,-179,87,784,28
638.1597,40,-87,-315,188,-179,87,785,28
638.1602,41,-87,-315,188,-180,87,785,28
638.1607,41,-88,-314,188,-180,87,786,27
638.1612,41,-87,-314,188,-180,87,786,27
638.1617,40,-87,-313,188,-180,87,786,27
638.1622,40,-87,-314,188,-180,88,786,27
638.1627,41,-87,-314,188,-180,88,786,28
638.1632,40,-87,-313,188,-180,87,785,28
638.1637,40,-86,-314,188,-180,87,786,28
638.1642,40,-86,-314,188,-180,88,785,28
638.1647,41,-86,-314,188,-180,87,785,28
638.1652,41,-87,-314,188,-180,87,785,27
638.1657,41,-87,-315,188,-180,87,786,27
638.1662,41,-87,-314,187,-179,87,785,27
638.1667,41,-87,-315,188,-179,87,785,27
638.1672,41,-87,-314,188,-179,86,785,27
638.1677,41,-87,-315,188,-179,86,785,27
638.1682,41,-87,-315,188,-179,87,785,27
638.1687,41,-87,-314,188,-179,87,784,27
638.1692,40,-87,-315,188,-179,86,784,27
638.1697,41,-87,-315,188,-179,87,784,27
638.1702,41,-87,-315,189,-179,87,784,27
638.1707,41,-86,-315,189,-179,87,784,27
638.1712,41,-86,-314,188,-179,87,784,27
638.1717,40,-86,-314,188,-178,87,784,27
638.1722,41,-87,-314,189,-178,87,784,27
638.1727,41,-87,-314,189,-179,88,784,27
638.1732,41,-87,-314,188,-179,87,785,28
638.1737,41,-87,-314,188,-179,88,785,27
638.1742,41,-87,-314,188,-179,88,785,27
638.1747,41,-87,-314,188,-179,87,784,28
638.1752,41,-86,-314,187,-179,87,784,27
638.1757,40,-87,-314,188,-179,87,783,27
638.1762,41,-86,-314,188,-179,87,783,27
638.1767,40,-87,-314,189,-179,87,783,27
638.1772,41,-86,-314,188,-179,87,783,28
638.1777,40,-87,-314,189,-179,87,783,28
638.1782,40,-87,-314,188,-180,87,784,28
638.1787,40,-86,-314,189,-179,87,784,27
638.1792,40,-87,-315,189,-179,86,784,27
638.1797,40,-87,-315,189,-179,86,785,27
638.1802,40,-86,-314,189,-179,87,785,28
638.1807,40,-86,-314,189,-180,87,786,27
638.1812,40,-86,-314,189,-180,87,786,28
638.1817,40,-86,-315,189,-179,87,786,28
638.1822,41,-86,-315,189,-180,87,786,27
638.1827,41,-86,-315,190,-179,87,785,28
638.1832,41,-86,-316,191,-179,87,785,28
638.1837,41,-86,-316,191,-180,87,785,27
638.1842,41,-86,-317,191,-180,87,785,27
638.1847,40,-86,-317,191,-179,87,785,27
638.1852,40,-86,-317,191,-180,87,785,27
638.1857,40,-86,-317,190,-180,87,785,28
638.1862,40,-86,-317,191,-180,87,785,27
638.1867,40,-86,-316,190,-180,87,785,27
638.1872,40,-86,-314,188,-179,87,785,27
638.1877,40,-86,-312,186,-179,87,785,27
638.1882,41,-87,-310,185,-179,87,784,27
638.1888,41,-87,-311,186,-179,87,784,28
638.1893,40,-87,-313,187,-179,87,784,28
638.1898,41,-87,-314,189,-180,87,784,28
638.1903,40,-87,-314,189,-180,87,785,28
638.1908,40,-87,-314,189,-180,87,784,27
638.1913,41,-87,-314,189,-179,87,785,27
638.1918,40,-86,-314,189,-179,87,784,28
638.1923,40,-86,-314,188,-180,87,784,27
638.1928,41,-87,-313,187,-180,87,784,27
638.1933,40,-87,-313,186,-179,87,784,27
638.1938,41,-87,-313,186,-179,87,785,27
638.1943,40,-87,-313,186,-179,87,785,27
638.1948,41,-87,-313,187,-179,87,784,27
638.1953,40,-86,-314,188,-179,87,784,28
638.1958,40,-87,-314,188,-180,87,785,28
638.1963,40,-87,-314,188,-179,87,785,28
638.1968,41,-87,-314,188,-179,88,785,28
638.1973,40,-87,-313,188,-180,87,785,28
638.1978,41,-87,-314,188,-179,87,785,28
638.1983,40,-87,-314,188,-179,87,785,28
638.1988,40,-87,-314,189,-179,86,785,28
638.1993,40,-87,-314,188,-180,87,784,28
638.1998,40,-87,-314,189,-179,87,784,28
638.2003,40,-86,-314,189,-179,87,784,27
638.2008,40,-86,-314,188,-179,87,784,26
638.2013,40,-86,-314,189,-179,87,784,26
638.2018,40,-85,-314,189,-180,87,785,26
638.2023,40,-86,-314,189,-179,87,784,26
638.2028,41,-86,-314,189,-180,87,785,26
638.2033,41,-87,-314,188,-179,87,784,27
638.2038,41,-87,-313,188,-179,87,785,27
638.2043,41,-87,-314,189,-179,87,785,27
638.2048,41,-86,-314,188,-179,87,786,27
638.2053,40,-86,-314,188,-180,87,786,27
638.2058,40,-86,-314,188,-180,87,786,27
638.2063,40,-86,-314,189,-180,87,786,28
638.2068,40,-86,-314,189,-180,88,785,27
638.2073,40,-86,-314,189,-180,88,785,28
638.2078,40,-86,-314,189,-180,87,785,27
638.2083,40,-86,-314,189,-180,87,785,27
638.2088,40,-86,-314,189,-179,87,785,27
638.2093,40,-86,-314,189,-179,87,785,27
638.2098,40,-86,-314,188,-180,87,785,27
638.2103,40,-86,-314,188,-179,86,785,27
638.2108,41,-87,-314,188,-179,87,786,27
638.2113,41,-87,-314,188,-179,87,785,26
638.2118,42,-88,-314,188,-179,87,785,27
638.2123,41,-88,-314,188,-179,86,785,27
638.2128,41,-88,-314,188,-179,87,785,27
638.2133,41,-88,-315,188,-179,87,785,28
638.2138,41,-88,-314,188,-180,87,785,28
638.2143,40,-88,-315,188,-180,87,785,27
638.2148,41,-87,-314,189,-179,87,785,27
638.2153,40,-87,-315,189,-179,87,785,27
638.2158,39,-86,-315,189,-179,87,785,27
638.2163,40,-85,-314,189,-180,88,785,28
638.2168,39,-85,-314,189,-179,87,785,27
638.2173,40,-86,-314,189,-180,87,785,28
638.2178,40,-85,-314,188,-179,88,785,28
638.2183,41,-86,-313,188,-179,87,785,28
638.2188,40,-85,-314,188,-179,87,785,28
638.2193,40,-85,-314,188,-179,87,785,29
638.2198,40,-85,-314,188,-179,87,785,28
638.2203,40,-86,-314,189,-179,87,785,28
638.2208,40,-86,-314,188,-179,87,785,27
638.2213,40,-86,-314,189,-179,87,785,28
638.2218,40,-86,-314,188,-179,87,786,28
638.2223,40,-86,-314,189,-180,87,785,28
638.2228,40,-86,-314,188,-179,87,785,28
638.2233,40,-86,-314,188,-179,87,785,28
638.2238,40,-86,-314,189,-179,88,785,28
638.2243,40,-86,-314,189,-179,88,785,28
638.2248,40,-86,-314,189,-179,88,785,28
638.2253,41,-87,-314,189,-179,87,785,27
638.2258,40,-87,-314,188,-179,87,785,28
638.2263,40,-87,-314,189,-179,87,785,28
638.2268,40,-87,-314,189,-180,87,784,28
638.2273,41,-87,-314,189,-179,87,785,28
638.2278,40,-87,-314,189,-179,87,784,27
638.2283,40,-86,-314,189,-179,87,785,27
638.2288,39,-85,-314,189,-179,87,785,27
638.2293,39,-86,-314,188,-179,87,785,28
638.2298,40,-86,-313,189,-179,87,785,27
638.2303,40,-86,-314,188,-179,87,785,28
638.2308,41,-86,-314,189,-179,87,785,27
638.2313,41,-87,-314,189,-179,88,785,28
638.2318,40,-86,-314,189,-179,87,785,28
638.2323,40,-86,-314,189,-180,87,785,28
638.2328,40,-87,-314,189,-179,87,785,28
638.2333,40,-87,-314,189,-179,87,785,28
638.2338,40,-87,-314,189,-179,88,785,28
638.2344,40,-87,-314,189,-179,87,785,28
638.2349,40,-86,-314,189,-179,87,785,28
638.2354,40,-87,-314,189,-179,88,784,27
638.2359,40,-86,-314,190,-179,87,784,28
638.2364,40,-86,-315,190,-179,87,785,27
638.2369,39,-85,-315,190,-180,87,785,27
638.2374,39,-85,-315,190,-179,87,785,28
638.2379,40,-85,-315,190,-180,87,785,27
638.2384,40,-85,-315,190,-180,87,785,27
638.2389,40,-85,-315,190,-179,87,785,28
638.2394,40,-86,-315,189,-179,87,785,27
638.2399,40,-86,-315,189,-179,87,785,27
638.2404,40,-86,-314,188,-179,87,785,28
638.2409,40,-86,-313,188,-179,87,785,27
638.2414,40,-86,-313,187,-180,88,785,27
638.2419,40,-86,-313,187,-179,87,786,28
638.2424,40,-86,-313,188,-180,87,786,28
638.2429,40,-86,-314,188,-180,88,786,27
638.2434,40,-86,-314,188,-179,87,786,28
638.2439,40,-86,-314,188,-179,88,786,28
638.2444,40,-86,-314,189,-180,87,786,28
638.2449,40,-86,-315,189,-180,87,786,28
638.2454,40,-86,-314,189,-180,88,786,27
638.2459,40,-86,-315,189,-180,88,785,28
638.2464,40,-85,-314,190,-180,88,786,28
638.2469,40,-86,-314,189,-180,88,786,27
638.2474,40,-86,-314,189,-180,87,786,27
638.2479,40,-86,-314,189,-179,87,785,27
638.2484,40,-86,-315,190,-180,87,785,27
638.2489,39,-86,-315,190,-180,88,785,27
638.2494,40,-86,-315,190,-180,87,785,27
638.2499,40,-86,-315,189,-179,87,784,27
638.2504,40,-86,-314,189,-179,87,784,27
638.2509,40,-86,-314,188,-179,87,784,26
638.2514,41,-86,-314,188,-179,86,785,26
638.2519,40,-87,-314,189,-180,87,784,26
638.2524,40,-87,-314,189,-179,86,785,26
638.2529,40,-87,-314,188,-179,86,785,26
638.2534,40,-87,-314,189,-179,87,784,27
638.2539,41,-87,-313,188,-179,87,784,28
638.2544,40,-87,-313,188,-178,87,784,28
638.2549,40,-87,-312,188,-179,87,784,28
638.2554,40,-86,-312,188,-178,87,784,28
638.2559,39,-85,-313,188,-179,87,784,28
638.2564,39,-85,-313,188,-179,87,784,28
638.2569,39,-85,-314,189,-179,87,785,28
638.2574,40,-85,-314,190,-179,88,785,28
638.2579,40,-86,-315,190,-180,88,785,28
638.2584,41,-85,-315,190,-180,87,785,27
638.2589,40,-86,-315,191,-180,87,786,28
638.2594,40,-86,-316,191,-180,87,786,27
638.2599,40,-86,-315,191,-180,87,785,27
638.2604,40,-86,-314,190,-179,87,785,27
638.2609,40,-86,-314,190,-180,87,786,27
638.2614,40,-86,-314,190,-180,87,786,27
638.2619,40,-86,-314,191,-180,87,786,27
638.2624,40,-86,-314,190,-180,87,785,27
638.2629,40,-85,-314,190,-180,87,785,27
638.2634,40,-85,-314,189,-180,87,785,28
638.2639,40,-86,-313,187,-180,87,785,28
638.2644,40,-86,-313,187,-180,87,785,27
638.2649,40,-86,-313,187,-179,87,785,27
638.2654,40,-86,-313,188,-179,87,785,27
638.2659,40,-86,-313,188,-179,87,785,26
638.2664,40,-86,-313,189,-180,87,785,27
638.2669,40,-86,-314,189,-179,87,785,26
638.2674,40,-86,-314,189,-179,87,785,26
638.2679,40,-86,-314,189,-179,87,785,27
638.2684,39,-85,-314,189,-178,87,784,27
638.2689,39,-85,-314,188,-178,87,783,27
638.2694,39,-85,-314,189,-179,87,783,27
638.2699,40,-85,-314,188,-179,87,782,27
638.2704,40,-85,-313,188,-178,87,782,28
638.2709,40,-85,-313,188,-179,87,782,28
638.2714,40,-85,-314,189,-179,88,782,27
638.2719,40,-85,-314,188,-178,88,782,28
638.2724,40,-86,-314,188,-178,88,782,28
638.2729,41,-86,-313,188,-179,87,783,28
638.2734,40,-86,-313,188,-179,87,784,28
638.2739,40,-86,-313,189,-179,87,785,28
638.2744,40,-86,-313,189,-179,87,786,27
638.2749,40,-86,-313,189,-179,87,786,27
638.2754,40,-86,-313,189,-179,87,786,27
638.2759,40,-85,-313,189,-179,87,786,27
638.2764,40,-85,-314,189,-179,87,785,27
638.2769,40,-85,-314,189,-179,87,785,28
638.2774,40,-86,-314,190,-180,87,785,28
638.2779,40,-86,-314,190,-179,87,785,27
638.2784,40,-86,-315,190,-180,87,785,28
638.2789,40,-86,-315,190,-179,87,786,28
638.2795,40,-86,-315,190,-180,88,785,28
638.28,40,-86,-315,190,-179,87,785,28
638.2805,40,-86,-314,190,-179,88,785,28
638.281,40,-86,-314,189,-179,88,785,28
638.2815,40,-86,-314,188,-179,88,785,28
638.282,40,-86,-312,188,-179,88,785,28
638.2825,40,-86,-312,187,-179,88,785,28
638.283,40,-86,-313,188,-179,87,785,27
638.2835,40,-86,-313,188,-179,87,785,27
638.284,40,-86,-314,189,-179,87,785,27
638.2845,39,-86,-314,190,-179,87,785,27
638.285,39,-86,-314,190,-179,88,784,27
638.2855,39,-85,-314,190,-179,88,784,27
638.286,39,-85,-314,190,-179,87,784,27
638.2865,39,-86,-314,190,-179,87,784,28
638.287,39,-85,-314,190,-179,88,784,28
638.2875,40,-86,-315,190,-180,87,785,27
638.288,40,-85,-315,190,-179,87,784,27
638.2885,40,-85,-314,189,-179,87,785,27
638.289,39,-86,-314,188,-179,87,784,27
638.2895,40,-86,-313,187,-179,87,785,26
638.29,39,-86,-313,188,-179,86,785,26
638.2905,40,-86,-313,188,-179,87,786,27
638.291,40,-86,-313,188,-179,87,786,27
638.2915,39,-86,-314,189,-179,87,786,27
638.292,39,-85,-314,189,-179,87,785,27
638.2925,38,-84,-315,190,-179,87,785,27
638.293,39,-84,-314,189,-179,87,785,27
638.2935,39,-84,-314,189,-179,87,785,27
638.294,39,-84,-314,190,-179,87,785,27
638.2945,39,-85,-314,190,-179,87,785,27
638.295,39,-85,-314,189,-179,88,785,27
638.2955,39,-85,-314,189,-179,87,784,27
638.296,40,-85,-313,189,-179,87,785,27
638.2965,40,-86,-313,188,-179,87,785,27
638.297,40,-86,-312,187,-179,87,785,27
638.2975,40,-86,-312,187,-179,87,785,27
638.298,40,-86,-312,187,-179,87,785,27
638.2985,40,-86,-313,188,-179,87,784,27
638.299,40,-86,-314,188,-179,87,784,27
638.2995,40,-86,-314,189,-179,87,784,27
638.3,40,-86,-314,188,-179,87,784,27
638.3005,40,-87,-314,189,-179,87,784,26
638.301,41,-87,-314,189,-179,87,785,26
638.3015,41,-88,-314,189,-180,87,785,26
638.302,41,-87,-314,189,-179,87,785,26
638.3025,40,-87,-313,189,-179,87,785,26
638.303,40,-87,-314,189,-179,87,785,26
638.3035,40,-87,-314,189,-179,87,785,27
638.304,40,-86,-313,189,-179,87,785,27
638.3045,40,-86,-314,188,-179,87,785,27
638.305,40,-86,-313,188,-179,87,785,27
638.3055,40,-86,-313,188,-179,87,785,27
638.306,40,-86,-313,188,-179,87,785,28
638.3065,40,-86,-313,188,-179,88,785,28
638.307,40,-86,-313,189,-180,88,785,28
638.3075,39,-86,-314,190,-179,88,785,28
638.308,40,-86,-314,189,-179,87,785,28
638.3085,40,-86,-315,190,-179,87,785,28
638.309,39,-86,-315,190,-179,87,785,28
638.3095,40,-85,-316,190,-179,87,785,28
638.31,39,-85,-316,191,-179,87,785,28
638.3105,40,-85,-316,190,-179,87,785,27
638.311,40,-85,-315,190,-179,87,785,28
638.3115,40,-85,-315,190,-179,87,785,27
638.312,40,-86,-315,190,-179,87,785,28
638.3125,40,-86,-314,190,-179,87,785,28
638.313,39,-85,-314,189,-179,87,785,27
638.3135,40,-85,-313,188,-179,87,785,27
638.314,40,-85,-311,187,-178,88,784,28
638.3145,40,-85,-311,187,-179,87,785,28
638.315,39,-85,-311,187,-179,87,785,27
638.3155,40,-85,-311,188,-179,87,785,27
638.316,39,-85,-313,188,-179,87,785,27
638.3165,39,-85,-312,188,-179,87,785,27
638.317,39,-84,-313,188,-179,87,784,27
638.3175,39,-85,-313,188,-179,87,785,27
638.318,40,-85,-314,189,-179,87,784,27
638.3185,39,-85,-314,189,-179,87,785,27
638.319,39,-85,-314,189,-179,87,785,27
638.3195,39,-85,-313,189,-179,87,785,27
638.32,40,-85,-313,189,-179,87,785,27
638.3205,40,-85,-313,189,-179,87,785,27
638.321,40,-86,-313,190,-179,87,785,27
638.3215,40,-86,-313,189,-179,87,785,27
638.322,40,-87,-313,189,-179,87,785,27
638.3225,40,-87,-314,189,-179,87,785,27
638.323,40,-87,-313,189,-180,87,785,27
638.3235,40,-86,-313,189,-179,87,785,27
638.324,39,-86,-313,189,-179,87,785,27
638.3246,39,-86,-313,189,-179,87,785,27
638.3251,39,-85,-313,189,-179,87,785,27
638.3256,38,-84,-313,189,-179,87,785,27
638.3261,37,-83,-313,189,-179,87,785,27
638.3266,37,-83,-313,188,-179,87,785,27
638.3271,37,-84,-314,189,-179,87,784,27
638.3276,38,-84,-314,189,-179,87,785,27
638.3281,39,-85,-314,190,-179,87,785,27
638.3286,39,-85,-314,190,-179,88,785,28
638.3291,39,-85,-314,190,-179,88,785,28
638.3296,39,-85,-315,190,-179,87,785,27
638.3301,39,-85,-314,190,-179,87,785,27
638.3306,40,-85,-314,190,-179,87,785,27
638.3311,40,-86,-313,189,-179,87,785,26
638.3316,41,-86,-313,188,-179,87,785,27
638.3321,40,-85,-313,188,-179,87,785,26
638.3326,40,-85,-312,188,-179,87,784,26
638.3331,40,-85,-313,188,-179,87,785,26
638.3336,40,-85,-313,189,-179,87,785,27
638.3341,39,-84,-314,189,-179,87,785,26
638.3346,39,-84,-314,189,-179,87,784,27
638.3351,39,-84,-314,189,-179,88,784,27
638.3356,38,-84,-314,189,-179,88,784,27
638.3361,39,-84,-314,189,-179,88,784,28
638.3366,39,-85,-314,189,-178,88,784,28
638.3371,39,-85,-313,189,-179,88,783,27
638.3376,40,-86,-313,189,-178,87,783,28
638.3381,41,-86,-313,188,-178,87,782,27
638.3386,41,-87,-313,188,-178,87,782,27
638.3391,41,-87,-313,187,-178,87,783,27
638.3396,40,-86,-313,187,-178,87,783,27
638.3401,40,-86,-312,188,-178,86,784,26
638.3406,40,-86,-313,188,-179,86,785,26
638.3411,40,-86,-313,188,-179,86,786,25
638.3416,40,-86,-313,189,-178,86,786,26
638.3421,40,-86,-314,189,-179,86,787,27
638.3426,39,-86,-314,190,-179,87,786,27
638.3431,39,-86,-313,190,-179,87,786,27
638.3436,40,-86,-313,190,-179,87,786,28
638.3441,40,-86,-314,190,-180,88,786,28
638.3446,40,-86,-314,190,-180,88,785,28
638.3451,40,-86,-313,189,-180,88,786,28
638.3456,40,-86,-314,189,-179,88,786,28
638.3461,39,-86,-313,189,-179,88,785,28
638.3466,40,-86,-313,190,-180,87,785,27
638.3471,40,-86,-313,189,-179,87,785,27
638.3476,40,-86,-313,190,-179,87,785,27
638.3481,40,-86,-313,190,-180,87,785,27
638.3486,40,-86,-314,190,-180,87,785,27
638.3491,40,-86,-314,190,-180,87,785,27
638.3496,40,-86,-314,191,-180,87,786,27
638.3501,40,-85,-314,191,-179,87,785,26
638.3506,40,-85,-314,190,-180,87,785,26
638.3511,40,-85,-314,190,-179,87,786,26
638.3516,40,-86,-315,189,-179,87,785,26
638.3521,40,-85,-313,188,-179,87,785,27
638.3526,40,-85,-312,186,-178,87,785,27
638.3531,40,-86,-312,186,-178,87,785,27
638.3536,40,-86,-312,186,-179,87,784,27
638.3541,40,-86,-312,187,-179,87,785,27
638.3546,40,-86,-312,188,-179,87,784,28
638.3551,40,-86,-313,188,-179,88,785,28
638.3556,40,-86,-313,188,-179,88,785,29
638.3561,40,-86,-313,189,-179,88,785,29
638.3566,40,-85,-314,189,-179,88,785,29
638.3571,39,-85,-313,190,-179,88,785,28
638.3576,39,-84,-313,190,-179,88,784,28
638.3581,38,-84,-313,190,-179,87,784,27
638.3586,38,-84,-314,190,-179,87,784,27
638.3591,39,-84,-314,190,-178,87,784,27
638.3596,39,-85,-314,190,-179,87,784,27
638.3601,39,-85,-314,190,-179,87,785,26
638.3606,40,-85,-313,190,-179,87,785,27
638.3611,40,-85,-314,190,-179,87,785,27
638.3616,40,-86,-313,189,-179,87,785,27
638.3621,40,-85,-313,189,-179,87,785,27
638.3626,40,-86,-313,189,-179,87,785,26
638.3631,40,-86,-313,188,-179,87,785,27
638.3636,40,-86,-313,189,-179,87,785,27
638.3641,40,-86,-313,189,-179,87,786,28
638.3646,40,-86,-313,189,-179,87,785,27
638.3651,40,-86,-314,189,-179,88,785,27
638.3656,39,-85,-314,189,-179,88,785,28
638.3661,39,-85,-314,189,-179,88,785,28
638.3666,39,-85,-314,190,-179,88,785,28
638.3671,39,-85,-314,190,-179,87,785,27
638.3676,39,-85,-314,190,-179,87,785,27
638.3681,38,-84,-314,191,-179,87,785,27
638.3686,38,-84,-315,191,-179,87,785,27
638.3691,39,-85,-315,191,-179,87,785,27
638.3696,40,-85,-314,191,-179,87,785,27
638.3702,40,-85,-314,191,-179,87,785,27
638.3707,40,-85,-314,190,-180,87,785,26
638.3712,40,-85,-314,189,-179,87,785,27
638.3717,40,-86,-313,188,-179,87,785,26
638.3722,40,-86,-313,188,-179,87,785,26
638.3727,39,-86,-312,188,-179,87,785,26
638.3732,39,-85,-312,187,-179,87,785,27
638.3737,39,-85,-312,188,-178,87,785,28
638.3742,39,-85,-313,188,-178,88,784,28
638.3747,39,-84,-313,189,-179,88,785,28
638.3752,39,-84,-313,189,-179,88,784,29
638.3757,39,-84,-313,189,-178,88,784,28
638.3762,39,-85,-313,189,-179,88,785,28
638.3767,40,-85,-313,189,-180,87,784,28
638.3772,40,-85,-313,189,-179,87,785,28
638.3777,40,-85,-314,189,-180,87,785,28
638.3782,40,-85,-314,190,-179,87,785,28
638.3787,39,-85,-314,189,-179,87,785,28
638.3792,39,-85,-313,190,-179,87,786,28
638.3797,39,-85,-313,189,-179,87,785,28
638.3802,39,-85,-313,189,-179,87,785,27
638.3807,39,-85,-312,189,-179,88,785,27
638.3812,39,-85,-312,189,-178,87,785,27
638.3817,39,-85,-313,189,-179,87,785,26
638.3822,40,-85,-313,190,-179,87,785,25
638.3827,39,-85,-313,190,-179,87,785,26
638.3832,39,-85,-314,190,-179,86,785,26
638.3837,39,-85,-314,190,-179,87,785,27
638.3842,39,-85,-314,189,-179,87,785,27
638.3847,39,-85,-314,189,-178,87,785,27
638.3852,39,-85,-314,189,-179,87,785,27
638.3857,40,-85,-314,189,-179,87,785,27
638.38617,40,-85,-314,190,-179,87,785,27
638.3867,39,-85,-315,190,-179,87,785,27
638.3872,39,-85,-314,190,-179,87,785,27
638.3877,39,-85,-315,190,-179,86,785,26
638.3882,39,-85,-314,190,-179,87,785,27
638.3887,39,-85,-314,189,-179,87,785,27
638.3892,39,-85,-313,189,-178,87,785,27
638.3897,39,-85,-313,189,-179,87,785,28
638.3902,40,-85,-312,188,-179,87,785,27
638.3907,40,-85,-312,188,-179,88,785,27
638.3912,40,-85,-312,189,-179,87,785,27
638.3917,40,-85,-312,189,-179,87,785,27
638.3922,39,-85,-312,188,-180,87,785,27
638.3927,39,-85,-313,189,-179,88,785,27
638.3932,39,-85,-313,190,-179,87,784,27
638.3937,39,-85,-313,189,-179,88,785,27
638.3942,39,-84,-314,189,-179,87,784,27
638.3947,39,-85,-314,190,-179,87,785,27
638.3952,39,-85,-313,190,-179,88,785,27
638.3957,39,-85,-314,190,-179,87,785,28
638.3962,40,-85,-314,190,-180,88,785,27
638.3967,39,-85,-314,190,-179,87,785,27
638.3972,39,-85,-314,190,-178,88,784,27
638.3977,39,-85,-314,191,-179,88,784,27
638.3982,39,-85,-314,191,-179,87,783,27
638.3987,39,-85,-315,191,-179,87,783,27
638.3992,39,-85,-314,190,-179,87,783,26
638.3997,39,-85,-313,189,-178,87,783,27
638.4002,39,-85,-313,189,-178,87,783,26
638.4007,39,-85,-313,189,-178,87,784,26
638.4012,39,-85,-313,189,-178,87,784,26
638.4017,39,-85,-313,189,-179,87,785,26
638.4022,40,-85,-313,189,-179,87,785,26
638.4027,40,-85,-313,188,-179,87,786,26
638.4032,40,-86,-313,189,-179,87,786,27
638.4037,40,-86,-313,188,-179,87,787,27
638.4042,40,-86,-313,189,-178,87,786,27
638.4047,40,-86,-313,189,-179,87,785,27
638.4052,40,-86,-312,188,-179,87,785,27
638.4057,40,-86,-312,188,-179,87,786,27
638.4062,40,-85,-313,189,-179,87,785,27
638.4067,39,-84,-313,189,-179,88,785,27
638.4072,38,-84,-314,190,-179,88,785,28
638.4077,39,-84,-314,190,-179,88,785,28
638.4082,38,-84,-315,191,-180,88,785,28
638.4087,38,-84,-315,191,-179,88,785,28
638.4092,39,-84,-314,191,-179,87,786,28
638.4097,39,-84,-314,190,-179,88,785,27
638.4102,39,-85,-314,190,-179,88,785,27
638.4107,39,-85,-314,190,-179,87,785,27
638.4112,39,-85,-314,190,-179,87,785,27
638.4117,39,-86,-314,190,-179,87,785,28
638.4122,39,-86,-313,189,-179,88,785,27
638.4127,39,-86,-313,189,-179,87,785,27
638.4132,39,-86,-313,189,-178,87,785,27
638.4137,38,-85,-314,189,-179,87,785,27
638.4142,38,-84,-315,190,-179,87,785,27
638.4147,37,-84,-315,190,-179,87,785,27
638.4152,38,-84,-313,190,-179,87,785,27
638.4158,38,-84,-312,189,-179,87,784,27
638.4163,38,-84,-311,188,-178,87,784,27
638.4168,38,-83,-311,187,-179,87,785,26
638.4173,39,-84,-311,186,-179,87,785,27
638.4178,39,-84,-311,186,-179,88,785,27
638.4183,40,-85,-311,187,-179,87,785,26
638.4188,39,-85,-312,188,-179,87,785,27
638.4193,40,-85,-312,188,-179,87,785,27
638.4198,39,-84,-312,188,-179,87,785,27
638.4203,39,-85,-313,189,-179,87,785,27
638.4208,39,-84,-312,189,-179,88,785,27
638.4213,39,-85,-312,189,-179,87,785,27
638.4218,39,-84,-313,190,-179,88,785,27
638.4223,39,-85,-313,190,-179,88,785,27
638.4228,40,-85,-313,189,-179,87,785,27
638.4233,39,-85,-313,189,-179,88,785,27
638.4238,39,-85,-313,189,-179,88,785,27
638.4243,39,-84,-312,189,-178,88,785,27
638.4248,39,-85,-313,189,-179,88,785,27
638.4253,40,-85,-313,189,-179,88,785,27
638.4258,40,-85,-313,189,-179,88,785,27
638.4263,39,-85,-313,189,-179,87,785,27
638.4268,39,-85,-313,189,-179,87,785,27
638.4273,40,-85,-313,189,-179,87,785,28
638.4278,40,-86,-314,189,-179,87,785,28
638.4283,40,-86,-314,189,-179,88,785,28
638.4288,40,-87,-314,190,-179,87,784,28
638.4293,40,-86,-313,190,-179,88,784,27
638.4298,40,-86,-314,190,-179,88,783,27
638.4303,40,-85,-313,190,-178,88,783,27
638.4308,40,-85,-313,190,-179,87,783,27
638.4313,40,-85,-313,190,-178,87,782,27
638.4318,39,-85,-313,190,-179,87,783,27
638.4323,40,-85,-313,190,-179,87,783,27
638.4328,40,-85,-313,189,-178,86,784,27
638.4333,40,-85,-313,189,-179,86,785,27
638.4338,40,-85,-313,189,-179,87,785,27
638.4343,40,-86,-313,189,-179,87,786,26
638.4348,40,-86,-313,188,-179,87,786,27
638.4353,40,-86,-313,188,-179,87,786,27
638.4358,40,-86,-313,188,-178,87,786,27
638.4363,40,-86,-313,188,-179,88,785,27
638.4368,39,-86,-313,189,-179,87,785,27
638.4373,40,-86,-313,188,-179,87,785,27
638.4378,39,-85,-313,188,-179,88,785,27
638.4383,39,-85,-313,189,-179,87,785,27
638.4388,38,-85,-314,190,-179,88,785,28
638.4393,39,-84,-313,190,-179,87,786,27
638.4398,39,-85,-313,190,-179,87,786,26
638.4403,40,-85,-312,190,-179,87,786,27
638.4408,39,-85,-312,190,-180,87,786,26
638.4413,39,-85,-312,190,-179,87,786,27
638.4418,39,-85,-312,190,-180,87,786,27
638.4423,39,-84,-313,190,-179,87,786,27
638.4428,39,-84,-314,190,-179,88,786,28
638.4433,39,-84,-314,190,-179,88,786,27
638.4438,38,-84,-314,190,-179,88,785,27
638.4443,38,-84,-314,190,-179,88,785,27
638.4448,39,-84,-314,190,-179,87,785,27
638.4453,39,-84,-314,189,-178,88,785,27
638.4458,39,-85,-313,189,-179,88,785,27
638.4463,39,-85,-313,189,-179,88,785,27
638.4468,40,-85,-312,188,-179,88,785,28
638.4473,40,-85,-312,189,-179,88,785,27
638.4478,40,-85,-312,188,-179,87,785,27
638.4483,39,-85,-312,189,-178,87,785,27
638.4488,39,-85,-313,189,-179,87,785,27
638.4493,39,-85,-313,189,-179,88,785,28
638.4498,39,-85,-313,189,-179,87,785,27
638.4503,39,-85,-313,189,-179,88,785,27
638.4508,39,-85,-313,189,-178,87,785,27
638.4513,39,-85,-313,189,-179,87,785,27
638.4518,39,-85,-313,189,-179,87,785,27
638.4523,40,-85,-313,189,-179,87,785,27
638.4528,39,-85,-313,189,-179,87,785,27
638.4533,40,-84,-313,189,-179,87,785,27
638.4538,39,-84,-313,189,-179,87,785,28
638.4543,39,-85,-313,189,-179,87,785,28
638.4548,39,-85,-313,189,-179,87,785,27
638.4553,39,-85,-313,190,-178,86,785,28
638.4558,39,-85,-313,189,-179,87,785,27
638.4563,39,-85,-314,190,-179,87,785,28
638.4568,39,-85,-314,191,-179,87,784,28
638.4573,39,-85,-314,190,-180,88,785,27
638.4578,39,-85,-314,190,-179,88,785,27
638.4583,39,-85,-314,190,-179,88,785,28
638.4588,39,-85,-314,190,-179,88,784,27
638.4593,39,-85,-313,190,-179,88,784,27
638.4598,39,-85,-313,188,-178,88,784,27
638.4604,39,-85,-312,188,-179,88,784,27
638.4609,39,-85,-312,188,-178,88,784,27
638.4614,39,-85,-312,188,-178,88,785,26
638.4619,38,-84,-312,189,-179,88,785,27
638.4624,38,-83,-312,189,-179,87,785,26
638.4629,38,-84,-312,189,-179,87,785,26
638.4634,38,-84,-312,190,-179,87,785,26
638.4639,39,-84,-313,190,-179,87,785,28
638.4644,39,-85,-314,190,-179,88,785,28
638.4649,39,-85,-314,191,-179,88,785,28
638.4654,39,-85,-314,191,-179,88,785,28
638.4659,39,-85,-314,191,-179,88,784,28
638.4664,39,-85,-314,191,-179,88,784,28
638.4669,39,-85,-314,191,-179,88,784,29
638.4674,40,-85,-314,191,-179,88,784,28
638.4679,39,-85,-314,191,-179,88,784,28
638.4684,39,-84,-314,190,-179,88,783,28
638.4689,39,-85,-313,189,-178,88,784,28
638.4694,39,-84,-312,188,-179,88,785,27
638.4699,40,-84,-312,188,-179,88,785,28
638.4704,39,-85,-312,189,-179,88,786,27
638.4709,39,-85,-312,189,-179,87,786,27
638.4714,39,-85,-312,188,-179,88,786,27
638.4719,39,-85,-312,188,-179,88,786,27
638.4724,39,-85,-313,189,-179,88,786,27
638.4729,39,-85,-313,189,-179,88,786,27
638.4734,39,-85,-313,190,-179,88,786,27
638.4739,39,-85,-314,190,-179,87,786,27
638.4744,39,-85,-313,190,-179,88,785,27
638.4749,39,-85,-313,189,-179,87,785,26
638.4754,39,-85,-313,189,-179,87,786,26
638.4759,39,-85,-313,188,-179,87,785,26
638.4764,39,-85,-312,189,-179,88,785,27
638.4769,39,-85,-312,189,-179,87,786,27
638.4774,39,-85,-312,189,-178,88,786,27
638.4779,39,-85,-313,190,-179,88,785,26
638.4784,38,-85,-313,190,-179,88,785,27
638.4789,38,-85,-313,189,-179,87,785,27
638.4794,39,-84,-313,189,-179,88,785,27
638.4799,39,-85,-313,188,-178,88,785,27
638.4804,39,-85,-313,188,-179,88,785,27
638.4809,39,-85,-313,189,-179,88,785,27
638.4814,39,-84,-312,189,-179,87,785,27
638.4819,39,-85,-312,189,-179,88,785,27
638.4824,39,-84,-313,190,-179,87,785,27
638.4829,39,-84,-313,189,-179,88,785,28
638.4834,38,-85,-313,190,-179,88,785,28
638.4839,39,-85,-313,189,-179,88,785,28
638.4844,39,-85,-312,189,-179,88,785,28
638.4849,40,-85,-312,189,-179,88,785,27
638.4854,39,-85,-313,189,-179,88,785,28
638.4859,39,-85,-313,190,-179,87,785,27
638.4864,39,-85,-314,191,-179,87,786,27
638.4869,39,-85,-314,191,-179,87,785,27
638.4874,39,-85,-314,191,-179,87,785,27
638.4879,39,-85,-314,190,-179,87,785,27
638.4884,39,-85,-314,191,-179,87,785,27
638.4889,39,-85,-314,190,-179,87,785,27
638.4894,39,-85,-314,190,-179,87,785,27
638.4899,39,-84,-314,190,-179,87,785,27
638.4904,39,-84,-314,190,-179,87,785,28
638.4909,39,-84,-313,189,-179,87,785,27
638.4914,39,-84,-312,188,-179,88,785,28
638.4919,39,-85,-313,188,-179,88,785,27
638.4924,39,-85,-313,189,-179,87,785,27
638.4929,40,-84,-313,189,-179,87,785,27
638.4934,39,-85,-313,189,-179,87,785,26
638.4939,39,-85,-314,190,-179,87,785,27
638.4944,39,-85,-313,190,-179,87,785,27
638.4949,39,-85,-313,190,-178,87,784,27
638.4954,39,-85,-312,189,-179,88,784,27
638.4959,40,-85,-312,189,-179,87,784,27
638.4964,39,-85,-312,189,-178,87,784,26
638.4969,39,-85,-312,189,-179,87,785,27
638.4974,39,-85,-312,189,-179,87,785,27
638.4979,39,-85,-313,189,-179,88,785,27
638.4984,39,-86,-313,189,-179,88,785,27
638.4989,39,-85,-313,189,-179,88,786,27
638.4994,39,-86,-313,189,-179,88,786,27
638.4999,39,-85,-312,189,-179,87,786,27
638.5004,39,-86,-312,189,-179,87,786,27
638.5009,40,-85,-312,189,-179,87,785,26
638.5014,39,-86,-312,189,-179,87,785,27
638.5019,39,-85,-312,190,-179,87,785,27
638.5024,39,-85,-312,190,-178,87,784,27
638.5029,39,-85,-312,191,-179,88,785,27
638.5034,39,-86,-313,190,-179,87,785,27
638.5039,39,-85,-313,190,-179,88,785,27
638.5044,39,-85,-313,191,-179,88,786,28
638.5049,39,-85,-314,191,-180,88,786,28
638.5055,39,-85,-314,191,-180,88,786,27
638.506,39,-85,-313,190,-179,88,786,28
638.5065,39,-84,-313,190,-178,87,785,27
638.507,39,-84,-313,189,-178,88,785,27
638.5075,39,-85,-313,189,-178,87,785,27
638.508,38,-84,-313,188,-178,88,785,27
638.5085,38,-84,-313,189,-178,88,785,27
638.509,38,-84,-313,188,-178,87,784,27
638.5095,39,-84,-313,189,-179,88,785,27
638.51,40,-85,-313,189,-179,87,785,27
638.5105,40,-85,-313,189,-179,87,785,27
638.511,40,-85,-313,190,-179,87,785,26
638.5115,39,-86,-313,189,-179,87,785,27
638.512,40,-86,-313,190,-179,87,785,27
638.5125,39,-86,-313,189,-178,87,785,26
638.513,39,-86,-313,189,-178,87,785,27
638.5135,40,-86,-312,189,-179,87,785,26
638.514,39,-86,-313,189,-179,87,785,26
638.5145,39,-86,-313,190,-179,87,785,26
638.515,39,-85,-314,190,-179,87,785,27
638.5155,39,-84,-313,190,-178,87,785,26
638.516,39,-84,-314,190,-178,87,785,27
638.5165,38,-84,-313,189,-179,87,785,27
638.517,38,-84,-314,190,-179,88,785,27
638.5175,38,-84,-314,191,-179,88,785,28
638.518,39,-84,-314,190,-180,88,785,28
638.5185,39,-84,-312,189,-179,88,785,27
638.519,39,-84,-310,187,-178,87,785,27
638.5195,39,-84,-309,186,-178,88,784,27
638.52,39,-84,-310,187,-178,88,785,27
638.5205,39,-83,-310,188,-178,88,785,28
638.521,39,-84,-312,188,-179,87,785,28
638.5215,39,-84,-312,188,-179,88,785,27
638.522,39,-84,-312,189,-179,87,785,27
638.5225,39,-84,-313,189,-178,88,786,27
638.523,39,-85,-312,189,-179,87,785,27
638.5235,39,-84,-313,189,-179,87,785,27
638.524,39,-85,-313,190,-178,87,785,27
638.5245,39,-85,-313,190,-179,87,785,27
638.525,39,-85,-313,190,-179,87,785,27
638.5255,39,-85,-313,190,-179,87,785,27
638.526,39,-85,-313,190,-179,88,786,27
638.5265,39,-85,-313,190,-179,88,786,27
638.527,39,-85,-314,190,-179,88,786,27
638.5275,39,-85,-313,190,-179,88,785,27
638.528,38,-84,-313,190,-179,88,785,27
638.5285,38,-84,-312,190,-178,88,785,27
638.529,39,-84,-311,190,-179,87,784,27
638.5295,39,-84,-311,190,-179,88,784,27
638.53,39,-84,-311,190,-179,87,785,27
638.5305,40,-85,-311,190,-179,87,785,27
638.531,39,-85,-312,190,-179,87,785,27
638.5315,39,-85,-313,191,-179,87,785,27
638.532,39,-85,-313,190,-179,87,786,27
638.5325,39,-85,-313,190,-179,87,786,27
638.533,39,-84,-312,190,-179,87,785,27
638.5335,39,-84,-313,189,-179,87,785,27
638.534,39,-85,-312,188,-178,87,785,27
638.5345,39,-84,-313,188,-178,87,785,27
638.535,39,-85,-312,188,-179,88,785,27
638.5355,39,-84,-312,188,-178,87,785,27
638.536,39,-85,-312,188,-178,87,785,27
638.5365,39,-84,-312,189,-178,87,785,27
638.537,39,-85,-313,190,-179,87,785,27
638.5375,39,-85,-312,190,-179,87,785,27
638.538,39,-85,-313,190,-178,87,785,27
638.5385,39,-85,-313,190,-179,87,785,27
638.539,39,-85,-313,190,-179,87,785,27
638.5395,39,-85,-313,190,-179,87,784,27
638.54,40,-85,-313,190,-179,87,785,27
638.5405,39,-85,-313,190,-179,87,785,26
638.541,39,-85,-313,190,-179,87,786,27
638.5415,38,-84,-313,190,-179,87,786,27
638.542,39,-84,-313,189,-178,87,785,26
638.5425,39,-84,-313,190,-179,87,785,27
638.543,39,-85,-313,190,-178,88,785,27
638.5435,39,-84,-313,190,-178,88,785,27
638.544,39,-85,-313,190,-179,88,786,28
638.5445,39,-85,-313,190,-179,88,786,27
638.545,39,-85,-314,191,-179,88,786,27
638.5455,39,-85,-313,191,-179,88,785,27
638.546,39,-85,-312,190,-179,88,786,27
638.5465,40,-85,-311,190,-178,88,785,27
638.547,39,-85,-311,189,-179,88,785,27
638.5475,39,-85,-312,190,-179,88,786,26
638.548,39,-85,-312,190,-179,88,785,27
638.5485,38,-85,-313,190,-179,88,785,27
638.549,38,-85,-313,190,-178,88,785,26
638.5495,38,-84,-312,189,-179,87,785,27
638.55,38,-84,-312,189,-179,87,785,26
638.5506,38,-84,-312,188,-178,87,785,26
638.5511,38,-84,-312,188,-178,87,785,27
638.5516,38,-84,-312,189,-178,87,785,28
638.5521,39,-84,-313,189,-178,87,785,27
638.5526,38,-84,-313,190,-179,87,785,27
638.5531,38,-84,-314,190,-178,87,786,27
638.5536,38,-84,-314,190,-179,87,785,27
638.5541,40,-85,-314,191,-179,87,785,27
638.5546,40,-86,-314,191,-179,86,785,26
638.5551,40,-86,-314,191,-179,87,785,26
638.5556,40,-85,-313,190,-179,86,785,26
638.5561,40,-85,-313,190,-179,86,786,26
638.5566,39,-85,-312,188,-178,87,786,26
638.5571,40,-85,-312,189,-179,87,785,27
638.5576,39,-85,-312,189,-178,87,785,27
638.5581,38,-85,-312,190,-179,87,785,27
638.5586,39,-84,-312,189,-179,88,785,28
638.5591,39,-84,-311,189,-179,88,785,27
638.5596,39,-84,-312,189,-179,87,786,28
638.5601,39,-84,-313,191,-179,88,785,28
638.5606,39,-85,-313,191,-179,87,785,27
638.5611,39,-85,-313,190,-178,88,784,28
638.5616,39,-85,-313,190,-178,88,784,28
638.5621,39,-85,-312,190,-179,87,784,28
638.5626,39,-85,-314,190,-178,88,784,28
638.5631,39,-85,-313,190,-178,88,784,28
638.5636,39,-85,-313,191,-178,87,784,28
638.5641,39,-85,-313,189,-178,88,784,29
638.5646,39,-84,-312,189,-178,88,785,28
638.5651,39,-85,-311,188,-178,88,785,28
638.5656,39,-84,-310,188,-178,87,785,27
638.5661,38,-84,-311,188,-178,87,785,27
638.5666,38,-83,-311,189,-178,87,786,26
638.5671,38,-83,-311,189,-179,87,786,26
638.5676,38,-84,-311,189,-179,87,785,26
638.5681,38,-84,-312,190,-179,87,785,26
638.5686,38,-84,-312,190,-178,87,786,27
638.5691,39,-85,-312,190,-179,87,787,27
638.5696,39,-85,-312,189,-178,87,786,27
638.5701,40,-86,-311,189,-178,87,786,27
638.5706,40,-86,-312,189,-179,87,786,27
638.5711,40,-86,-312,189,-179,87,786,27
638.5716,39,-85,-312,189,-179,87,786,27
638.5721,39,-85,-312,189,-178,88,785,27
638.5726,39,-85,-312,189,-178,87,785,27
638.5731,39,-86,-312,189,-178,87,785,27
638.5736,40,-87,-313,189,-178,88,785,27
638.5741,40,-87,-312,189,-178,88,785,27
638.5746,40,-87,-313,189,-178,87,785,27
638.5751,40,-87,-313,189,-178,87,784,26
638.5756,40,-86,-313,190,-178,87,784,26
638.5761,39,-85,-313,190,-179,87,785,27
638.5766,39,-85,-313,190,-179,87,785,26
638.5771,39,-85,-313,190,-179,87,786,27
638.5776,39,-85,-313,191,-179,87,786,27
638.5781,38,-84,-314,190,-179,87,786,27
638.5786,39,-84,-312,190,-179,87,786,27
638.5791,38,-84,-312,190,-179,87,786,26
638.5796,40,-85,-311,190,-179,87,785,25
638.5801,39,-84,-311,189,-178,87,785,26
638.5806,40,-84,-311,189,-178,88,785,26
638.5811,39,-84,-312,189,-179,88,786,27
638.5816,39,-84,-312,190,-179,88,785,28
638.5821,38,-84,-313,190,-179,88,786,28
638.5826,38,-84,-313,191,-179,88,786,28
638.5831,39,-84,-314,190,-179,88,786,28
638.5836,39,-84,-314,190,-179,87,786,28
638.5841,39,-85,-313,190,-179,87,785,27
638.5846,40,-85,-314,189,-178,87,786,27
638.5851,40,-85,-314,189,-178,88,785,27
638.5856,40,-85,-314,190,-179,87,785,27
638.5861,40,-85,-313,190,-178,87,785,27
638.5866,39,-85,-312,190,-179,88,785,27
638.5871,39,-85,-311,189,-178,88,784,27
638.5876,39,-85,-310,189,-178,87,785,27
638.5881,39,-85,-310,189,-178,87,784,27
638.5886,39,-85,-310,189,-178,87,785,27
638.5891,39,-85,-311,189,-178,88,785,28
638.5896,39,-84,-311,189,-179,87,785,27
638.5901,39,-84,-311,190,-179,87,784,27
638.5906,39,-84,-311,190,-178,87,784,27
638.5911,39,-84,-312,190,-178,87,784,26
638.5916,39,-84,-312,190,-179,87,784,26
638.5921,39,-85,-311,190,-179,87,783,27
638.5926,39,-84,-312,190,-178,87,783,26
638.5931,39,-84,-312,190,-178,87,784,26
638.5936,39,-84,-312,190,-179,87,785,27
638.5941,39,-85,-313,191,-178,87,786,27
638.5946,39,-84,-313,191,-178,87,787,27
638.5951,39,-84,-314,191,-179,87,787,27
638.5957,39,-84,-314,191,-179,87,787,27
638.5962,38,-84,-313,190,-179,87,787,27
638.5967,39,-84,-313,190,-179,87,786,27
638.5972,38,-84,-313,190,-178,87,786,27
638.5977,38,-84,-313,190,-178,87,786,27
638.5982,37,-84,-314,190,-179,87,786,27
638.5987,38,-84,-314,190,-179,87,785,27
638.5992,38,-84,-314,190,-179,88,785,28
638.5997,39,-85,-313,190,-179,88,786,27
638.6002,39,-85,-311,190,-178,87,786,27
638.6007,39,-85,-310,189,-178,88,785,28
638.6012,40,-85,-311,190,-178,88,785,27
638.6017,40,-85,-311,189,-178,87,785,28
638.6022,40,-85,-311,190,-178,87,785,28
638.6027,40,-86,-312,190,-178,87,785,27
638.6032,39,-85,-312,190,-178,87,785,27
638.6037,39,-85,-312,190,-178,87,786,27
638.6042,39,-85,-313,190,-179,87,786,27
638.6047,40,-85,-313,190,-179,87,786,27
638.6052,39,-85,-313,191,-179,87,785,27
638.6057,39,-85,-313,191,-179,87,785,27
638.6062,39,-85,-314,191,-178,88,785,28
638.6067,39,-85,-314,191,-179,88,785,28
638.6072,39,-85,-314,191,-179,88,785,28
638.6077,39,-85,-314,191,-178,88,785,28
638.6082,38,-85,-314,192,-178,88,785,28
638.6087,39,-85,-314,192,-178,87,784,27
638.6092,39,-85,-314,192,-179,87,784,27
638.6097,39,-84,-313,190,-178,87,784,26
638.6102,39,-85,-311,188,-178,88,784,27
638.6107,39,-85,-309,187,-178,87,784,27
638.6112,39,-85,-310,187,-177,87,784,26
638.6117,40,-85,-310,188,-178,87,784,26
638.6122,39,-86,-310,189,-178,87,785,27
638.6127,39,-86,-311,190,-178,87,785,26
638.6132,40,-86,-311,190,-179,87,786,27
638.6137,39,-86,-312,191,-179,86,786,27
638.6142,39,-86,-312,190,-178,87,786,27
638.6147,39,-86,-313,190,-179,87,786,27
638.6152,39,-85,-313,190,-179,87,786,27
638.6157,39,-85,-313,190,-179,87,786,27
638.6162,38,-84,-313,190,-179,87,786,27
638.6167,38,-83,-312,190,-179,88,786,27
638.6172,38,-84,-312,190,-179,88,786,27
638.6177,38,-84,-312,191,-179,88,786,27
638.6182,38,-84,-312,191,-179,87,785,27
638.6187,39,-84,-312,191,-179,88,786,27
638.6192,39,-84,-312,191,-179,87,786,27
638.6197,40,-84,-312,191,-178,88,786,27
638.6202,39,-85,-312,190,-179,87,785,26
638.6207,40,-85,-313,191,-179,87,786,26
638.6212,40,-85,-313,190,-179,87,786,26
638.6217,39,-85,-313,190,-179,87,786,26
638.6222,39,-85,-313,190,-179,87,786,26
638.6227,39,-86,-313,190,-179,87,786,26
638.6232,39,-85,-314,191,-179,87,785,26
638.6237,39,-86,-314,191,-179,87,786,26
638.6242,39,-85,-314,191,-178,87,786,27
638.6247,39,-85,-313,190,-178,87,786,26
638.6252,39,-84,-311,189,-177,87,785,26
638.6257,39,-84,-310,188,-178,87,785,26
638.6262,39,-84,-310,188,-177,88,785,27
638.6267,39,-84,-310,189,-177,88,785,26
638.6272,39,-84,-311,189,-178,88,785,27
638.6277,39,-84,-311,189,-178,87,785,27
638.6282,39,-84,-312,189,-178,88,785,27
638.6287,39,-85,-312,189,-178,88,785,27
638.6292,39,-85,-311,189,-178,87,786,27
638.6297,39,-84,-311,189,-178,88,785,28
638.6302,39,-85,-312,189,-178,88,786,28
638.6307,39,-85,-312,190,-179,88,786,28
638.6312,39,-86,-312,191,-178,87,786,28
638.6317,39,-85,-312,191,-178,87,786,27
638.6322,39,-86,-312,190,-178,87,785,27
638.6327,39,-86,-312,191,-178,87,785,27
638.6332,39,-85,-312,190,-178,87,785,27
638.6337,39,-85,-312,191,-178,87,786,27
638.6342,39,-85,-312,190,-178,87,785,27
638.6347,38,-84,-312,190,-179,88,786,28
638.6352,38,-84,-312,190,-179,88,785,27
638.6357,39,-84,-312,190,-178,88,785,27
638.63617,38,-84,-313,191,-178,87,785,27
638.6367,39,-85,-313,190,-178,87,785,27
638.6372,39,-85,-312,190,-179,87,785,27
638.6377,39,-85,-312,190,-178,87,785,27
638.6382,39,-85,-312,190,-178,87,785,27
638.6387,39,-85,-312,190,-178,87,785,27
638.6392,39,-85,-313,190,-178,87,785,27
638.6397,39,-85,-312,190,-178,88,785,27
638.6402,39,-84,-312,190,-178,88,785,28
638.6408,39,-84,-312,191,-178,88,785,27
638.6413,39,-84,-312,190,-178,88,785,28
638.6418,39,-84,-312,190,-178,88,785,28
638.6423,39,-85,-312,191,-179,88,786,28
638.6428,39,-85,-312,190,-178,88,786,28
638.6433,39,-85,-311,190,-178,87,785,27
638.6438,39,-85,-312,190,-178,88,785,27
638.6443,40,-85,-312,190,-178,87,785,27
638.6448,39,-85,-312,190,-178,87,786,27
638.6453,40,-85,-312,190,-178,88,786,27
638.6458,39,-85,-312,190,-178,87,786,27
638.6463,39,-84,-312,190,-178,88,785,27
638.6468,39,-84,-312,190,-178,88,785,27
638.6473,39,-85,-312,191,-178,87,785,27
638.6478,39,-85,-312,191,-178,87,785,27
638.6483,39,-85,-313,191,-178,87,785,27
638.6488,39,-85,-313,191,-178,87,785,27
638.6493,39,-85,-313,191,-178,87,786,27
638.6498,39,-84,-312,191,-178,87,786,27
638.6503,39,-84,-312,191,-179,87,786,27
638.6508,39,-84,-313,191,-178,87,785,27
638.6513,39,-85,-313,191,-178,88,785,27
638.6518,39,-85,-313,192,-178,87,785,27
638.6523,39,-85,-313,191,-178,88,785,27
638.6528,39,-84,-313,191,-178,87,784,27
638.6533,40,-85,-312,190,-178,87,785,27
638.6538,39,-85,-311,190,-178,87,785,26
638.6543,39,-85,-312,190,-178,87,785,26
638.6548,39,-85,-312,191,-179,87,785,27
638.6553,39,-85,-313,191,-178,87,785,26
638.6558,39,-85,-312,190,-178,87,785,26
638.6563,39,-84,-311,189,-179,87,786,26
638.6568,39,-84,-310,189,-178,88,786,26
638.6573,39,-84,-311,189,-178,88,786,27
638.6578,38,-85,-311,189,-178,88,785,28
638.6583,38,-85,-312,190,-178,88,785,28
638.6588,39,-85,-312,190,-178,88,785,28
638.6593,39,-85,-312,191,-178,88,785,28
638.6598,39,-85,-312,191,-178,88,785,27
638.6603,39,-85,-312,191,-178,88,785,27
638.6608,40,-86,-313,191,-178,88,785,27
638.6613,39,-86,-313,191,-178,88,785,27
638.6618,39,-87,-313,191,-178,88,785,28
638.6623,40,-86,-313,192,-178,87,785,27
638.6628,40,-87,-313,191,-179,88,786,28
638.6633,39,-86,-313,191,-178,88,785,28
638.6638,39,-86,-313,191,-179,88,786,28
638.6643,39,-85,-312,190,-178,88,786,28
638.6648,38,-85,-311,190,-178,88,786,29
638.6653,38,-85,-311,190,-178,88,786,29
638.6658,39,-85,-312,190,-178,88,786,29
638.6663,38,-84,-312,191,-178,88,786,29
638.6668,38,-84,-312,191,-178,88,786,29
638.6673,38,-84,-312,190,-179,88,786,29
638.6678,39,-85,-312,191,-178,88,786,28
638.6683,39,-86,-313,191,-179,87,786,27
638.6688,39,-86,-312,191,-179,87,786,27
638.6693,39,-86,-312,191,-178,87,785,27
638.6698,39,-86,-312,190,-178,88,786,26
638.6703,39,-86,-311,190,-178,87,785,27
638.6708,39,-85,-312,191,-178,88,785,27
638.6713,39,-85,-312,190,-178,88,786,27
638.6718,38,-84,-312,191,-178,87,786,27
638.6723,38,-84,-312,190,-178,88,785,26
638.6728,39,-84,-311,189,-178,87,785,26
638.6733,40,-85,-310,188,-178,87,786,26
638.6738,40,-85,-310,188,-177,87,785,26
638.6743,40,-85,-311,189,-177,87,785,26
638.6748,41,-85,-311,189,-178,87,785,26
638.6753,40,-85,-311,190,-178,87,785,26
638.6758,40,-85,-312,190,-178,87,785,26
638.6763,39,-85,-312,190,-178,87,785,27
638.6768,39,-85,-312,191,-178,87,785,26
638.6773,39,-84,-312,190,-178,87,785,27
638.6778,39,-84,-312,191,-178,87,784,27
638.6783,39,-84,-313,191,-178,87,785,27
638.6788,39,-84,-313,191,-179,87,785,27
638.6793,39,-84,-313,190,-178,88,786,27
638.6798,39,-84,-312,190,-178,88,785,27
638.6803,39,-84,-312,190,-178,88,786,28
638.6808,39,-84,-312,189,-178,89,786,27
638.6813,39,-84,-312,190,-178,89,786,27
638.6818,38,-84,-312,190,-178,88,787,28
638.6823,39,-84,-311,190,-178,88,786,27
638.6828,39,-84,-311,189,-178,88,786,27
638.6833,39,-85,-310,188,-177,87,785,27
638.6838,39,-85,-310,189,-178,88,786,27
638.6843,39,-85,-311,190,-178,88,786,27
638.6848,40,-85,-312,191,-178,88,786,27
638.6853,39,-85,-312,192,-178,87,786,27
638.6859,39,-85,-313,191,-179,87,786,27
638.6864,40,-86,-312,191,-179,87,785,27
638.6869,40,-86,-312,190,-179,87,786,27
638.6874,40,-86,-312,190,-178,87,786,27
638.6879,39,-85,-313,190,-178,88,785,27
638.6884,39,-85,-312,191,-179,87,785,27
638.6889,39,-85,-312,191,-178,87,785,27
638.6894,39,-85,-312,191,-178,87,786,28
638.6899,39,-84,-312,191,-179,88,786,27
638.6904,39,-85,-313,191,-178,88,786,27
638.6909,39,-85,-313,192,-178,88,787,28
638.6914,39,-85,-312,192,-179,88,787,27
638.6919,39,-85,-312,191,-178,88,787,27
638.6924,39,-85,-312,190,-178,87,786,27
638.6929,39,-85,-312,190,-178,88,785,27
638.6934,39,-85,-312,190,-178,88,785,27
638.6939,39,-85,-312,190,-178,88,785,27
638.6944,39,-85,-312,191,-178,87,785,27
638.6949,38,-85,-313,191,-178,88,785,27
638.6954,39,-85,-313,192,-179,88,786,28
638.6959,39,-85,-314,192,-178,88,786,27
638.6964,39,-85,-313,191,-178,88,786,27
638.6969,39,-85,-313,191,-178,88,786,27
638.6974,39,-85,-313,191,-178,88,786,27
638.6979,39,-85,-313,191,-178,87,786,28
638.6984,39,-85,-312,190,-178,88,786,27
638.6989,40,-86,-311,191,-178,88,786,28
638.6994,40,-86,-311,190,-177,88,786,27
638.6999,40,-86,-310,189,-178,88,785,27
638.7004,40,-87,-310,188,-177,88,785,27
638.7009,40,-87,-310,188,-178,88,785,28
638.7014,40,-86,-311,189,-178,88,785,28
638.7019,39,-85,-311,189,-179,88,786,28
638.7024,38,-85,-311,189,-178,88,785,28
638.7029,38,-84,-312,190,-178,88,786,28
638.7034,38,-84,-311,190,-178,88,785,27
638.7039,39,-84,-312,190,-178,88,786,27
638.7044,39,-84,-312,191,-178,88,786,27
638.7049,40,-85,-312,191,-178,88,786,27
638.7054,39,-85,-312,191,-178,88,786,27
638.7059,39,-85,-312,190,-178,88,785,27
638.7064,39,-84,-311,190,-178,88,785,27
638.7069,39,-85,-311,191,-178,88,785,28
638.7074,39,-85,-312,191,-178,88,785,27
638.7079,39,-85,-312,191,-178,88,785,28
638.7084,39,-85,-312,191,-178,88,785,27
638.7089,39,-85,-312,191,-178,88,786,27
638.7094,39,-85,-312,191,-178,88,786,27
638.7099,39,-85,-312,191,-178,88,786,27
638.7104,39,-85,-312,191,-178,88,786,27
638.7109,39,-85,-312,191,-178,88,786,27
638.7114,39,-85,-313,191,-178,88,785,27
638.7119,39,-85,-313,191,-178,87,785,26
638.7124,39,-85,-313,191,-178,88,786,27
638.7129,39,-85,-313,191,-178,88,786,27
638.7134,39,-84,-313,191,-178,88,785,27
638.7139,39,-85,-313,191,-178,88,785,27
638.7144,39,-85,-314,192,-178,87,786,27
638.7149,39,-85,-314,192,-178,87,786,26
638.7154,39,-85,-314,192,-178,87,786,27
638.7159,39,-85,-313,191,-178,87,786,27
638.7164,39,-85,-311,190,-178,87,785,27
638.7169,39,-85,-311,190,-178,87,785,27
638.7174,39,-85,-311,190,-178,88,785,27
638.7179,38,-85,-311,190,-177,88,785,28
638.7184,38,-85,-309,189,-177,88,785,28
638.7189,38,-84,-309,188,-178,88,784,27
638.7194,38,-84,-309,189,-177,88,784,27
638.7199,39,-84,-310,190,-177,88,784,27
638.7204,39,-85,-310,191,-177,88,785,27
638.7209,38,-85,-311,192,-178,88,785,27
638.7214,39,-85,-312,192,-178,88,786,26
638.7219,39,-85,-312,192,-178,88,787,26
638.7224,39,-85,-312,191,-178,87,787,27
638.7229,39,-85,-313,192,-178,88,787,27
638.7234,39,-85,-313,192,-178,88,787,27
638.7239,39,-85,-313,192,-179,88,787,28
638.7244,40,-84,-313,191,-179,89,787,28
638.7249,39,-84,-313,191,-179,88,786,28
638.7254,39,-84,-313,191,-178,89,786,28
638.7259,39,-84,-312,190,-178,88,786,28
638.7264,39,-84,-311,189,-178,88,785,28
638.7269,38,-84,-311,188,-177,88,785,28
638.7274,38,-83,-310,188,-177,88,785,27
638.7279,37,-83,-310,189,-177,88,785,28
638.7284,37,-83,-310,189,-178,88,786,28
638.7289,38,-84,-311,190,-178,88,786,27
638.7294,38,-84,-312,191,-178,88,786,27
638.7299,39,-84,-312,192,-178,88,786,28
638.7304,39,-84,-312,191,-178,88,786,27
638.731,39,-85,-312,191,-178,88,786,28
638.7315,39,-86,-312,192,-178,88,786,28
638.732,40,-86,-312,192,-179,88,786,27
638.7325,40,-86,-312,192,-178,88,786,27
638.733,40,-86,-312,191,-178,88,786,27
638.7335,40,-86,-311,191,-178,87,786,27
638.734,39,-85,-311,190,-178,87,786,27
638.7345,39,-85,-312,190,-178,88,786,27
638.735,39,-85,-312,190,-178,88,786,28
638.7355,39,-85,-311,190,-178,88,786,28
638.736,39,-85,-311,190,-178,88,785,27
638.7365,39,-86,-311,191,-178,88,785,27
638.737,40,-86,-312,191,-178,88,785,27
638.7375,39,-85,-312,192,-178,88,785,27
638.738,39,-85,-312,192,-178,88,785,27
638.7385,39,-86,-312,191,-178,88,785,27
638.739,40,-86,-312,192,-177,88,785,27
638.7395,39,-86,-312,191,-178,88,785,27
638.74,39,-85,-312,191,-178,88,786,27
638.7405,40,-85,-312,191,-178,88,786,27
638.741,39,-85,-312,191,-178,88,786,27
638.7415,40,-86,-312,191,-178,88,786,27
638.742,39,-86,-312,190,-178,87,786,27
638.7425,39,-86,-312,189,-177,88,786,28
638.743,39,-85,-312,189,-178,88,786,28
638.7435,39,-85,-312,189,-178,88,786,28
638.744,40,-84,-312,190,-178,88,786,28
638.7445,39,-85,-312,190,-178,89,785,29
638.745,39,-85,-312,190,-178,89,785,28
638.7455,39,-85,-312,190,-177,89,784,28
638.746,39,-85,-311,189,-178,88,784,28
638.7465,39,-85,-311,190,-178,88,784,28
638.747,39,-85,-311,190,-177,88,784,28
638.7475,39,-85,-311,191,-178,88,784,28
638.748,39,-85,-312,191,-178,88,784,27
638.7485,39,-85,-312,191,-177,88,785,27
638.749,39,-85,-312,191,-177,88,785,27
638.7495,39,-85,-312,191,-178,88,786,27
638.75,39,-85,-312,191,-178,88,786,27
638.7505,39,-85,-312,191,-178,88,787,27
638.751,40,-85,-311,191,-178,88,786,27
638.7515,39,-85,-312,191,-178,88,786,27
638.752,39,-85,-312,191,-178,88,786,27
638.7525,39,-85,-311,191,-178,88,786,27
638.753,39,-85,-311,189,-178,88,786,27
638.7535,39,-86,-311,189,-178,88,786,27
638.754,40,-86,-311,189,-178,88,786,27
638.7545,40,-86,-312,190,-178,88,787,27
638.755,40,-86,-312,190,-178,88,787,27
638.7555,40,-86,-312,191,-178,88,787,27
638.756,40,-86,-312,191,-178,88,787,27
638.7565,39,-85,-312,191,-178,88,787,27
638.757,39,-85,-312,191,-178,89,786,28
638.7575,38,-84,-313,191,-178,89,786,27
638.758,38,-84,-313,191,-179,88,786,27
638.7585,39,-85,-313,191,-177,87,787,27
638.759,39,-84,-313,192,-178,88,786,27
638.7595,40,-84,-312,192,-178,88,787,27
638.76,39,-84,-312,191,-178,89,786,28
638.7605,39,-84,-312,192,-178,88,786,28
638.761,39,-84,-312,192,-178,88,786,27
638.7615,38,-84,-312,191,-178,89,786,28
638.762,39,-84,-312,191,-178,89,786,27
638.7625,39,-84,-312,191,-178,88,786,28
638.763,39,-84,-312,191,-178,88,786,28
638.7635,38,-85,-311,190,-178,88,786,27
638.764,39,-84,-310,190,-178,88,787,27
638.7645,39,-85,-310,190,-178,88,787,27
638.765,39,-85,-311,190,-178,88,787,27
638.7655,38,-85,-312,191,-179,88,787,27
638.766,39,-85,-311,191,-178,88,786,27
638.7665,39,-85,-312,190,-178,88,786,27
638.767,39,-85,-312,190,-178,88,786,28
638.7675,39,-86,-312,190,-178,88,785,27
638.768,39,-85,-312,190,-178,88,785,27
638.7685,39,-85,-312,190,-178,88,786,28
638.769,39,-86,-312,189,-178,88,785,28
638.7695,39,-86,-312,190,-178,88,786,27
638.77,40,-86,-312,191,-178,88,785,28
638.7705,39,-85,-312,191,-177,88,785,28
638.771,39,-85,-312,191,-178,88,785,27
638.7715,39,-85,-313,191,-178,88,786,28
638.772,39,-85,-312,192,-178,88,785,27
638.7725,39,-85,-312,192,-178,88,786,27
638.773,39,-85,-312,192,-178,88,786,27
638.7735,39,-85,-312,192,-178,88,786,27
638.774,40,-85,-311,191,-178,88,786,27
638.7745,39,-85,-311,190,-178,88,787,27
638.775,39,-85,-310,190,-178,88,786,27
638.7755,38,-84,-311,190,-178,88,786,27
638.7761,38,-84,-311,191,-178,88,786,28
638.7766,38,-84,-311,190,-178,88,786,28
638.7771,38,-84,-312,190,-178,88,786,28
638.7776,38,-83,-312,190,-178,88,786,28
638.7781,38,-84,-312,190,-178,88,785,28
638.7786,39,-84,-312,191,-177,88,785,28
638.7791,39,-84,-312,191,-178,88,785,27
638.7796,40,-85,-312,191,-177,88,785,27
638.7801,40,-86,-312,191,-177,88,786,28
638.7806,40,-85,-311,190,-178,88,785,28
638.7811,40,-85,-311,190,-178,88,785,27
638.7816,40,-85,-311,190,-177,89,785,28
638.7821,39,-85,-312,191,-178,88,785,28
638.7826,40,-85,-312,191,-179,88,785,28
638.7831,39,-85,-312,192,-178,88,786,28
638.7836,39,-85,-312,192,-179,89,787,28
638.7841,39,-85,-312,191,-178,88,787,27
638.7846,40,-86,-311,191,-178,88,787,28
638.7851,39,-86,-311,190,-178,88,786,27
638.7856,39,-86,-310,190,-178,88,786,27
638.7861,40,-86,-311,190,-178,88,786,27
638.7866,39,-85,-310,190,-178,88,786,27
638.7871,39,-85,-311,190,-178,88,786,27
638.7876,38,-85,-312,191,-178,89,785,28
638.7881,38,-85,-312,191,-178,89,785,28
638.7886,38,-84,-312,191,-178,88,786,29
638.7891,38,-83,-312,191,-178,89,786,29
638.7896,38,-83,-313,191,-178,89,787,28
638.7901,38,-84,-313,192,-178,88,787,28
638.7906,39,-85,-313,192,-179,88,786,27
638.7911,40,-86,-312,192,-178,88,786,27
638.7916,40,-86,-312,192,-178,88,785,27
638.7921,40,-87,-313,192,-178,88,785,27
638.7926,40,-86,-313,192,-178,88,785,28
638.7931,40,-86,-313,192,-179,88,785,28
638.7936,39,-85,-313,192,-178,89,785,28
638.7941,39,-85,-312,191,-178,89,785,28
638.7946,39,-85,-310,190,-178,89,786,28
638.7951,38,-84,-309,188,-177,89,785,28
638.7956,39,-84,-309,189,-177,89,785,28
638.7961,39,-84,-310,190,-177,89,785,28
638.7966,39,-85,-311,191,-178,88,786,27
638.7971,39,-85,-312,191,-178,88,787,28
638.7976,38,-85,-313,192,-178,88,787,28
638.7981,39,-85,-313,192,-179,88,787,28
638.7986,39,-86,-314,192,-178,88,786,28
638.7991,39,-85,-314,192,-178,88,786,27
638.7996,39,-85,-313,192,-178,88,786,27
638.8001,39,-85,-312,191,-178,88,785,27
638.8006,39,-85,-311,190,-178,88,785,27
638.8011,38,-85,-310,189,-178,89,786,27
638.8016,38,-85,-308,188,-178,89,785,27
638.8021,38,-84,-308,189,-178,89,785,27
638.8026,38,-83,-309,189,-178,89,785,27
638.8031,38,-83,-310,191,-178,89,786,28
638.8036,38,-84,-311,191,-178,89,787,27
638.8041,39,-84,-311,192,-178,89,786,29
638.8046,39,-84,-312,192,-178,89,787,28
638.8051,39,-84,-312,192,-179,89,787,28
638.8056,40,-85,-313,192,-179,89,787,28
638.8061,40,-85,-313,193,-178,89,787,28
638.8066,40,-85,-313,193,-179,89,787,28
638.8071,39,-85,-313,192,-178,89,786,29
638.8076,38,-85,-313,191,-178,89,786,29
638.8081,38,-85,-313,191,-178,88,787,28
638.8086,39,-85,-312,191,-179,89,787,28
638.8091,39,-85,-312,191,-179,88,787,27
638.8096,39,-85,-312,191,-178,88,786,27
638.8101,39,-86,-312,191,-178,88,787,28
638.8106,40,-87,-311,191,-178,88,787,27
638.8111,41,-88,-310,190,-178,88,786,28
638.8116,41,-89,-309,189,-177,88,785,28
638.8121,41,-89,-309,189,-178,88,785,28
638.8126,41,-90,-310,189,-178,88,785,28
638.8131,40,-89,-311,190,-178,88,785,28
638.8136,41,-89,-312,191,-178,88,786,28
638.8141,39,-88,-312,191,-177,88,785,28
638.8146,38,-87,-312,190,-177,88,785,28
638.8151,37,-84,-313,190,-178,89,785,28
638.8156,37,-84,-312,191,-178,89,785,28
638.8161,37,-84,-312,191,-177,88,786,28
638.8166,38,-85,-312,191,-178,88,786,27
638.8171,39,-85,-312,191,-177,88,786,27
638.8176,38,-84,-312,191,-178,88,786,27
638.8181,38,-83,-311,191,-178,88,786,27
638.8186,38,-83,-311,191,-178,88,786,27
638.8191,38,-83,-311,190,-178,88,786,27
638.8196,38,-84,-311,191,-178,88,787,27
638.8201,38,-84,-311,191,-178,88,786,28
638.8206,39,-84,-312,191,-178,88,786,27
638.8212,39,-85,-312,191,-178,88,786,27
638.8217,39,-85,-312,190,-177,88,786,27
638.8222,39,-85,-312,189,-177,88,785,26
638.8227,39,-84,-312,190,-178,88,786,26
638.8232,39,-84,-312,190,-178,89,786,27
638.82367,38,-83,-312,191,-178,89,786,27
638.8242,37,-82,-312,191,-178,89,787,29
638.8247,37,-82,-312,191,-178,89,786,29
638.8252,37,-82,-311,191,-178,89,786,28
638.8257,38,-83,-310,192,-178,89,786,28
638.8262,39,-83,-311,192,-179,89,786,28
638.8267,40,-84,-312,192,-178,89,786,28
638.8272,41,-86,-312,192,-179,88,786,28
638.8277,41,-86,-312,192,-178,88,786,28
638.8282,41,-86,-313,191,-178,88,785,28
638.8287,40,-86,-312,191,-178,88,786,28
638.8292,40,-85,-313,191,-178,88,785,28
638.8297,39,-85,-312,191,-178,89,785,27
638.8302,39,-84,-312,191,-178,88,785,28
638.8307,38,-83,-312,191,-178,89,785,27
638.8312,37,-83,-312,191,-178,89,785,28
638.8317,37,-82,-312,191,-178,89,786,28
638.8322,37,-82,-312,191,-178,89,786,28
638.8327,37,-83,-312,191,-178,89,787,28
638.8332,38,-83,-312,191,-178,89,786,28
638.8337,38,-83,-312,191,-178,89,786,27
638.8342,40,-84,-311,191,-178,89,785,28
638.8347,41,-86,-312,191,-178,89,785,28
638.8352,43,-88,-311,191,-179,89,785,28
638.8357,42,-88,-311,191,-178,88,786,28
638.8362,42,-88,-311,191,-179,89,786,28
638.8367,41,-88,-311,190,-179,89,786,28
638.8372,40,-87,-311,190,-179,89,787,28
638.8377,40,-87,-312,191,-178,89,786,29
638.8382,40,-87,-311,191,-178,89,786,28
638.8387,40,-86,-312,191,-178,89,786,28
638.8392,39,-85,-312,192,-178,88,785,28
638.8397,38,-83,-312,192,-178,88,786,28
638.8402,38,-83,-312,191,-178,88,785,28
638.8407,38,-84,-312,192,-177,88,785,28
638.8412,39,-84,-312,192,-177,88,784,28
638.8417,39,-84,-312,191,-177,89,783,28
638.8422,40,-84,-311,191,-177,89,782,28
638.8427,40,-85,-310,190,-177,89,782,29
638.8432,40,-86,-311,190,-177,90,782,29
638.8437,39,-85,-311,190,-177,90,782,29
638.8442,39,-86,-311,191,-177,90,783,29
638.8447,39,-86,-311,190,-177,89,784,29
638.8452,40,-86,-311,190,-177,90,785,29
638.8457,40,-87,-312,190,-178,89,787,29
638.8462,40,-87,-312,191,-178,89,788,28
638.8467,40,-87,-313,192,-178,89,788,29
638.8472,40,-86,-314,193,-179,89,788,28
638.8477,39,-85,-314,193,-178,88,788,28
638.8482,39,-85,-314,193,-179,89,788,28
638.8487,39,-85,-313,193,-179,88,789,28
638.8492,39,-84,-312,193,-179,89,789,28
638.8497,39,-84,-312,193,-179,88,788,28
638.8502,40,-84,-312,193,-179,89,788,28
638.8507,40,-85,-313,193,-179,88,788,28
638.8512,40,-85,-312,193,-178,89,787,28
638.8517,39,-85,-312,192,-178,89,787,28
638.8522,39,-85,-311,190,-177,89,787,28
638.8527,39,-85,-309,189,-178,89,787,28
638.8532,39,-84,-309,188,-177,89,787,27
638.8537,38,-84,-309,189,-178,89,787,27
638.8542,39,-85,-309,189,-178,89,787,27
638.8547,38,-86,-310,191,-178,89,787,27
638.8552,39,-86,-311,191,-178,89,787,27
638.8557,39,-85,-311,191,-178,89,787,27
638.8562,39,-85,-311,191,-179,89,787,27
638.8567,39,-84,-311,191,-178,88,787,27
638.8572,37,-83,-311,191,-178,89,786,28
638.8577,37,-83,-312,190,-178,89,786,28
638.8582,38,-84,-311,190,-179,89,786,29
638.8587,38,-84,-311,190,-178,89,786,29
638.8592,38,-83,-311,190,-178,89,786,29
638.8597,38,-83,-310,189,-178,89,786,28
638.8602,38,-84,-310,189,-177,89,786,28
638.8607,38,-84,-310,189,-178,89,786,28
638.8612,38,-83,-311,189,-177,89,786,28
638.8617,38,-83,-311,191,-178,89,786,28
638.8622,39,-84,-312,191,-178,89,786,28
638.8627,40,-84,-312,191,-178,89,786,28
638.8632,40,-85,-312,191,-178,89,786,28
638.8637,41,-87,-312,192,-179,89,786,28
638.8642,42,-87,-312,192,-178,89,786,28
638.8647,41,-87,-312,192,-178,89,786,28
638.8652,41,-87,-312,192,-178,89,785,28
638.8657,40,-86,-311,191,-178,88,785,28
638.8663,40,-85,-311,190,-177,88,785,28
638.8668,40,-85,-310,190,-178,88,785,28
638.8673,39,-85,-310,190,-178,88,786,28
638.8678,38,-85,-311,191,-178,89,786,28
638.8683,39,-85,-312,192,-178,89,786,28
638.8688,39,-85,-312,192,-178,89,786,28
638.8693,40,-85,-312,193,-178,89,786,28
638.8698,40,-85,-312,192,-178,89,786,28
638.8703,40,-85,-311,191,-178,89,786,28
638.8708,40,-85,-312,191,-178,89,786,28
638.8713,39,-85,-313,191,-178,89,786,28
638.8718,39,-85,-312,191,-178,89,786,28
638.8723,39,-85,-313,192,-178,89,786,28
638.8728,39,-85,-313,192,-178,89,786,28
638.8733,39,-85,-313,192,-178,89,786,28
638.8738,39,-84,-313,192,-178,89,787,28
638.8743,39,-85,-313,192,-178,89,786,28
638.8748,38,-85,-313,191,-178,89,786,28
638.8753,39,-85,-312,191,-178,89,785,28
638.8758,39,-85,-311,190,-178,89,785,28
638.8763,38,-85,-310,189,-178,89,785,28
638.8768,38,-85,-310,190,-178,89,786,28
638.8773,38,-84,-311,191,-178,89,786,28
638.8778,37,-84,-312,193,-179,89,786,28
638.8783,37,-83,-313,193,-179,89,786,28
638.8788,38,-84,-313,194,-179,89,787,28
638.8793,39,-85,-313,193,-179,89,787,28
638.8798,40,-86,-313,194,-179,89,787,28
638.8803,40,-85,-313,194,-179,88,787,28
638.8808,40,-85,-313,193,-179,88,787,28
638.8813,40,-85,-313,193,-179,89,787,28
638.8818,40,-85,-312,192,-179,89,787,28
638.8823,39,-85,-310,190,-178,89,787,28
638.8828,39,-85,-310,190,-178,89,787,28
638.8833,39,-85,-310,190,-178,89,786,28
638.8838,39,-85,-310,190,-178,89,786,28
638.8843,39,-86,-311,190,-177,89,786,28
638.8848,40,-86,-311,189,-178,89,786,28
638.8853,39,-86,-310,190,-177,89,786,29
638.8858,40,-86,-310,189,-177,89,786,28
638.8863,40,-87,-309,189,-177,89,786,29
638.8868,40,-87,-310,189,-178,89,786,28
638.8873,39,-86,-310,190,-178,89,786,28
638.8878,39,-85,-310,190,-178,89,786,28
638.8883,38,-84,-310,190,-178,89,786,27
638.8888,38,-84,-310,190,-178,89,786,27
638.8893,38,-84,-310,190,-178,89,786,27
638.8898,38,-84,-310,190,-178,89,786,27
638.8903,39,-85,-310,190,-178,89,787,28
638.8908,39,-85,-310,190,-178,88,787,28
638.8913,39,-85,-310,190,-178,88,787,27
638.8918,39,-85,-310,190,-178,89,787,27
638.8923,39,-85,-311,191,-177,88,786,28
638.8928,39,-85,-311,192,-179,88,786,27
638.8933,39,-85,-312,192,-178,89,786,27
638.8938,39,-85,-312,193,-178,88,787,27
638.8943,39,-85,-313,193,-178,89,786,27
638.8948,38,-85,-313,193,-179,89,786,27
638.8953,39,-85,-313,194,-178,89,786,27
638.8958,39,-86,-313,194,-179,89,786,28
638.8963,40,-86,-313,193,-179,89,786,28
638.8968,40,-86,-314,193,-179,89,786,28
638.8973,40,-87,-313,193,-178,89,785,28
638.8978,40,-86,-314,192,-178,89,785,28
638.8983,40,-85,-313,192,-178,89,785,28
638.8988,39,-85,-313,191,-178,89,785,28
638.8993,39,-85,-312,191,-178,89,785,29
638.8998,40,-86,-310,191,-178,89,785,28
638.9003,40,-87,-310,190,-178,89,786,29
638.9008,40,-87,-309,190,-178,89,786,29
638.9013,40,-87,-309,190,-177,89,787,28
638.9018,41,-87,-310,191,-178,89,787,28
638.9023,40,-87,-311,191,-178,89,788,28
638.9028,40,-86,-311,192,-178,89,788,28
638.9033,39,-85,-312,192,-178,89,788,28
638.9038,39,-85,-312,192,-178,89,787,28
638.9043,39,-84,-312,192,-178,88,786,27
638.9048,39,-84,-312,191,-178,89,786,28
638.9053,40,-85,-311,191,-179,89,786,28
638.9058,40,-85,-311,191,-179,89,786,28
638.9063,40,-84,-311,191,-178,88,787,28
638.9068,40,-84,-311,191,-178,89,786,28
638.9073,39,-84,-311,191,-177,89,785,29
638.9078,39,-84,-310,190,-177,89,785,29
638.9083,39,-84,-310,190,-177,89,785,28
638.9088,39,-84,-310,190,-178,89,786,29
638.9093,39,-84,-310,191,-178,89,786,28
638.9098,39,-84,-311,191,-178,89,787,28
638.9103,38,-84,-311,191,-179,89,787,28
638.9108,39,-84,-311,191,-178,89,787,28
638.9114,39,-84,-311,191,-178,89,786,28
638.9119,39,-85,-312,192,-178,90,786,28
638.9124,39,-85,-312,192,-177,89,785,28
638.9129,39,-86,-312,192,-178,89,785,28
638.9134,39,-86,-313,192,-178,89,784,28
638.9139,40,-86,-312,192,-178,88,784,27
638.9144,40,-86,-313,192,-178,88,785,28
638.9149,40,-85,-312,193,-178,88,785,28
638.9154,39,-85,-312,193,-178,89,785,28
638.9159,40,-86,-312,193,-178,89,785,28
638.9164,39,-86,-312,193,-178,89,786,28
638.9169,40,-86,-312,192,-178,89,786,28
638.9174,40,-86,-313,192,-178,89,787,29
638.9179,39,-86,-313,192,-178,89,788,28
638.9184,39,-87,-312,192,-178,89,788,28
638.9189,39,-86,-311,191,-179,90,787,29
638.9194,39,-86,-310,191,-178,90,786,28
638.9199,39,-86,-311,191,-178,90,786,29
638.9204,39,-86,-311,191,-179,90,786,29
638.9209,39,-85,-311,191,-178,90,787,29
638.9214,38,-84,-311,191,-178,90,787,29
638.9219,38,-83,-311,190,-178,90,787,29
638.9224,38,-82,-312,191,-178,90,787,29
638.9229,39,-83,-312,191,-178,89,788,28
638.9234,39,-84,-312,191,-179,89,788,28
638.9239,40,-84,-312,191,-179,89,787,28
638.9244,40,-84,-311,191,-178,89,787,28
638.9249,40,-84,-311,190,-178,89,787,28
638.9254,39,-85,-311,191,-178,89,787,28
638.9259,41,-86,-312,192,-179,89,787,28
638.9264,40,-87,-312,192,-179,89,786,28
638.9269,41,-87,-313,192,-178,89,787,28
638.9274,40,-87,-312,192,-178,89,787,28
638.9279,39,-87,-312,191,-178,89,787,28
638.9284,38,-85,-312,191,-178,89,787,29
638.9289,37,-83,-312,191,-178,89,786,29
638.9294,37,-83,-312,191,-178,89,786,28
638.9299,37,-82,-311,191,-178,89,786,29
638.9304,37,-81,-311,191,-179,89,786,29
638.9309,37,-81,-311,190,-178,89,786,29
638.9314,37,-82,-311,191,-178,89,785,29
638.9319,38,-83,-311,191,-178,89,785,28
638.9324,39,-84,-311,191,-178,89,785,28
638.9329,39,-84,-310,191,-178,89,784,27
638.9334,39,-84,-311,191,-178,89,784,27
638.9339,38,-83,-312,191,-178,89,785,28
638.9344,38,-83,-313,192,-178,89,785,28
638.9349,38,-84,-313,192,-178,89,785,28
638.9354,39,-84,-313,192,-178,89,786,28
638.9359,40,-85,-314,192,-178,89,786,28
638.9364,40,-85,-313,192,-178,89,787,28
638.9369,40,-86,-314,192,-178,89,787,28
638.9374,40,-86,-314,192,-179,89,787,27
638.9379,41,-87,-313,192,-178,89,787,28
638.9384,41,-87,-313,192,-178,90,788,29
638.9389,40,-87,-313,192,-178,90,788,29
638.9394,41,-87,-312,191,-178,90,788,28
638.9399,40,-86,-311,190,-178,90,787,28
638.9404,40,-86,-311,191,-178,90,788,28
638.9409,39,-86,-310,191,-177,89,786,28
638.9414,40,-85,-309,191,-178,89,787,28
638.9419,40,-85,-310,192,-178,89,787,28
638.9424,39,-85,-311,192,-178,89,787,28
638.9429,39,-85,-312,193,-178,89,786,28
638.9434,40,-85,-312,193,-178,89,786,28
638.9439,40,-85,-312,192,-178,89,786,28
638.9444,40,-85,-311,191,-177,89,785,28
638.9449,41,-86,-310,191,-178,89,785,28
638.9454,40,-85,-309,191,-178,89,786,28
638.9459,40,-85,-310,191,-178,89,786,28
638.9464,40,-86,-311,191,-178,89,786,28
638.9469,40,-85,-311,192,-178,89,787,28
638.9474,39,-85,-312,192,-179,89,787,28
638.9479,40,-85,-311,191,-178,89,788,28
638.9484,40,-85,-311,190,-178,89,788,28
638.9489,40,-85,-311,190,-178,90,788,28
638.9494,40,-85,-311,190,-178,90,788,28
638.9499,39,-85,-311,190,-178,89,787,29
638.9504,39,-85,-311,190,-178,89,787,28
638.9509,39,-85,-312,190,-178,89,786,29
638.9514,39,-85,-312,191,-178,90,786,28
638.9519,39,-85,-312,191,-178,89,786,29
638.9524,40,-86,-312,191,-179,90,787,29
638.9529,40,-85,-312,192,-178,90,787,28
638.9534,40,-86,-312,192,-179,90,787,29
638.9539,40,-86,-311,192,-179,90,787,28
638.9544,40,-86,-312,192,-178,89,787,28
638.9549,40,-86,-312,193,-178,89,787,28
638.9554,40,-86,-313,193,-178,89,787,28
638.9559,40,-86,-313,193,-178,89,786,28
638.9565,40,-86,-311,193,-178,89,786,28
638.957,40,-86,-310,192,-178,89,786,28
638.9575,40,-86,-309,191,-177,89,786,28
638.958,40,-86,-310,192,-178,89,786,28
638.9585,40,-87,-311,192,-178,89,785,28
638.959,40,-86,-311,192,-177,89,784,28
638.9595,40,-86,-311,192,-178,89,785,28
638.96,39,-86,-311,190,-177,89,785,28
638.9605,40,-86,-310,190,-177,89,786,29
638.961,39,-86,-310,190,-178,89,787,29
638.9615,39,-85,-311,191,-177,89,787,29
638.962,38,-84,-311,191,-178,89,788,29
638.9625,38,-84,-311,191,-178,89,787,29
638.963,38,-84,-311,190,-178,89,787,28
638.9635,39,-85,-311,190,-178,89,786,28
638.964,39,-84,-311,190,-178,89,786,28
638.9645,39,-84,-310,190,-177,89,786,28
638.965,39,-84,-310,191,-178,89,785,28
638.9655,40,-85,-311,191,-178,89,784,28
638.966,40,-85,-311,192,-177,89,784,28
638.9665,40,-85,-311,192,-177,90,784,28
638.967,40,-85,-311,192,-178,89,785,28
638.9675,39,-85,-311,192,-178,89,785,28
638.968,39,-85,-312,192,-178,89,785,28
638.9685,39,-85,-311,192,-178,89,786,28
638.969,39,-86,-311,192,-178,89,787,28
638.9695,39,-86,-311,191,-178,89,787,28
638.97,39,-86,-311,192,-178,89,787,28
638.9705,39,-86,-311,192,-178,89,787,29
638.971,39,-86,-311,192,-178,89,787,28
638.9715,39,-85,-311,192,-178,89,787,28
638.972,39,-85,-312,192,-179,90,787,28
638.9725,39,-85,-311,192,-178,90,787,28
638.973,39,-85,-311,191,-178,90,787,28
638.9735,39,-85,-311,191,-178,90,787,28
638.974,39,-85,-311,191,-178,89,787,28
638.9745,39,-85,-311,191,-178,89,787,28
638.975,39,-85,-311,192,-178,89,787,28
638.9755,39,-85,-312,192,-178,89,788,28
638.976,39,-85,-312,192,-179,89,788,29
638.9765,39,-85,-312,192,-178,89,788,28
638.977,38,-84,-312,192,-178,90,788,29
638.9775,39,-85,-312,192,-179,89,787,30
638.978,40,-85,-312,191,-178,89,787,29
638.9785,40,-85,-312,191,-178,89,786,29
638.979,40,-85,-312,191,-178,89,786,28
638.9795,40,-86,-312,192,-178,89,786,28
638.98,40,-86,-312,191,-178,89,786,28
638.9805,40,-86,-311,191,-178,89,786,28
638.981,39,-85,-311,192,-178,90,787,28
638.9815,39,-85,-312,193,-178,89,787,28
638.982,39,-85,-312,193,-178,90,788,29
638.9825,39,-85,-313,194,-179,89,788,28
638.983,39,-85,-313,194,-178,89,788,28
638.9835,39,-85,-313,194,-179,89,788,28
638.984,39,-85,-313,193,-178,89,788,28
638.9845,40,-85,-312,193,-178,89,787,28
638.985,39,-85,-312,192,-178,89,787,28
638.9855,39,-85,-312,191,-178,89,787,28
638.986,39,-85,-311,191,-178,89,787,28
638.9865,39,-84,-311,192,-178,89,786,28
638.987,39,-84,-312,192,-178,89,787,28
638.9875,38,-84,-312,192,-178,89,787,29
638.988,38,-84,-312,192,-178,89,787,28
638.9885,39,-84,-312,193,-178,89,787,29
638.989,39,-85,-312,192,-178,89,787,29
638.9895,39,-84,-312,192,-178,90,787,29
638.99,38,-84,-312,192,-178,90,787,29
638.9905,38,-84,-312,192,-179,90,787,29
638.991,39,-84,-313,193,-178,89,787,29
638.9915,40,-85,-312,193,-179,89,787,28
638.992,40,-86,-312,192,-178,89,787,28
638.9925,40,-86,-311,191,-179,89,787,28
638.993,40,-86,-310,190,-178,89,787,28
638.9935,40,-87,-310,190,-178,89,786,28
638.994,40,-87,-310,191,-178,89,786,29
638.9945,40,-87,-311,191,-178,89,787,28
638.995,39,-87,-311,191,-178,89,787,29
638.9955,39,-86,-311,191,-178,90,787,29
638.996,39,-85,-311,191,-178,89,786,28
638.9965,38,-84,-310,192,-178,90,786,28
638.997,37,-84,-311,192,-178,89,786,29
638.9975,38,-84,-311,192,-178,89,785,28
638.998,39,-84,-312,192,-178,89,786,28
638.9985,41,-85,-312,192,-178,89,786,28
638.999,41,-86,-312,192,-178,89,786,27
638.9995,41,-86,-312,192,-178,89,787,28
639.0,41,-85,-312,193,-178,90,787,29
639.0005,41,-85,-312,192,-179,90,787,28
639.0011,40,-85,-312,192,-178,90,787,29
639.0016,40,-85,-311,191,-178,89,787,28
639.0021,40,-86,-310,190,-178,89,787,29
639.0026,40,-86,-309,189,-177,89,786,29
639.0031,40,-85,-309,188,-177,90,786,28
639.0036,40,-86,-310,190,-178,89,786,29
639.0041,40,-85,-310,191,-178,89,786,28
639.0046,40,-86,-311,192,-178,89,786,28
639.0051,40,-86,-311,192,-178,89,787,29
639.0056,40,-86,-312,192,-178,90,787,29
639.0061,39,-85,-312,193,-177,90,787,30
639.0066,39,-85,-312,193,-178,90,786,29
639.0071,39,-84,-312,193,-178,89,786,29
639.0076,39,-85,-313,193,-177,89,785,29
639.0081,40,-85,-312,192,-178,89,785,29
639.0086,40,-86,-312,192,-177,89,784,28
639.0091,41,-86,-311,192,-178,89,785,28
639.0096,41,-86,-312,192,-178,89,784,29
639.0101,40,-86,-311,192,-177,90,785,29
639.0106,41,-87,-311,192,-178,89,786,29
639.0111,41,-87,-310,191,-178,89,787,29
639.0116,40,-86,-310,190,-178,89,788,29
639.0121,40,-87,-310,190,-178,89,788,29
639.0126,40,-87,-310,190,-178,90,788,29
639.0131,39,-87,-311,191,-178,90,788,30
639.0136,40,-86,-311,191,-178,90,788,29
639.0141,39,-86,-312,192,-178,89,788,29
639.0146,39,-86,-312,193,-178,89,788,29
639.0151,39,-85,-312,193,-179,89,787,27
639.0156,40,-85,-312,193,-179,89,787,27
639.0161,39,-85,-312,193,-178,89,787,27
639.0166,40,-85,-313,193,-179,89,788,27
639.0171,40,-85,-313,193,-179,89,788,28
639.0176,40,-85,-313,194,-179,89,788,28
639.0181,41,-85,-313,194,-179,89,788,28
639.0186,40,-85,-313,194,-179,89,787,28
639.0191,40,-85,-312,193,-179,89,787,28
639.0196,40,-85,-312,193,-179,89,787,27
639.0201,40,-85,-312,192,-178,89,786,28
639.0206,39,-85,-311,191,-177,89,786,28
639.0211,39,-85,-311,191,-178,89,787,28
639.0216,39,-85,-311,192,-178,89,787,28
639.0221,39,-85,-311,192,-178,89,787,28
639.0226,39,-85,-310,191,-178,90,786,29
639.0231,39,-86,-310,191,-178,90,787,29
639.0236,40,-85,-310,191,-177,90,786,30
639.0241,40,-86,-310,192,-178,90,787,29
639.0246,39,-85,-311,192,-178,90,786,30
639.0251,39,-85,-311,192,-178,90,787,29
639.0256,39,-85,-311,191,-178,89,787,29
639.0261,39,-86,-311,191,-178,89,787,29
639.0266,39,-85,-311,192,-178,89,786,29
639.0271,39,-85,-311,192,-178,90,785,29
639.0276,39,-85,-311,191,-178,90,786,29
639.0281,39,-85,-311,191,-178,89,785,28
639.0286,41,-86,-310,191,-178,89,785,29
639.0291,41,-87,-310,190,-178,90,785,28
639.0296,41,-87,-310,191,-177,89,785,28
639.0301,41,-87,-311,191,-178,89,785,29
639.0306,41,-87,-312,192,-178,89,785,28
639.0311,41,-86,-312,192,-178,89,785,29
639.0316,40,-86,-312,193,-179,89,785,28
639.0321,39,-86,-312,192,-178,89,786,28
639.0326,39,-85,-313,193,-179,89,786,29
639.0331,38,-85,-313,193,-179,89,787,28
639.0336,38,-84,-313,193,-178,89,788,28
639.0341,38,-83,-313,193,-179,89,788,29
639.0346,38,-83,-313,193,-178,89,789,29
639.0351,38,-83,-313,192,-178,90,788,29
639.0356,39,-84,-312,192,-178,90,788,29
639.0361,40,-86,-311,191,-178,90,788,29
639.0366,41,-87,-310,191,-178,90,787,29
639.0371,41,-88,-310,191,-178,90,787,29
639.0376,42,-89,-311,192,-178,90,787,29
639.0381,42,-90,-311,192,-178,90,787,29
639.0386,43,-91,-311,192,-178,90,787,28
639.0391,43,-92,-311,193,-179,90,788,29
639.0396,43,-92,-311,192,-179,90,787,29
639.0401,42,-91,-311,193,-178,90,787,29
639.0406,41,-89,-311,193,-178,90,787,29
639.0411,40,-88,-311,193,-178,90,788,29
639.0416,40,-87,-312,193,-178,90,787,28
639.0421,39,-87,-312,194,-179,90,787,28
639.0426,39,-85,-312,194,-179,90,787,28
639.0431,38,-83,-312,193,-178,90,787,28
639.0436,38,-84,-312,193,-178,90,787,28
639.0441,39,-85,-312,193,-178,89,787,28
639.0446,40,-85,-312,191,-178,89,787,28
639.0451,40,-84,-311,191,-178,89,787,28
639.0456,38,-82,-312,191,-178,89,786,27
639.0462,38,-81,-312,192,-178,88,786,28
639.0467,37,-80,-313,193,-178,89,786,28
639.0472,37,-82,-314,194,-178,89,786,28
639.0477,38,-82,-314,194,-178,89,786,28
639.0482,38,-83,-312,193,-178,90,786,29
639.0487,40,-84,-310,191,-177,90,786,28
639.0492,42,-85,-309,191,-177,90,786,28
639.0497,43,-86,-309,191,-178,90,786,29
639.0502,42,-87,-309,191,-178,90,787,29
639.0507,42,-87,-309,190,-178,90,787,30
639.0512,41,-87,-310,191,-178,90,787,30
639.0517,41,-87,-310,191,-179,90,788,29
639.0522,41,-87,-310,192,-178,90,788,29
639.0527,41,-87,-312,193,-178,90,788,29
639.0532,41,-87,-312,193,-178,90,788,29
639.0537,40,-86,-312,193,-179,90,787,29
639.0542,39,-85,-313,194,-179,90,788,29
639.0547,39,-85,-313,194,-179,90,788,29
639.0552,39,-85,-313,194,-179,90,788,29
639.0557,40,-85,-314,194,-179,90,788,29
639.0562,40,-85,-314,194,-179,90,787,29
639.0567,40,-85,-314,193,-179,90,787,29
639.0572,40,-86,-313,192,-178,90,787,29
639.0577,40,-86,-312,190,-178,90,787,29
639.0582,40,-86,-310,189,-178,90,786,29
639.0587,40,-85,-310,189,-178,89,787,29
639.0592,40,-85,-309,190,-179,89,787,28
639.0597,39,-84,-309,190,-179,89,787,28
639.0602,39,-84,-309,190,-179,89,787,28
639.0607,38,-84,-309,190,-178,89,787,28
639.0612,40,-84,-310,190,-178,89,787,28
639.0617,40,-85,-310,191,-178,89,787,28
639.0622,40,-84,-311,191,-178,89,787,27
639.0627,39,-85,-311,192,-178,89,787,28
639.0632,40,-85,-311,192,-178,89,787,28
639.0637,40,-85,-311,192,-178,89,787,28
639.0642,41,-85,-311,192,-178,90,787,29
639.0647,40,-86,-310,193,-178,90,787,29
639.0652,40,-85,-310,193,-178,90,787,29
639.0657,40,-85,-311,193,-178,90,787,30
639.0662,40,-85,-311,193,-178,90,787,30
639.0667,39,-85,-312,193,-178,90,787,30
639.0672,39,-84,-312,192,-178,91,787,30
639.0677,39,-84,-312,192,-178,90,787,29
639.0682,39,-84,-312,192,-178,90,786,29
639.0687,39,-84,-312,192,-177,90,787,30
639.0692,40,-84,-311,192,-178,90,787,29
639.0697,40,-85,-312,192,-178,90,786,29
639.0702,40,-85,-312,192,-178,90,787,29
639.0707,40,-85,-312,192,-178,89,787,28
639.0712,40,-85,-312,192,-179,89,788,28
639.0717,40,-86,-311,192,-179,90,787,28
639.0722,41,-86,-311,192,-178,89,787,28
639.0727,41,-87,-311,192,-178,90,787,29
639.0732,40,-86,-311,192,-178,90,787,28
639.07367,40,-86,-311,192,-178,90,787,29
639.0742,41,-86,-311,192,-178,90,787,29
639.0747,40,-86,-312,193,-178,90,787,29
639.0752,40,-85,-312,193,-178,90,787,29
639.0757,39,-85,-313,193,-178,90,787,29
639.0762,40,-85,-313,193,-178,90,787,28
639.0767,40,-85,-314,194,-179,90,787,28
639.0772,40,-86,-314,194,-178,90,786,28
639.0777,40,-86,-313,193,-178,89,786,29
639.0782,40,-85,-313,193,-177,89,786,29
639.0787,41,-86,-312,193,-177,90,786,28
639.0792,41,-87,-312,193,-178,90,786,29
639.0797,40,-86,-312,193,-178,90,786,29
639.0802,40,-86,-312,193,-178,89,787,28
639.0807,40,-86,-311,192,-178,90,786,28
639.0812,40,-86,-311,192,-178,90,786,28
639.0817,40,-86,-310,191,-177,89,786,28
639.0822,41,-87,-310,191,-177,89,786,29
639.0827,41,-87,-309,190,-177,90,786,29
639.0832,41,-87,-309,190,-177,89,786,29
639.0837,41,-86,-310,190,-178,89,787,29
639.0842,41,-86,-311,191,-178,89,787,28
639.0847,40,-86,-312,192,-178,90,788,29
639.0852,40,-86,-312,193,-178,89,788,29
639.0857,40,-86,-312,193,-178,89,787,29
639.0862,41,-86,-312,192,-178,89,788,29
639.0867,40,-86,-311,191,-178,90,788,29
639.0872,40,-86,-311,191,-178,90,788,30
639.0877,40,-86,-311,192,-178,90,788,30
639.0882,40,-85,-312,192,-178,90,788,30
639.0887,40,-85,-311,192,-178,90,788,29
639.0892,40,-86,-311,192,-178,90,788,29
639.0897,40,-86,-311,191,-178,90,787,29
639.0902,41,-86,-310,191,-178,90,788,29
639.0907,41,-87,-310,191,-178,90,787,29
639.0913,41,-87,-310,191,-178,89,787,28
639.0918,41,-88,-310,192,-178,90,787,28
639.0923,41,-88,-311,192,-178,89,787,28
639.0928,41,-87,-310,193,-178,90,787,28
639.0933,41,-87,-312,192,-178,89,787,29
639.0938,41,-87,-311,192,-178,89,786,28
639.0943,41,-86,-310,192,-177,89,787,28
639.0948,41,-86,-310,192,-178,89,786,28
639.0953,40,-85,-311,192,-178,89,787,28
639.0958,40,-85,-312,192,-178,89,787,28
639.0963,40,-85,-312,193,-179,89,788,28
639.0968,40,-85,-313,193,-178,90,787,29
639.0973,40,-85,-313,193,-178,90,787,30
639.0978,40,-85,-313,192,-178,90,787,30
639.0983,40,-85,-312,192,-178,90,788,30
639.0988,40,-86,-312,192,-178,90,787,30
639.0993,40,-86,-312,192,-178,90,787,30
639.0998,40,-86,-313,193,-178,89,787,30
639.1003,41,-86,-313,193,-178,89,787,30
639.1008,41,-86,-313,194,-178,89,787,29
639.1013,40,-86,-313,194,-178,90,787,29
639.1018,40,-86,-312,193,-178,90,788,29
639.1023,40,-86,-311,192,-178,89,787,29
639.1028,41,-86,-311,192,-178,89,787,28
639.1033,41,-86,-310,192,-178,89,787,28
639.1038,41,-86,-310,192,-178,89,787,28
639.1043,41,-86,-311,192,-178,89,787,28
639.1048,41,-86,-310,192,-178,89,787,27
639.1053,40,-86,-310,192,-178,89,787,27
639.1058,40,-86,-310,192,-178,89,787,27
639.1063,40,-86,-310,191,-178,89,787,28
639.1068,40,-86,-310,191,-178,89,787,29
639.1073,40,-85,-311,192,-178,90,786,29
639.1078,40,-86,-311,193,-178,90,786,29
639.1083,40,-85,-312,194,-178,90,785,29
639.1088,40,-85,-312,194,-178,90,785,29
639.1093,40,-85,-312,194,-178,90,784,28
639.1098,40,-85,-312,193,-177,90,784,29
639.1103,40,-86,-312,192,-178,90,784,28
639.1108,40,-86,-311,193,-178,89,784,28
639.1113,41,-85,-311,192,-178,89,785,29
639.1118,40,-86,-310,192,-177,89,786,28
639.1123,41,-86,-310,191,-178,89,787,28
639.1128,41,-86,-309,191,-178,89,788,28
639.1133,41,-86,-310,190,-178,89,790,28
639.1138,41,-86,-310,191,-178,89,790,28
639.1143,41,-86,-311,192,-178,89,790,28
639.1148,41,-86,-311,192,-178,90,789,28
639.1153,41,-86,-311,193,-178,90,789,29
639.1158,40,-86,-311,193,-178,90,788,29
639.1163,41,-86,-311,193,-178,90,788,29
639.1168,41,-86,-312,193,-178,90,788,30
639.1173,40,-86,-312,193,-178,90,787,29
639.1178,40,-86,-312,192,-178,90,787,29
639.1183,40,-86,-312,192,-177,90,787,29
639.1188,40,-86,-311,192,-178,90,787,28
639.1193,40,-86,-310,191,-178,90,787,29
639.1198,40,-86,-310,191,-178,90,787,28
639.1203,40,-87,-311,191,-178,90,788,28
639.1208,40,-87,-311,192,-178,90,788,29
639.1213,40,-86,-311,192,-178,90,788,29
639.1218,40,-87,-311,192,-178,90,788,29
639.1223,40,-87,-311,192,-178,90,788,29
639.1228,40,-86,-311,192,-178,90,787,29
639.1233,40,-85,-311,192,-178,90,788,29
639.1238,40,-85,-310,191,-178,90,787,29
639.1243,40,-85,-310,191,-178,90,787,29
639.1248,40,-86,-310,191,-178,90,787,29
639.1253,41,-86,-310,191,-178,90,787,28
639.1258,41,-87,-310,191,-178,90,787,29
639.1263,42,-87,-311,192,-178,90,787,29
639.1268,41,-87,-311,193,-178,90,787,29
639.1273,41,-87,-312,192,-178,90,788,29
639.1278,41,-86,-312,193,-179,90,788,29
639.1283,41,-87,-311,193,-178,90,788,29
639.1288,41,-87,-311,193,-178,90,788,29
639.1293,41,-86,-311,193,-178,90,788,29
639.1298,41,-86,-312,193,-178,90,787,29
639.1303,40,-86,-311,193,-178,89,787,29
639.1308,41,-85,-311,193,-178,89,787,29
639.1313,40,-86,-312,193,-178,90,787,28
639.1318,41,-86,-312,194,-178,90,787,29
639.1323,41,-86,-312,194,-178,90,787,28
639.1328,41,-86,-312,194,-178,90,787,28
639.1333,40,-86,-312,194,-178,89,787,28
639.1338,40,-85,-312,193,-178,89,787,27
639.1343,40,-85,-312,194,-178,89,786,28
639.1348,40,-86,-313,194,-178,89,787,28
639.1353,40,-86,-313,193,-178,89,787,28
639.1358,40,-86,-312,191,-177,89,786,28
639.1364,39,-86,-312,191,-178,89,786,28
639.1369,39,-85,-312,192,-178,89,786,28
639.1374,39,-86,-312,191,-177,89,786,29
639.1379,40,-86,-311,191,-177,90,786,29
639.1384,39,-85,-311,191,-177,90,786,30
639.1389,39,-85,-311,191,-178,90,786,30
639.1394,39,-84,-309,191,-178,90,786,30
639.1399,40,-85,-308,190,-178,90,786,30
639.1404,40,-85,-308,190,-178,89,786,29
639.1409,41,-86,-309,191,-178,89,786,29
639.1414,42,-87,-310,191,-178,90,787,29
639.1419,42,-87,-310,192,-179,90,787,29
639.1424,42,-87,-310,192,-178,90,788,30
639.1429,41,-87,-310,193,-179,91,788,30
639.1434,41,-86,-311,193,-179,91,789,30
639.1439,41,-86,-310,193,-179,90,789,30
